# Parameters:
# omega_b = 0.022580, omega_m = 0.133084, n_s = 0.963000, h = 71.000000, w = -1.000000, sigma_8 = 0.800000
# z = 0.370000
#
# k[1/Mpc] # P(k):
8.694000e-04 1.212308e+04 
2.077466e-03 2.574519e+04 
3.285532e-03 3.621326e+04 
4.493598e-03 4.410753e+04 
5.701664e-03 4.982667e+04 
6.909730e-03 5.375066e+04 
8.117797e-03 5.629088e+04 
9.325863e-03 5.765902e+04 
1.053393e-02 5.806212e+04 
1.174199e-02 5.768773e+04 
1.295006e-02 5.665839e+04 
1.415813e-02 5.513713e+04 
1.536619e-02 5.326004e+04 
1.657426e-02 5.112256e+04 
1.778233e-02 4.880771e+04 
1.899039e-02 4.643207e+04 
2.019846e-02 4.406282e+04 
2.140652e-02 4.176150e+04 
2.261459e-02 3.955915e+04 
2.382266e-02 3.748960e+04 
2.503072e-02 3.557557e+04 
2.623879e-02 3.382288e+04 
2.744685e-02 3.223341e+04 
2.865492e-02 3.080438e+04 
2.986299e-02 2.952677e+04 
3.100100e-02 2.845610e+04 
3.220400e-02 2.745131e+04 
3.288100e-02 2.694076e+04 
3.424300e-02 2.601639e+04 
3.555100e-02 2.523704e+04 
3.686000e-02 2.454741e+04 
3.795000e-02 2.402716e+04 
3.929100e-02 2.344216e+04 
4.039800e-02 2.298882e+04 
4.164000e-02 2.250156e+04 
4.294400e-02 2.199425e+04 
4.415000e-02 2.152810e+04 
4.542900e-02 2.101564e+04 
4.660900e-02 2.053551e+04 
4.782300e-02 2.000948e+04 
4.892900e-02 1.951751e+04 
5.031200e-02 1.887914e+04 
5.155900e-02 1.828180e+04 
5.238100e-02 1.788070e+04 
5.378200e-02 1.719115e+04 
5.513400e-02 1.652125e+04 
5.627600e-02 1.595854e+04 
5.735300e-02 1.543777e+04 
5.870100e-02 1.480568e+04 
5.988700e-02 1.427271e+04 
6.113500e-02 1.373901e+04 
6.225900e-02 1.328494e+04 
6.340100e-02 1.285358e+04 
6.480200e-02 1.236356e+04 
6.601100e-02 1.197894e+04 
6.725500e-02 1.161881e+04 
6.829100e-02 1.134862e+04 
6.958600e-02 1.104110e+04 
7.071100e-02 1.080289e+04 
7.192300e-02 1.057172e+04 
7.307400e-02 1.037406e+04 
7.412300e-02 1.021038e+04 
7.550400e-02 1.001730e+04 
7.663100e-02 9.872674e+03 
7.791200e-02 9.721988e+03 
7.912700e-02 9.586696e+03 
8.027600e-02 9.462972e+03 
8.138400e-02 9.345392e+03 
8.272200e-02 9.202937e+03 
8.406100e-02 9.057749e+03 
8.534100e-02 8.911782e+03 
8.653800e-02 8.768689e+03 
8.759800e-02 8.637924e+03 
8.900300e-02 8.457297e+03 
9.009000e-02 8.311062e+03 
9.113300e-02 8.165768e+03 
9.239600e-02 7.987726e+03 
9.358000e-02 7.817516e+03 
9.496100e-02 7.615534e+03 
9.608400e-02 7.452508e+03 
9.727500e-02 7.281949e+03 
9.852600e-02 7.104742e+03 
9.973800e-02 6.938705e+03 
1.009000e-01 6.784574e+03 
1.020900e-01 6.634799e+03 
1.034000e-01 6.477837e+03 
1.046000e-01 6.341479e+03 
1.057200e-01 6.224032e+03 
1.069100e-01 6.105306e+03 
1.082500e-01 5.983638e+03 
1.093900e-01 5.888091e+03 
1.105400e-01 5.797096e+03 
1.116900e-01 5.715389e+03 
1.129600e-01 5.629771e+03 
1.142000e-01 5.553794e+03 
1.153300e-01 5.487963e+03 
1.166400e-01 5.416178e+03 
1.177800e-01 5.356491e+03 
1.190000e-01 5.294727e+03 
1.201200e-01 5.238635e+03 
1.213400e-01 5.178844e+03 
1.227100e-01 5.110404e+03 
1.238900e-01 5.051991e+03 
1.250700e-01 4.991725e+03 
1.263200e-01 4.927898e+03 
1.275500e-01 4.863278e+03 
1.287500e-01 4.800065e+03 
1.299900e-01 4.733673e+03 
1.311300e-01 4.672535e+03 
1.323500e-01 4.606342e+03 
1.335900e-01 4.539640e+03 
1.347100e-01 4.479431e+03 
1.359800e-01 4.412226e+03 
1.372100e-01 4.347737e+03 
1.384300e-01 4.285120e+03 
1.395700e-01 4.227645e+03 
1.407700e-01 4.168475e+03 
1.420300e-01 4.108203e+03 
1.432800e-01 4.049742e+03 
1.444500e-01 3.997282e+03 
1.456300e-01 3.945455e+03 
1.468900e-01 3.892520e+03 
1.480500e-01 3.845158e+03 
1.491700e-01 3.800966e+03 
1.503800e-01 3.754990e+03 
1.516400e-01 3.708390e+03 
1.528200e-01 3.666944e+03 
1.540200e-01 3.625602e+03 
1.551900e-01 3.587042e+03 
1.564300e-01 3.547192e+03 
1.576600e-01 3.508883e+03 
1.588700e-01 3.472457e+03 
1.600900e-01 3.436434e+03 
1.612700e-01 3.402568e+03 
1.625400e-01 3.366794e+03 
1.637600e-01 3.333085e+03 
1.649500e-01 3.300805e+03 
1.662200e-01 3.266911e+03 
1.674000e-01 3.235598e+03 
1.685000e-01 3.206895e+03 
1.697500e-01 3.174465e+03 
1.710300e-01 3.141495e+03 
1.722200e-01 3.111385e+03 
1.734400e-01 3.080272e+03 
1.746400e-01 3.050161e+03 
1.758700e-01 3.019629e+03 
1.770900e-01 2.989464e+03 
1.782700e-01 2.960775e+03 
1.794600e-01 2.932022e+03 
1.807000e-01 2.902364e+03 
1.819100e-01 2.873908e+03 
1.830100e-01 2.848281e+03 
1.842200e-01 2.820502e+03 
1.855000e-01 2.791616e+03 
1.867000e-01 2.765162e+03 
1.879200e-01 2.738697e+03 
1.890900e-01 2.713764e+03 
1.902800e-01 2.689045e+03 
1.915200e-01 2.663694e+03 
1.926900e-01 2.640237e+03 
1.939000e-01 2.616649e+03 
1.951700e-01 2.592281e+03 
1.963100e-01 2.570843e+03 
1.975100e-01 2.548886e+03 
1.987800e-01 2.526005e+03 
2.000100e-01 2.504281e+03 
2.012500e-01 2.482934e+03 
2.023400e-01 2.464434e+03 
2.036100e-01 2.443224e+03 
2.048900e-01 2.422312e+03 
2.060400e-01 2.403797e+03 
2.072200e-01 2.385069e+03 
2.084200e-01 2.366366e+03 
2.096900e-01 2.346858e+03 
2.109200e-01 2.328241e+03 
2.121100e-01 2.310444e+03 
2.132700e-01 2.293328e+03 
2.145200e-01 2.275140e+03 
2.157200e-01 2.257878e+03 
2.168800e-01 2.241395e+03 
2.180700e-01 2.224710e+03 
2.193400e-01 2.207123e+03 
2.206000e-01 2.189873e+03 
2.217500e-01 2.174340e+03 
2.229500e-01 2.158342e+03 
2.241400e-01 2.142637e+03 
2.253500e-01 2.126876e+03 
2.264900e-01 2.112217e+03 
2.277100e-01 2.096727e+03 
2.289900e-01 2.080693e+03 
2.301500e-01 2.066351e+03 
2.313600e-01 2.051580e+03 
2.325600e-01 2.037111e+03 
2.337700e-01 2.022706e+03 
2.350000e-01 2.008250e+03 
2.362000e-01 1.994354e+03 
2.374100e-01 1.980551e+03 
2.386500e-01 1.966585e+03 
2.399100e-01 1.952575e+03 
2.410400e-01 1.940191e+03 
2.422500e-01 1.927090e+03 
2.435000e-01 1.913725e+03 
2.447300e-01 1.900761e+03 
2.458700e-01 1.888983e+03 
2.470600e-01 1.876831e+03 
2.483300e-01 1.864020e+03 
2.495600e-01 1.851809e+03 
2.507600e-01 1.840098e+03 
2.519600e-01 1.828523e+03 
2.532200e-01 1.816515e+03 
2.543700e-01 1.805732e+03 
2.555500e-01 1.794826e+03 
2.568000e-01 1.783407e+03 
2.580100e-01 1.772482e+03 
2.592400e-01 1.761563e+03 
2.604100e-01 1.751320e+03 
2.616100e-01 1.740930e+03 
2.628400e-01 1.730402e+03 
2.640600e-01 1.720102e+03 
2.652200e-01 1.710427e+03 
2.664300e-01 1.700444e+03 
2.676500e-01 1.690490e+03 
2.688400e-01 1.680902e+03 
2.700700e-01 1.671110e+03 
2.712400e-01 1.661895e+03 
2.724800e-01 1.652236e+03 
2.736700e-01 1.643075e+03 
2.748800e-01 1.633868e+03 
2.761000e-01 1.624685e+03 
2.773200e-01 1.615600e+03 
2.785400e-01 1.606602e+03 
2.797000e-01 1.598112e+03 
2.808900e-01 1.589491e+03 
2.821400e-01 1.580532e+03 
2.833900e-01 1.571670e+03 
2.845500e-01 1.563539e+03 
2.857800e-01 1.555007e+03 
2.870300e-01 1.546427e+03 
2.882100e-01 1.538411e+03 
2.893900e-01 1.530444e+03 
2.906300e-01 1.522140e+03 
2.918900e-01 1.513790e+03 
2.930500e-01 1.506182e+03 
2.942500e-01 1.498389e+03 
2.954200e-01 1.490873e+03 
2.966500e-01 1.483049e+03 
2.978900e-01 1.475242e+03 
2.990400e-01 1.468073e+03 
3.002700e-01 1.460469e+03 
3.015100e-01 1.452876e+03 
3.026800e-01 1.445781e+03 
3.038500e-01 1.438753e+03 
3.050300e-01 1.431732e+03 
3.062600e-01 1.424452e+03 
3.075000e-01 1.417185e+03 
3.087000e-01 1.410221e+03 
3.099100e-01 1.403266e+03 
3.111200e-01 1.396392e+03 
3.123100e-01 1.389723e+03 
3.135300e-01 1.382949e+03 
3.147300e-01 1.376349e+03 
3.159900e-01 1.369486e+03 
3.171800e-01 1.363065e+03 
3.183700e-01 1.356704e+03 
3.196300e-01 1.350031e+03 
3.208400e-01 1.343684e+03 
3.220300e-01 1.337498e+03 
3.232000e-01 1.331477e+03 
3.244300e-01 1.325206e+03 
3.256700e-01 1.318943e+03 
3.269200e-01 1.312688e+03 
3.280800e-01 1.306936e+03 
3.292500e-01 1.301220e+03 
3.304800e-01 1.295275e+03 
3.317100e-01 1.289384e+03 
3.328900e-01 1.283782e+03 
3.340700e-01 1.278229e+03 
3.353600e-01 1.272221e+03 
3.365300e-01 1.266823e+03 
3.377100e-01 1.261425e+03 
3.389200e-01 1.255937e+03 
3.401600e-01 1.250363e+03 
3.413700e-01 1.244988e+03 
3.425300e-01 1.239888e+03 
3.437700e-01 1.234484e+03 
3.449800e-01 1.229257e+03 
3.461800e-01 1.224116e+03 
3.473600e-01 1.219116e+03 
3.485800e-01 1.214017e+03 
3.498100e-01 1.208921e+03 
3.510200e-01 1.203950e+03 
3.522000e-01 1.199143e+03 
3.533900e-01 1.194335e+03 
3.546400e-01 1.189336e+03 
3.558400e-01 1.184578e+03 
3.570600e-01 1.179781e+03 
3.582700e-01 1.175063e+03 
3.595000e-01 1.170307e+03 
3.607100e-01 1.165679e+03 
3.618900e-01 1.161211e+03 
3.631200e-01 1.156592e+03 
3.643200e-01 1.152123e+03 
3.655500e-01 1.147579e+03 
3.667300e-01 1.143255e+03 
3.679500e-01 1.138862e+03 
3.691900e-01 1.134433e+03 
3.703600e-01 1.130288e+03 
3.715700e-01 1.126034e+03 
3.727700e-01 1.121849e+03 
3.739900e-01 1.117627e+03 
3.752000e-01 1.113468e+03 
3.763900e-01 1.109411e+03 
3.775800e-01 1.105385e+03 
3.788200e-01 1.101222e+03 
3.800300e-01 1.097193e+03 
3.812100e-01 1.093283e+03 
3.824200e-01 1.089298e+03 
3.836100e-01 1.085409e+03 
3.848600e-01 1.081355e+03 
3.860400e-01 1.077558e+03 
3.872400e-01 1.073725e+03 
3.884600e-01 1.069880e+03 
3.896500e-01 1.066167e+03 
3.908700e-01 1.062388e+03 
3.920600e-01 1.058730e+03 
3.933100e-01 1.054917e+03 
3.945300e-01 1.051224e+03 
3.957200e-01 1.047641e+03 
3.969300e-01 1.044022e+03 
3.981700e-01 1.040342e+03 
3.993500e-01 1.036866e+03 
4.094840e-01 1.007946e+03 
4.272360e-01 9.612925e+02 
4.454600e-01 9.177248e+02 
4.630560e-01 8.791580e+02 
4.804610e-01 8.440008e+02 
4.980690e-01 8.112047e+02 
5.159230e-01 7.803969e+02 
5.317440e-01 7.550977e+02 
5.489640e-01 7.292645e+02 
5.671990e-01 7.038262e+02 
5.838690e-01 6.821234e+02 
6.018840e-01 6.602322e+02 
6.202330e-01 6.394095e+02 
6.379250e-01 6.205127e+02 
6.545410e-01 6.038382e+02 
6.714560e-01 5.877946e+02 
6.892080e-01 5.718385e+02 
7.066010e-01 5.569827e+02 
7.240540e-01 5.428706e+02 
7.420450e-01 5.290805e+02 
7.593780e-01 5.163313e+02 
7.764720e-01 5.043595e+02 
7.942840e-01 4.924516e+02 
8.116170e-01 4.812530e+02 
8.288310e-01 4.705964e+02 
8.462240e-01 4.602051e+02 
8.631980e-01 4.504617e+02 
8.810700e-01 4.405875e+02 
8.989410e-01 4.310678e+02 
9.166330e-01 4.219473e+02 
9.345640e-01 4.129680e+02 
9.515980e-01 4.047290e+02 
9.688720e-01 3.966549e+02 
9.865640e-01 3.886164e+02 
1.031870e+00 3.690766e+02 
1.063490e+00 3.562758e+02 
1.097920e+00 3.430423e+02 
1.134370e+00 3.298356e+02 
1.167730e+00 3.183145e+02 
1.203830e+00 3.064937e+02 
1.240470e+00 2.951348e+02 
1.275790e+00 2.846835e+02 
1.309140e+00 2.753184e+02 
1.342970e+00 2.662147e+02 
1.378420e+00 2.571594e+02 
1.413200e+00 2.486537e+02 
1.448110e+00 2.405134e+02 
1.484090e+00 2.325108e+02 
1.518820e+00 2.251544e+02 
1.552880e+00 2.181975e+02 
1.588630e+00 2.112524e+02 
1.623230e+00 2.048153e+02 
1.657720e+00 1.986720e+02 
1.692450e+00 1.927716e+02 
1.726400e+00 1.871888e+02 
1.762200e+00 1.815545e+02 
1.797880e+00 1.761757e+02 
1.833270e+00 1.710696e+02 
1.869070e+00 1.661054e+02 
1.903200e+00 1.615633e+02 
1.937740e+00 1.571420e+02 
1.973190e+00 1.527836e+02 
2.007440e+00 1.487285e+02 
2.042160e+00 1.447666e+02 
2.077900e+00 1.408400e+02 
2.112390e+00 1.372053e+02 
2.146220e+00 1.337524e+02 
2.181600e+00 1.302756e+02 
2.216930e+00 1.269337e+02 
2.250760e+00 1.238451e+02 
2.286500e+00 1.206930e+02 
2.321770e+00 1.176896e+02 
2.355950e+00 1.148748e+02 
2.391280e+00 1.120662e+02 
2.426240e+00 1.093887e+02 
2.460670e+00 1.068365e+02 
2.495640e+00 1.043208e+02 
2.531080e+00 1.018625e+02 
2.566220e+00 9.950206e+01 
2.600830e+00 9.725045e+01 
2.635080e+00 9.509130e+01 
2.670340e+00 9.293869e+01 
2.705970e+00 9.083784e+01 
2.740040e+00 8.889197e+01 
2.774520e+00 8.697090e+01 
2.809730e+00 8.507656e+01 
2.844390e+00 8.327104e+01 
2.879960e+00 8.147090e+01 
2.914860e+00 7.975558e+01 
2.949410e+00 7.810823e+01 
2.984440e+00 7.648961e+01 
3.019760e+00 7.489871e+01 
3.054730e+00 7.336648e+01 
3.089030e+00 7.191275e+01 
3.124060e+00 7.046929e+01 
3.159560e+00 6.904640e+01 
3.194710e+00 6.768185e+01 
3.229010e+00 6.638804e+01 
3.263320e+00 6.511763e+01 
3.297930e+00 6.387293e+01 
3.332830e+00 6.265536e+01 
3.368040e+00 6.146023e+01 
3.403300e+00 6.029577e+01 
3.438450e+00 5.916352e+01 
3.473060e+00 5.807768e+01 
3.508440e+00 5.699879e+01 
3.543110e+00 5.596892e+01 
3.577470e+00 5.497223e+01 
3.613040e+00 5.396791e+01 
3.648120e+00 5.300551e+01 
3.682910e+00 5.207291e+01 
3.718050e+00 5.115027e+01 
3.753320e+00 5.025037e+01 
3.787980e+00 4.939216e+01 
3.822290e+00 4.856087e+01 
3.857020e+00 4.773615e+01 
3.891920e+00 4.692833e+01 
3.926650e+00 4.614551e+01 
3.961970e+00 4.536772e+01 
3.997360e+00 4.460563e+01 
4.031670e+00 4.388452e+01 
4.066330e+00 4.317510e+01 
4.101420e+00 4.247323e+01 
4.136200e+00 4.179167e+01 
4.170810e+00 4.112863e+01 
4.206250e+00 4.046622e+01 
4.241580e+00 3.982096e+01 
4.276300e+00 3.920159e+01 
4.310970e+00 3.859695e+01 
4.346120e+00 3.799725e+01 
4.380600e+00 3.742164e+01 
4.414730e+00 3.686386e+01 
4.450350e+00 3.629526e+01 
4.485320e+00 3.574891e+01 
4.519810e+00 3.522138e+01 
4.555430e+00 3.468796e+01 
4.590870e+00 3.416935e+01 
4.625480e+00 3.367530e+01 
4.659910e+00 3.319368e+01 
4.695230e+00 3.270883e+01 
4.729960e+00 3.224155e+01 
4.764450e+00 3.178666e+01 
4.799530e+00 3.133312e+01 
4.834910e+00 3.088476e+01 
4.869700e+00 3.045491e+01 
4.904370e+00 3.003517e+01 
4.939450e+00 2.961864e+01 
4.973940e+00 2.921694e+01 
5.008430e+00 2.882277e+01 
5.043810e+00 2.842609e+01 
5.078840e+00 2.804078e+01 
5.113500e+00 2.766663e+01 
5.148890e+00 2.729401e+01 
5.184210e+00 2.692913e+01 
5.219060e+00 2.657535e+01 
5.253660e+00 2.622942e+01 
5.288570e+00 2.588665e+01 
5.323420e+00 2.555197e+01 
5.358440e+00 2.522317e+01 
5.393590e+00 2.489900e+01 
5.428310e+00 2.458408e+01 
5.462800e+00 2.427648e+01 
5.497640e+00 2.397113e+01 
5.532670e+00 2.367133e+01 
5.567280e+00 2.338080e+01 
5.602000e+00 2.309428e+01 
5.637270e+00 2.280722e+01 
5.672410e+00 2.252588e+01 
5.707020e+00 2.225343e+01 
5.742040e+00 2.198383e+01 
5.777430e+00 2.171625e+01 
5.812210e+00 2.145763e+01 
5.846820e+00 2.120448e+01 
5.881610e+00 2.095413e+01 
5.916510e+00 2.070706e+01 
5.951600e+00 2.046342e+01 
5.986560e+00 2.022494e+01 
6.021830e+00 1.998819e+01 
6.056490e+00 1.975951e+01 
6.091160e+00 1.953458e+01 
6.125830e+00 1.931314e+01 
6.161090e+00 1.909146e+01 
6.195760e+00 1.887689e+01 
6.230420e+00 1.866567e+01 
6.265690e+00 1.845408e+01 
6.300950e+00 1.824677e+01 
6.335620e+00 1.804603e+01 
6.370880e+00 1.784496e+01 
6.405550e+00 1.765051e+01 
6.440220e+00 1.745907e+01 
6.475480e+00 1.726727e+01 
6.510150e+00 1.708174e+01 
6.544810e+00 1.689956e+01 
6.580080e+00 1.671688e+01 
6.614750e+00 1.653994e+01 
6.649410e+00 1.636565e+01 
6.684080e+00 1.619383e+01 
6.719340e+00 1.602160e+01 
6.754010e+00 1.585479e+01 
6.788680e+00 1.569059e+01 
6.823940e+00 1.552596e+01 
6.859800e+00 1.536094e+01 
6.894470e+00 1.520418e+01 
6.929140e+00 1.504978e+01 
6.963800e+00 1.489756e+01 
6.999070e+00 1.474479e+01 
7.033730e+00 1.459648e+01 
7.068400e+00 1.445014e+01 
7.103660e+00 1.430335e+01 
7.138330e+00 1.416139e+01 
7.173600e+00 1.401976e+01 
7.208260e+00 1.388245e+01 
7.243530e+00 1.374459e+01 
7.277600e+00 1.361278e+01 
7.312860e+00 1.347781e+01 
7.348120e+00 1.334463e+01 
7.382790e+00 1.321542e+01 
7.417460e+00 1.308861e+01 
7.452720e+00 1.296169e+01 
7.487390e+00 1.283853e+01 
7.522650e+00 1.271488e+01 
7.557320e+00 1.259492e+01 
7.591990e+00 1.247650e+01 
7.627250e+00 1.235760e+01 
7.662510e+00 1.224023e+01 
7.697180e+00 1.212634e+01 
7.731850e+00 1.201389e+01 
7.766510e+00 1.190288e+01 
7.801180e+00 1.179322e+01 
7.836440e+00 1.168325e+01 
7.871110e+00 1.157658e+01 
7.906380e+00 1.146941e+01 
7.941040e+00 1.136538e+01 
7.976310e+00 1.126096e+01 
8.011570e+00 1.115802e+01 
8.046240e+00 1.105803e+01 
8.080900e+00 1.095927e+01 
8.115570e+00 1.086168e+01 
8.150830e+00 1.076369e+01 
8.185500e+00 1.066850e+01 
8.220770e+00 1.057281e+01 
8.255430e+00 1.047990e+01 
8.290100e+00 1.038830e+01 
8.324770e+00 1.029780e+01 
8.359430e+00 1.020839e+01 
8.394700e+00 1.011846e+01 
8.429960e+00 1.002968e+01 
8.464630e+00 9.943448e+00 
8.499890e+00 9.856766e+00 
8.534560e+00 9.772517e+00 
8.569200e+00 9.689300e+00 
