# Parameters:
# omega_b = 0.022580, omega_m = 0.133084, n_s = 0.963000, h = 71.000000, w = -1.000000, sigma_8 = 0.800000
# z = 1.110000
#
# k[1/Mpc] # P(k):
8.694000e-04 6.237218e+03 
2.077466e-03 1.324741e+04 
3.285532e-03 1.863194e+04 
4.493598e-03 2.269634e+04 
5.701664e-03 2.564385e+04 
6.909730e-03 2.766839e+04 
8.117797e-03 2.898163e+04 
9.325863e-03 2.969218e+04 
1.053393e-02 2.990641e+04 
1.174199e-02 2.972069e+04 
1.295006e-02 2.919776e+04 
1.415813e-02 2.842081e+04 
1.536619e-02 2.745973e+04 
1.657426e-02 2.636220e+04 
1.778233e-02 2.516574e+04 
1.899039e-02 2.393292e+04 
2.019846e-02 2.270775e+04 
2.140652e-02 2.152305e+04 
2.261459e-02 2.039012e+04 
2.382266e-02 1.932519e+04 
2.503072e-02 1.833966e+04 
2.623879e-02 1.743673e+04 
2.744685e-02 1.661788e+04 
2.865492e-02 1.588182e+04 
2.986299e-02 1.522383e+04 
3.100100e-02 1.467275e+04 
3.220400e-02 1.415606e+04 
3.288100e-02 1.389398e+04 
3.424300e-02 1.342013e+04 
3.555100e-02 1.302149e+04 
3.686000e-02 1.266983e+04 
3.795000e-02 1.240519e+04 
3.929100e-02 1.210813e+04 
4.039800e-02 1.187844e+04 
4.164000e-02 1.163129e+04 
4.294400e-02 1.137346e+04 
4.415000e-02 1.113597e+04 
4.542900e-02 1.087354e+04 
4.660900e-02 1.062634e+04 
4.782300e-02 1.035360e+04 
4.892900e-02 1.009780e+04 
5.031200e-02 9.763934e+03 
5.155900e-02 9.449755e+03 
5.238100e-02 9.238334e+03 
5.378200e-02 8.873254e+03 
5.513400e-02 8.517377e+03 
5.627600e-02 8.218042e+03 
5.735300e-02 7.940383e+03 
5.870100e-02 7.602544e+03 
5.988700e-02 7.317739e+03 
6.113500e-02 7.032473e+03 
6.225900e-02 6.790368e+03 
6.340100e-02 6.560316e+03 
6.480200e-02 6.299646e+03 
6.601100e-02 6.095992e+03 
6.725500e-02 5.906255e+03 
6.829100e-02 5.764770e+03 
6.958600e-02 5.604351e+03 
7.071100e-02 5.480975e+03 
7.192300e-02 5.362267e+03 
7.307400e-02 5.261719e+03 
7.412300e-02 5.179066e+03 
7.550400e-02 5.082350e+03 
7.663100e-02 5.010539e+03 
7.791200e-02 4.936327e+03 
7.912700e-02 4.870225e+03 
8.027600e-02 4.809627e+03 
8.138400e-02 4.751878e+03 
8.272200e-02 4.681569e+03 
8.406100e-02 4.609211e+03 
8.534100e-02 4.535723e+03 
8.653800e-02 4.462489e+03 
8.759800e-02 4.394999e+03 
8.900300e-02 4.300983e+03 
9.009000e-02 4.224198e+03 
9.113300e-02 4.146994e+03 
9.239600e-02 4.051710e+03 
9.358000e-02 3.959891e+03 
9.496100e-02 3.850084e+03 
9.608400e-02 3.760971e+03 
9.727500e-02 3.667386e+03 
9.852600e-02 3.569375e+03 
9.973800e-02 3.477369e+03 
1.009000e-01 3.391838e+03 
1.020900e-01 3.308452e+03 
1.034000e-01 3.221215e+03 
1.046000e-01 3.145576e+03 
1.057200e-01 3.080913e+03 
1.069100e-01 3.015772e+03 
1.082500e-01 2.949532e+03 
1.093900e-01 2.898170e+03 
1.105400e-01 2.849655e+03 
1.116900e-01 2.807015e+03 
1.129600e-01 2.762699e+03 
1.142000e-01 2.724342e+03 
1.153300e-01 2.691485e+03 
1.166400e-01 2.656253e+03 
1.177800e-01 2.627347e+03 
1.190000e-01 2.597621e+03 
1.201200e-01 2.570776e+03 
1.213400e-01 2.542188e+03 
1.227100e-01 2.509096e+03 
1.238900e-01 2.480711e+03 
1.250700e-01 2.450944e+03 
1.263200e-01 2.419173e+03 
1.275500e-01 2.386478e+03 
1.287500e-01 2.354139e+03 
1.299900e-01 2.319629e+03 
1.311300e-01 2.287580e+03 
1.323500e-01 2.252487e+03 
1.335900e-01 2.216845e+03 
1.347100e-01 2.184307e+03 
1.359800e-01 2.147814e+03 
1.372100e-01 2.112426e+03 
1.384300e-01 2.077993e+03 
1.395700e-01 2.046167e+03 
1.407700e-01 2.013420e+03 
1.420300e-01 1.979926e+03 
1.432800e-01 1.947475e+03 
1.444500e-01 1.918381e+03 
1.456300e-01 1.889667e+03 
1.468900e-01 1.860528e+03 
1.480500e-01 1.834527e+03 
1.491700e-01 1.810454e+03 
1.503800e-01 1.785643e+03 
1.516400e-01 1.760593e+03 
1.528200e-01 1.738680e+03 
1.540200e-01 1.716833e+03 
1.551900e-01 1.696888e+03 
1.564300e-01 1.676387e+03 
1.576600e-01 1.656846e+03 
1.588700e-01 1.638467e+03 
1.600900e-01 1.620310e+03 
1.612700e-01 1.603521e+03 
1.625400e-01 1.585788e+03 
1.637600e-01 1.569082e+03 
1.649500e-01 1.553087e+03 
1.662200e-01 1.536272e+03 
1.674000e-01 1.520619e+03 
1.685000e-01 1.506272e+03 
1.697500e-01 1.489926e+03 
1.710300e-01 1.473175e+03 
1.722200e-01 1.457880e+03 
1.734400e-01 1.441730e+03 
1.746400e-01 1.426091e+03 
1.758700e-01 1.410127e+03 
1.770900e-01 1.394137e+03 
1.782700e-01 1.378937e+03 
1.794600e-01 1.363595e+03 
1.807000e-01 1.347703e+03 
1.819100e-01 1.332464e+03 
1.830100e-01 1.318678e+03 
1.842200e-01 1.303733e+03 
1.855000e-01 1.288201e+03 
1.867000e-01 1.273943e+03 
1.879200e-01 1.259688e+03 
1.890900e-01 1.246281e+03 
1.902800e-01 1.233067e+03 
1.915200e-01 1.219522e+03 
1.926900e-01 1.207032e+03 
1.939000e-01 1.194590e+03 
1.951700e-01 1.181743e+03 
1.963100e-01 1.170483e+03 
1.975100e-01 1.159051e+03 
1.987800e-01 1.147143e+03 
2.000100e-01 1.135884e+03 
2.012500e-01 1.124920e+03 
2.023400e-01 1.115422e+03 
2.036100e-01 1.104555e+03 
2.048900e-01 1.093921e+03 
2.060400e-01 1.084509e+03 
2.072200e-01 1.074995e+03 
2.084200e-01 1.065534e+03 
2.096900e-01 1.055670e+03 
2.109200e-01 1.046258e+03 
2.121100e-01 1.037259e+03 
2.132700e-01 1.028606e+03 
2.145200e-01 1.019414e+03 
2.157200e-01 1.010669e+03 
2.168800e-01 1.002311e+03 
2.180700e-01 9.938524e+02 
2.193400e-01 9.849155e+02 
2.206000e-01 9.761083e+02 
2.217500e-01 9.681800e+02 
2.229500e-01 9.600170e+02 
2.241400e-01 9.519423e+02 
2.253500e-01 9.438401e+02 
2.264900e-01 9.363067e+02 
2.277100e-01 9.283164e+02 
2.289900e-01 9.200113e+02 
2.301500e-01 9.125860e+02 
2.313600e-01 9.049409e+02 
2.325600e-01 8.974226e+02 
2.337700e-01 8.899410e+02 
2.350000e-01 8.824360e+02 
2.362000e-01 8.752110e+02 
2.374100e-01 8.680212e+02 
2.386500e-01 8.607492e+02 
2.399100e-01 8.534578e+02 
2.410400e-01 8.470209e+02 
2.422500e-01 8.402153e+02 
2.435000e-01 8.332749e+02 
2.447300e-01 8.265437e+02 
2.458700e-01 8.204227e+02 
2.470600e-01 8.141097e+02 
2.483300e-01 8.074567e+02 
2.495600e-01 8.011183e+02 
2.507600e-01 7.950418e+02 
2.519600e-01 7.890386e+02 
2.532200e-01 7.828126e+02 
2.543700e-01 7.772351e+02 
2.555500e-01 7.716030e+02 
2.568000e-01 7.657080e+02 
2.580100e-01 7.600703e+02 
2.592400e-01 7.544470e+02 
2.604100e-01 7.491774e+02 
2.616100e-01 7.438344e+02 
2.628400e-01 7.384215e+02 
2.640600e-01 7.331454e+02 
2.652200e-01 7.281974e+02 
2.664300e-01 7.230937e+02 
2.676500e-01 7.180065e+02 
2.688400e-01 7.131202e+02 
2.700700e-01 7.081388e+02 
2.712400e-01 7.034530e+02 
2.724800e-01 6.985420e+02 
2.736700e-01 6.938918e+02 
2.748800e-01 6.892258e+02 
2.761000e-01 6.845732e+02 
2.773200e-01 6.799719e+02 
2.785400e-01 6.754245e+02 
2.797000e-01 6.711541e+02 
2.808900e-01 6.668191e+02 
2.821400e-01 6.623149e+02 
2.833900e-01 6.578606e+02 
2.845500e-01 6.537716e+02 
2.857800e-01 6.494813e+02 
2.870300e-01 6.451685e+02 
2.882100e-01 6.411402e+02 
2.893900e-01 6.371539e+02 
2.906300e-01 6.330092e+02 
2.918900e-01 6.288428e+02 
2.930500e-01 6.250467e+02 
2.942500e-01 6.211589e+02 
2.954200e-01 6.174052e+02 
2.966500e-01 6.134991e+02 
2.978900e-01 6.096021e+02 
2.990400e-01 6.060242e+02 
3.002700e-01 6.022345e+02 
3.015100e-01 5.984529e+02 
3.026800e-01 5.949203e+02 
3.038500e-01 5.914219e+02 
3.050300e-01 5.879277e+02 
3.062600e-01 5.843225e+02 
3.075000e-01 5.807247e+02 
3.087000e-01 5.772774e+02 
3.099100e-01 5.738353e+02 
3.111200e-01 5.704290e+02 
3.123100e-01 5.671154e+02 
3.135300e-01 5.637509e+02 
3.147300e-01 5.604735e+02 
3.159900e-01 5.570658e+02 
3.171800e-01 5.538833e+02 
3.183700e-01 5.507337e+02 
3.196300e-01 5.474309e+02 
3.208400e-01 5.442897e+02 
3.220300e-01 5.412292e+02 
3.232000e-01 5.382544e+02 
3.244300e-01 5.351585e+02 
3.256700e-01 5.320671e+02 
3.269200e-01 5.289804e+02 
3.280800e-01 5.261424e+02 
3.292500e-01 5.233151e+02 
3.304800e-01 5.203729e+02 
3.317100e-01 5.174580e+02 
3.328900e-01 5.146869e+02 
3.340700e-01 5.119403e+02 
3.353600e-01 5.089758e+02 
3.365300e-01 5.063156e+02 
3.377100e-01 5.036559e+02 
3.389200e-01 5.009527e+02 
3.401600e-01 4.982074e+02 
3.413700e-01 4.955631e+02 
3.425300e-01 4.930573e+02 
3.437700e-01 4.904019e+02 
3.449800e-01 4.878338e+02 
3.461800e-01 4.853090e+02 
3.473600e-01 4.828520e+02 
3.485800e-01 4.803445e+02 
3.498100e-01 4.778384e+02 
3.510200e-01 4.753945e+02 
3.522000e-01 4.730313e+02 
3.533900e-01 4.706680e+02 
3.546400e-01 4.682219e+02 
3.558400e-01 4.658946e+02 
3.570600e-01 4.635485e+02 
3.582700e-01 4.612413e+02 
3.595000e-01 4.589158e+02 
3.607100e-01 4.566554e+02 
3.618900e-01 4.544755e+02 
3.631200e-01 4.522220e+02 
3.643200e-01 4.500417e+02 
3.655500e-01 4.478254e+02 
3.667300e-01 4.457165e+02 
3.679500e-01 4.435691e+02 
3.691900e-01 4.414046e+02 
3.703600e-01 4.393787e+02 
3.715700e-01 4.373003e+02 
3.727700e-01 4.352556e+02 
3.739900e-01 4.331985e+02 
3.752000e-01 4.311839e+02 
3.763900e-01 4.292182e+02 
3.775800e-01 4.272679e+02 
3.788200e-01 4.252519e+02 
3.800300e-01 4.233003e+02 
3.812100e-01 4.214180e+02 
3.824200e-01 4.195068e+02 
3.836100e-01 4.176418e+02 
3.848600e-01 4.156982e+02 
3.860400e-01 4.138778e+02 
3.872400e-01 4.120405e+02 
3.884600e-01 4.101952e+02 
3.896500e-01 4.084120e+02 
3.908700e-01 4.065978e+02 
3.920600e-01 4.048417e+02 
3.933100e-01 4.030113e+02 
3.945300e-01 4.012386e+02 
3.957200e-01 3.995308e+02 
3.969300e-01 3.978095e+02 
3.981700e-01 3.960591e+02 
3.993500e-01 3.944058e+02 
4.094840e-01 3.807066e+02 
4.272360e-01 3.588119e+02 
4.454600e-01 3.386483e+02 
4.630560e-01 3.210690e+02 
4.804610e-01 3.052551e+02 
4.980690e-01 2.906434e+02 
5.159230e-01 2.770804e+02 
5.317440e-01 2.659998e+02 
5.489640e-01 2.548450e+02 
5.671990e-01 2.439666e+02 
5.838690e-01 2.347713e+02 
6.018840e-01 2.255644e+02 
6.202330e-01 2.168994e+02 
6.379250e-01 2.091459e+02 
6.545410e-01 2.023772e+02 
6.714560e-01 1.959238e+02 
6.892080e-01 1.895996e+02 
7.066010e-01 1.838075e+02 
7.240540e-01 1.783542e+02 
7.420450e-01 1.730856e+02 
7.593780e-01 1.683120e+02 
7.764720e-01 1.638659e+02 
7.942840e-01 1.594914e+02 
8.116170e-01 1.554663e+02 
8.288310e-01 1.516763e+02 
8.462240e-01 1.480360e+02 
8.631980e-01 1.446519e+02 
8.810700e-01 1.412567e+02 
8.989410e-01 1.380207e+02 
9.166330e-01 1.349599e+02 
9.345640e-01 1.319945e+02 
9.515980e-01 1.292923e+02 
9.688720e-01 1.266594e+02 
9.865640e-01 1.240667e+02 
1.031870e+00 1.178636e+02 
1.063490e+00 1.138615e+02 
1.097920e+00 1.097772e+02 
1.134370e+00 1.057234e+02 
1.167730e+00 1.022374e+02 
1.203830e+00 9.867209e+01 
1.240470e+00 9.526464e+01 
1.275790e+00 9.215230e+01 
1.309140e+00 8.936997e+01 
1.342970e+00 8.667069e+01 
1.378420e+00 8.398457e+01 
1.413200e+00 8.146983e+01 
1.448110e+00 7.906011e+01 
1.484090e+00 7.669247e+01 
1.518820e+00 7.450714e+01 
1.552880e+00 7.245108e+01 
1.588630e+00 7.038418e+01 
1.623230e+00 6.846823e+01 
1.657720e+00 6.663466e+01 
1.692450e+00 6.486317e+01 
1.726400e+00 6.319377e+01 
1.762200e+00 6.150029e+01 
1.797880e+00 5.987972e+01 
1.833270e+00 5.833285e+01 
1.869070e+00 5.682625e+01 
1.903200e+00 5.544303e+01 
1.937740e+00 5.409247e+01 
1.973190e+00 5.275421e+01 
2.007440e+00 5.150709e+01 
2.042160e+00 5.028585e+01 
2.077900e+00 4.907057e+01 
2.112390e+00 4.793908e+01 
2.146220e+00 4.686274e+01 
2.181600e+00 4.577393e+01 
2.216930e+00 4.472279e+01 
2.250760e+00 4.374828e+01 
2.286500e+00 4.275122e+01 
2.321770e+00 4.179884e+01 
2.355950e+00 4.090438e+01 
2.391280e+00 4.000645e+01 
2.426240e+00 3.914536e+01 
2.460670e+00 3.832337e+01 
2.495640e+00 3.751395e+01 
2.531080e+00 3.671569e+01 
2.566220e+00 3.594779e+01 
2.600830e+00 3.521392e+01 
2.635080e+00 3.450879e+01 
2.670340e+00 3.380210e+01 
2.705970e+00 3.310864e+01 
2.740040e+00 3.246428e+01 
2.774520e+00 3.182864e+01 
2.809730e+00 3.119737e+01 
2.844390e+00 3.059352e+01 
2.879960e+00 2.999036e+01 
2.914860e+00 2.941403e+01 
2.949410e+00 2.885902e+01 
2.984440e+00 2.831045e+01 
3.019760e+00 2.777186e+01 
3.054730e+00 2.725305e+01 
3.089030e+00 2.675601e+01 
3.124060e+00 2.626167e+01 
3.159560e+00 2.577341e+01 
3.194710e+00 2.530202e+01 
3.229010e+00 2.485407e+01 
3.263320e+00 2.441592e+01 
3.297930e+00 2.398510e+01 
3.332830e+00 2.356086e+01 
3.368040e+00 2.314326e+01 
3.403300e+00 2.273546e+01 
3.438450e+00 2.233839e+01 
3.473060e+00 2.195727e+01 
3.508440e+00 2.157606e+01 
3.543110e+00 2.121183e+01 
3.577470e+00 2.085872e+01 
3.613040e+00 2.050196e+01 
3.648120e+00 2.015784e+01 
3.682910e+00 1.982460e+01 
3.718050e+00 1.949555e+01 
3.753320e+00 1.917299e+01 
3.787980e+00 1.886310e+01 
3.822290e+00 1.856317e+01 
3.857020e+00 1.826605e+01 
3.891920e+00 1.797411e+01 
3.926650e+00 1.768972e+01 
3.961970e+00 1.740703e+01 
3.997360e+00 1.712993e+01 
4.031670e+00 1.686727e+01 
4.066330e+00 1.660729e+01 
4.101420e+00 1.634995e+01 
4.136200e+00 1.609995e+01 
4.170810e+00 1.585664e+01 
4.206250e+00 1.561247e+01 
4.241580e+00 1.537435e+01 
4.276300e+00 1.514515e+01 
4.310970e+00 1.492103e+01 
4.346120e+00 1.469855e+01 
4.380600e+00 1.448475e+01 
4.414730e+00 1.427748e+01 
4.450350e+00 1.406536e+01 
4.485320e+00 1.386148e+01 
4.519810e+00 1.366433e+01 
4.555430e+00 1.346481e+01 
4.590870e+00 1.327036e+01 
4.625480e+00 1.308424e+01 
4.659910e+00 1.290274e+01 
4.695230e+00 1.272012e+01 
4.729960e+00 1.254409e+01 
4.764450e+00 1.237263e+01 
4.799530e+00 1.220154e+01 
4.834910e+00 1.203237e+01 
4.869700e+00 1.186923e+01 
4.904370e+00 1.170975e+01 
4.939450e+00 1.155145e+01 
4.973940e+00 1.139878e+01 
5.008430e+00 1.124894e+01 
5.043810e+00 1.109806e+01 
5.078840e+00 1.095143e+01 
5.113500e+00 1.080903e+01 
5.148890e+00 1.066640e+01 
5.184210e+00 1.052668e+01 
5.219060e+00 1.039134e+01 
5.253660e+00 1.025943e+01 
5.288570e+00 1.012870e+01 
5.323420e+00 1.000057e+01 
5.358440e+00 9.874139e+00 
5.393590e+00 9.749477e+00 
5.428310e+00 9.628591e+00 
5.462800e+00 9.510621e+00 
5.497640e+00 9.393492e+00 
5.532670e+00 9.277842e+00 
5.567280e+00 9.165551e+00 
5.602000e+00 9.054796e+00 
5.637270e+00 8.944331e+00 
5.672410e+00 8.836163e+00 
5.707020e+00 8.731396e+00 
5.742040e+00 8.627282e+00 
5.777430e+00 8.523841e+00 
5.812210e+00 8.423854e+00 
5.846820e+00 8.326086e+00 
5.881610e+00 8.229421e+00 
5.916510e+00 8.134007e+00 
5.951600e+00 8.039746e+00 
5.986560e+00 7.947393e+00 
6.021830e+00 7.855703e+00 
6.056490e+00 7.767140e+00 
6.091160e+00 7.680031e+00 
6.125830e+00 7.594268e+00 
6.161090e+00 7.508462e+00 
6.195760e+00 7.425530e+00 
6.230420e+00 7.343882e+00 
6.265690e+00 7.262073e+00 
6.300950e+00 7.181725e+00 
6.335620e+00 7.103915e+00 
6.370880e+00 7.025968e+00 
6.405550e+00 6.950623e+00 
6.440220e+00 6.876450e+00 
6.475480e+00 6.802129e+00 
6.510150e+00 6.730180e+00 
6.544810e+00 6.659414e+00 
6.580080e+00 6.588451e+00 
6.614750e+00 6.519706e+00 
6.649410e+00 6.452176e+00 
6.684080e+00 6.385628e+00 
6.719340e+00 6.318913e+00 
6.754010e+00 6.254299e+00 
6.788680e+00 6.190715e+00 
6.823940e+00 6.126958e+00 
6.859800e+00 6.063038e+00 
6.894470e+00 6.002253e+00 
6.929140e+00 5.942355e+00 
6.963800e+00 5.883293e+00 
6.999070e+00 5.824026e+00 
7.033730e+00 5.766732e+00 
7.068400e+00 5.710193e+00 
7.103660e+00 5.653471e+00 
7.138330e+00 5.598517e+00 
7.173600e+00 5.543507e+00 
7.208260e+00 5.490169e+00 
7.243530e+00 5.436612e+00 
7.277600e+00 5.385654e+00 
7.312860e+00 5.333694e+00 
7.348120e+00 5.282419e+00 
7.382790e+00 5.232660e+00 
7.417460e+00 5.183655e+00 
7.452720e+00 5.134520e+00 
7.487390e+00 5.086827e+00 
7.522650e+00 5.038943e+00 
7.557320e+00 4.992577e+00 
7.591990e+00 4.946837e+00 
7.627250e+00 4.900906e+00 
7.662510e+00 4.855558e+00 
7.697180e+00 4.811651e+00 
7.731850e+00 4.768336e+00 
7.766510e+00 4.725565e+00 
7.801180e+00 4.683305e+00 
7.836440e+00 4.640967e+00 
7.871110e+00 4.599916e+00 
7.906380e+00 4.558663e+00 
7.941040e+00 4.518616e+00 
7.976310e+00 4.478415e+00 
8.011570e+00 4.438785e+00 
8.046240e+00 4.400284e+00 
8.080900e+00 4.362250e+00 
8.115570e+00 4.324685e+00 
8.150830e+00 4.287055e+00 
8.185500e+00 4.250491e+00 
8.220770e+00 4.213730e+00 
8.255430e+00 4.178027e+00 
8.290100e+00 4.142853e+00 
8.324770e+00 4.108099e+00 
8.359430e+00 4.073751e+00 
8.394700e+00 4.039201e+00 
8.429960e+00 4.005135e+00 
8.464630e+00 3.972096e+00 
8.499890e+00 3.938876e+00 
8.534560e+00 3.906581e+00 
8.569200e+00 3.874675e+00 
