# Parameters:
# omega_b = 0.022580, omega_m = 0.133084, n_s = 0.963000, h = 71.000000, w = -1.000000, sigma_8 = 0.800000
# z = 1.530000
#
# k[1/Mpc] # P(k):
8.694000e-04 4.491098e+03 
2.077466e-03 9.541026e+03 
3.285532e-03 1.341758e+04 
4.493598e-03 1.634387e+04 
5.701664e-03 1.846637e+04 
6.909730e-03 1.992534e+04 
8.117797e-03 2.087227e+04 
9.325863e-03 2.138564e+04 
1.053393e-02 2.154215e+04 
1.174199e-02 2.141086e+04 
1.295006e-02 2.103667e+04 
1.415813e-02 2.047898e+04 
1.536619e-02 1.978847e+04 
1.657426e-02 1.899970e+04 
1.778233e-02 1.814409e+04 
1.899039e-02 1.726701e+04 
2.019846e-02 1.639276e+04 
2.140652e-02 1.554198e+04 
2.261459e-02 1.472619e+04 
2.382266e-02 1.395879e+04 
2.503072e-02 1.324860e+04 
2.623879e-02 1.259822e+04 
2.744685e-02 1.200837e+04 
2.865492e-02 1.147894e+04 
2.986299e-02 1.100619e+04 
3.100100e-02 1.061106e+04 
3.220400e-02 1.024127e+04 
3.288100e-02 1.005426e+04 
3.424300e-02 9.716575e+03 
3.555100e-02 9.433514e+03 
3.686000e-02 9.184339e+03 
3.795000e-02 8.997056e+03 
3.929100e-02 8.786903e+03 
4.039800e-02 8.624012e+03 
4.164000e-02 8.448189e+03 
4.294400e-02 8.263315e+03 
4.415000e-02 8.092021e+03 
4.542900e-02 7.901209e+03 
4.660900e-02 7.720543e+03 
4.782300e-02 7.519946e+03 
4.892900e-02 7.331097e+03 
5.031200e-02 7.084094e+03 
5.155900e-02 6.851161e+03 
5.238100e-02 6.694289e+03 
5.378200e-02 6.423558e+03 
5.513400e-02 6.159790e+03 
5.627600e-02 5.938155e+03 
5.735300e-02 5.732670e+03 
5.870100e-02 5.482898e+03 
5.988700e-02 5.272624e+03 
6.113500e-02 5.062385e+03 
6.225900e-02 4.884485e+03 
6.340100e-02 4.715880e+03 
6.480200e-02 4.525456e+03 
6.601100e-02 4.377607e+03 
6.725500e-02 4.240456e+03 
6.829100e-02 4.138561e+03 
6.958600e-02 4.023520e+03 
7.071100e-02 3.935300e+03 
7.192300e-02 3.850566e+03 
7.307400e-02 3.778884e+03 
7.412300e-02 3.720000e+03 
7.550400e-02 3.651117e+03 
7.663100e-02 3.599955e+03 
7.791200e-02 3.546969e+03 
7.912700e-02 3.499582e+03 
8.027600e-02 3.456064e+03 
8.138400e-02 3.414540e+03 
8.272200e-02 3.363920e+03 
8.406100e-02 3.311752e+03 
8.534100e-02 3.258674e+03 
8.653800e-02 3.205731e+03 
8.759800e-02 3.156884e+03 
8.900300e-02 3.088743e+03 
9.009000e-02 3.033019e+03 
9.113300e-02 2.976864e+03 
9.239600e-02 2.907435e+03 
9.358000e-02 2.840364e+03 
9.496100e-02 2.759796e+03 
9.608400e-02 2.694230e+03 
9.727500e-02 2.625243e+03 
9.852600e-02 2.552594e+03 
9.973800e-02 2.484278e+03 
1.009000e-01 2.420680e+03 
1.020900e-01 2.358497e+03 
1.034000e-01 2.293417e+03 
1.046000e-01 2.236958e+03 
1.057200e-01 2.188797e+03 
1.069100e-01 2.140355e+03 
1.082500e-01 2.091283e+03 
1.093900e-01 2.053440e+03 
1.105400e-01 2.017823e+03 
1.116900e-01 1.986872e+03 
1.129600e-01 1.954848e+03 
1.142000e-01 1.927528e+03 
1.153300e-01 1.904263e+03 
1.166400e-01 1.879539e+03 
1.177800e-01 1.859429e+03 
1.190000e-01 1.838833e+03 
1.201200e-01 1.820281e+03 
1.213400e-01 1.800535e+03 
1.227100e-01 1.777489e+03 
1.238900e-01 1.757660e+03 
1.250700e-01 1.736663e+03 
1.263200e-01 1.714157e+03 
1.275500e-01 1.690793e+03 
1.287500e-01 1.667560e+03 
1.299900e-01 1.642580e+03 
1.311300e-01 1.619289e+03 
1.323500e-01 1.593651e+03 
1.335900e-01 1.567537e+03 
1.347100e-01 1.543600e+03 
1.359800e-01 1.516729e+03 
1.372100e-01 1.490617e+03 
1.384300e-01 1.465203e+03 
1.395700e-01 1.441680e+03 
1.407700e-01 1.417488e+03 
1.420300e-01 1.392756e+03 
1.432800e-01 1.368807e+03 
1.444500e-01 1.347399e+03 
1.456300e-01 1.326280e+03 
1.468900e-01 1.304892e+03 
1.480500e-01 1.285827e+03 
1.491700e-01 1.268219e+03 
1.503800e-01 1.250127e+03 
1.516400e-01 1.231887e+03 
1.528200e-01 1.216028e+03 
1.540200e-01 1.200220e+03 
1.551900e-01 1.185855e+03 
1.564300e-01 1.171108e+03 
1.576600e-01 1.157088e+03 
1.588700e-01 1.143946e+03 
1.600900e-01 1.130966e+03 
1.612700e-01 1.119007e+03 
1.625400e-01 1.106376e+03 
1.637600e-01 1.094477e+03 
1.649500e-01 1.083086e+03 
1.662200e-01 1.071105e+03 
1.674000e-01 1.059920e+03 
1.685000e-01 1.049669e+03 
1.697500e-01 1.037954e+03 
1.710300e-01 1.025912e+03 
1.722200e-01 1.014919e+03 
1.734400e-01 1.003258e+03 
1.746400e-01 9.919668e+02 
1.758700e-01 9.804202e+02 
1.770900e-01 9.688109e+02 
1.782700e-01 9.577779e+02 
1.794600e-01 9.466159e+02 
1.807000e-01 9.350370e+02 
1.819100e-01 9.239378e+02 
1.830100e-01 9.138753e+02 
1.842200e-01 9.029656e+02 
1.855000e-01 8.916311e+02 
1.867000e-01 8.812323e+02 
1.879200e-01 8.708398e+02 
1.890900e-01 8.610681e+02 
1.902800e-01 8.514405e+02 
1.915200e-01 8.415754e+02 
1.926900e-01 8.324846e+02 
1.939000e-01 8.234444e+02 
1.951700e-01 8.141126e+02 
1.963100e-01 8.059445e+02 
1.975100e-01 7.976784e+02 
1.987800e-01 7.890700e+02 
2.000100e-01 7.809375e+02 
2.012500e-01 7.730322e+02 
2.023400e-01 7.661854e+02 
2.036100e-01 7.583580e+02 
2.048900e-01 7.507185e+02 
2.060400e-01 7.439577e+02 
2.072200e-01 7.371248e+02 
2.084200e-01 7.303400e+02 
2.096900e-01 7.232666e+02 
2.109200e-01 7.165188e+02 
2.121100e-01 7.100735e+02 
2.132700e-01 7.038779e+02 
2.145200e-01 6.972967e+02 
2.157200e-01 6.910348e+02 
2.168800e-01 6.850491e+02 
2.180700e-01 6.789928e+02 
2.193400e-01 6.725947e+02 
2.206000e-01 6.662899e+02 
2.217500e-01 6.606154e+02 
2.229500e-01 6.547738e+02 
2.241400e-01 6.489899e+02 
2.253500e-01 6.431872e+02 
2.264900e-01 6.377930e+02 
2.277100e-01 6.320732e+02 
2.289900e-01 6.261299e+02 
2.301500e-01 6.208172e+02 
2.313600e-01 6.153484e+02 
2.325600e-01 6.099750e+02 
2.337700e-01 6.046289e+02 
2.350000e-01 5.992671e+02 
2.362000e-01 5.941059e+02 
2.374100e-01 5.889704e+02 
2.386500e-01 5.837773e+02 
2.399100e-01 5.785713e+02 
2.410400e-01 5.739853e+02 
2.422500e-01 5.691387e+02 
2.435000e-01 5.641970e+02 
2.447300e-01 5.594052e+02 
2.458700e-01 5.550489e+02 
2.470600e-01 5.505565e+02 
2.483300e-01 5.458232e+02 
2.495600e-01 5.413150e+02 
2.507600e-01 5.369945e+02 
2.519600e-01 5.327268e+02 
2.532200e-01 5.283016e+02 
2.543700e-01 5.243331e+02 
2.555500e-01 5.203230e+02 
2.568000e-01 5.161266e+02 
2.580100e-01 5.121140e+02 
2.592400e-01 5.081054e+02 
2.604100e-01 5.043467e+02 
2.616100e-01 5.005362e+02 
2.628400e-01 4.966766e+02 
2.640600e-01 4.929102e+02 
2.652200e-01 4.893766e+02 
2.664300e-01 4.857325e+02 
2.676500e-01 4.821009e+02 
2.688400e-01 4.786056e+02 
2.700700e-01 4.750383e+02 
2.712400e-01 4.716832e+02 
2.724800e-01 4.681676e+02 
2.736700e-01 4.648373e+02 
2.748800e-01 4.614943e+02 
2.761000e-01 4.581615e+02 
2.773200e-01 4.548661e+02 
2.785400e-01 4.516083e+02 
2.797000e-01 4.485460e+02 
2.808900e-01 4.454380e+02 
2.821400e-01 4.422093e+02 
2.833900e-01 4.390169e+02 
2.845500e-01 4.360857e+02 
2.857800e-01 4.330107e+02 
2.870300e-01 4.299202e+02 
2.882100e-01 4.270341e+02 
2.893900e-01 4.241788e+02 
2.906300e-01 4.212107e+02 
2.918900e-01 4.182276e+02 
2.930500e-01 4.155102e+02 
2.942500e-01 4.127278e+02 
2.954200e-01 4.100424e+02 
2.966500e-01 4.072484e+02 
2.978900e-01 4.044615e+02 
2.990400e-01 4.019033e+02 
3.002700e-01 3.991949e+02 
3.015100e-01 3.964931e+02 
3.026800e-01 3.939697e+02 
3.038500e-01 3.914711e+02 
3.050300e-01 3.889761e+02 
3.062600e-01 3.864021e+02 
3.075000e-01 3.838339e+02 
3.087000e-01 3.813736e+02 
3.099100e-01 3.789175e+02 
3.111200e-01 3.764875e+02 
3.123100e-01 3.741238e+02 
3.135300e-01 3.717243e+02 
3.147300e-01 3.693874e+02 
3.159900e-01 3.669581e+02 
3.171800e-01 3.646889e+02 
3.183700e-01 3.624431e+02 
3.196300e-01 3.600886e+02 
3.208400e-01 3.578497e+02 
3.220300e-01 3.556688e+02 
3.232000e-01 3.535492e+02 
3.244300e-01 3.513438e+02 
3.256700e-01 3.491420e+02 
3.269200e-01 3.469441e+02 
3.280800e-01 3.449236e+02 
3.292500e-01 3.429105e+02 
3.304800e-01 3.408158e+02 
3.317100e-01 3.387409e+02 
3.328900e-01 3.367688e+02 
3.340700e-01 3.348145e+02 
3.353600e-01 3.327052e+02 
3.365300e-01 3.308127e+02 
3.377100e-01 3.289209e+02 
3.389200e-01 3.269984e+02 
3.401600e-01 3.250465e+02 
3.413700e-01 3.231656e+02 
3.425300e-01 3.213828e+02 
3.437700e-01 3.194941e+02 
3.449800e-01 3.176677e+02 
3.461800e-01 3.158725e+02 
3.473600e-01 3.141258e+02 
3.485800e-01 3.123436e+02 
3.498100e-01 3.105628e+02 
3.510200e-01 3.088264e+02 
3.522000e-01 3.071477e+02 
3.533900e-01 3.054692e+02 
3.546400e-01 3.037315e+02 
3.558400e-01 3.020785e+02 
3.570600e-01 3.004123e+02 
3.582700e-01 2.987741e+02 
3.595000e-01 2.971232e+02 
3.607100e-01 2.955188e+02 
3.618900e-01 2.939719e+02 
3.631200e-01 2.923730e+02 
3.643200e-01 2.908263e+02 
3.655500e-01 2.892543e+02 
3.667300e-01 2.877588e+02 
3.679500e-01 2.862363e+02 
3.691900e-01 2.847019e+02 
3.703600e-01 2.832661e+02 
3.715700e-01 2.817933e+02 
3.727700e-01 2.803445e+02 
3.739900e-01 2.788872e+02 
3.752000e-01 2.774598e+02 
3.763900e-01 2.760673e+02 
3.775800e-01 2.746860e+02 
3.788200e-01 2.732583e+02 
3.800300e-01 2.718765e+02 
3.812100e-01 2.705446e+02 
3.824200e-01 2.691931e+02 
3.836100e-01 2.678744e+02 
3.848600e-01 2.665003e+02 
3.860400e-01 2.652135e+02 
3.872400e-01 2.639150e+02 
3.884600e-01 2.626116e+02 
3.896500e-01 2.613525e+02 
3.908700e-01 2.600717e+02 
3.920600e-01 2.588321e+02 
3.933100e-01 2.575401e+02 
3.945300e-01 2.562892e+02 
3.957200e-01 2.550847e+02 
3.969300e-01 2.538711e+02 
3.981700e-01 2.526370e+02 
3.993500e-01 2.514716e+02 
4.094840e-01 2.418431e+02 
4.272360e-01 2.265131e+02 
4.454600e-01 2.124958e+02 
4.630560e-01 2.003619e+02 
4.804610e-01 1.895244e+02 
4.980690e-01 1.795806e+02 
5.159230e-01 1.704074e+02 
5.317440e-01 1.629558e+02 
5.489640e-01 1.554868e+02 
5.671990e-01 1.482291e+02 
5.838690e-01 1.421169e+02 
6.018840e-01 1.360150e+02 
6.202330e-01 1.302881e+02 
6.379250e-01 1.251753e+02 
6.545410e-01 1.207174e+02 
6.714560e-01 1.164783e+02 
6.892080e-01 1.123300e+02 
7.066010e-01 1.085410e+02 
7.240540e-01 1.049779e+02 
7.420450e-01 1.015466e+02 
7.593780e-01 9.844725e+01 
7.764720e-01 9.556875e+01 
7.942840e-01 9.274420e+01 
8.116170e-01 9.015597e+01 
8.288310e-01 8.772814e+01 
8.462240e-01 8.540762e+01 
8.631980e-01 8.325972e+01 
8.810700e-01 8.111349e+01 
8.989410e-01 7.907621e+01 
9.166330e-01 7.716021e+01 
9.345640e-01 7.531391e+01 
9.515980e-01 7.364039e+01 
9.688720e-01 7.201741e+01 
9.865640e-01 7.042974e+01 
1.031870e+00 6.666138e+01 
1.063490e+00 6.425895e+01 
1.097920e+00 6.183144e+01 
1.134370e+00 5.944517e+01 
1.167730e+00 5.741178e+01 
1.203830e+00 5.535205e+01 
1.240470e+00 5.339869e+01 
1.275790e+00 5.163173e+01 
1.309140e+00 5.006018e+01 
1.342970e+00 4.854702e+01 
1.378420e+00 4.704895e+01 
1.413200e+00 4.565640e+01 
1.448110e+00 4.432818e+01 
1.484090e+00 4.302797e+01 
1.518820e+00 4.183294e+01 
1.552880e+00 4.071447e+01 
1.588630e+00 3.959275e+01 
1.623230e+00 3.855614e+01 
1.657720e+00 3.756607e+01 
1.692450e+00 3.661189e+01 
1.726400e+00 3.571546e+01 
1.762200e+00 3.480704e+01 
1.797880e+00 3.393871e+01 
1.833270e+00 3.311180e+01 
1.869070e+00 3.230660e+01 
1.903200e+00 3.156770e+01 
1.937740e+00 3.084678e+01 
1.973190e+00 3.013330e+01 
2.007440e+00 2.946837e+01 
2.042160e+00 2.881689e+01 
2.077900e+00 2.816896e+01 
2.112390e+00 2.756522e+01 
2.146220e+00 2.699120e+01 
2.181600e+00 2.641062e+01 
2.216930e+00 2.584919e+01 
2.250760e+00 2.532852e+01 
2.286500e+00 2.479565e+01 
2.321770e+00 2.428612e+01 
2.355950e+00 2.380746e+01 
2.391280e+00 2.332594e+01 
2.426240e+00 2.286371e+01 
2.460670e+00 2.242210e+01 
2.495640e+00 2.198690e+01 
2.531080e+00 2.155747e+01 
2.566220e+00 2.114340e+01 
2.600830e+00 2.074714e+01 
2.635080e+00 2.036606e+01 
2.670340e+00 1.998323e+01 
2.705970e+00 1.960715e+01 
2.740040e+00 1.925735e+01 
2.774520e+00 1.891196e+01 
2.809730e+00 1.856797e+01 
2.844390e+00 1.823839e+01 
2.879960e+00 1.790884e+01 
2.914860e+00 1.759327e+01 
2.949410e+00 1.728891e+01 
2.984440e+00 1.698750e+01 
3.019760e+00 1.669095e+01 
3.054730e+00 1.640484e+01 
3.089030e+00 1.613018e+01 
3.124060e+00 1.585669e+01 
3.159560e+00 1.558618e+01 
3.194710e+00 1.532439e+01 
3.229010e+00 1.507528e+01 
3.263320e+00 1.483064e+01 
3.297930e+00 1.458984e+01 
3.332830e+00 1.435239e+01 
3.368040e+00 1.411825e+01 
3.403300e+00 1.388927e+01 
3.438450e+00 1.366569e+01 
3.473060e+00 1.345084e+01 
3.508440e+00 1.323516e+01 
3.543110e+00 1.302891e+01 
3.577470e+00 1.282851e+01 
3.613040e+00 1.262578e+01 
3.648120e+00 1.242972e+01 
3.682910e+00 1.223957e+01 
3.718050e+00 1.205134e+01 
3.753320e+00 1.186647e+01 
3.787980e+00 1.168843e+01 
3.822290e+00 1.151585e+01 
3.857020e+00 1.134456e+01 
3.891920e+00 1.117599e+01 
3.926650e+00 1.101135e+01 
3.961970e+00 1.084747e+01 
3.997360e+00 1.068644e+01 
4.031670e+00 1.053363e+01 
4.066330e+00 1.038199e+01 
4.101420e+00 1.023180e+01 
4.136200e+00 1.008530e+01 
4.170810e+00 9.942644e+00 
4.206250e+00 9.799200e+00 
4.241580e+00 9.659190e+00 
4.276300e+00 9.524078e+00 
4.310970e+00 9.391733e+00 
4.346120e+00 9.260122e+00 
4.380600e+00 9.133307e+00 
4.414730e+00 9.010300e+00 
4.450350e+00 8.884041e+00 
4.485320e+00 8.762628e+00 
4.519810e+00 8.644920e+00 
4.555430e+00 8.525635e+00 
4.590870e+00 8.409206e+00 
4.625480e+00 8.297454e+00 
4.659910e+00 8.188439e+00 
4.695230e+00 8.078510e+00 
4.729960e+00 7.972475e+00 
4.764450e+00 7.869023e+00 
4.799530e+00 7.765542e+00 
4.834910e+00 7.663176e+00 
4.869700e+00 7.564181e+00 
4.904370e+00 7.467328e+00 
4.939450e+00 7.371089e+00 
4.973940e+00 7.278045e+00 
5.008430e+00 7.186695e+00 
5.043810e+00 7.094523e+00 
5.078840e+00 7.004833e+00 
5.113500e+00 6.917692e+00 
5.148890e+00 6.830109e+00 
5.184210e+00 6.744272e+00 
5.219060e+00 6.661057e+00 
5.253660e+00 6.579800e+00 
5.288570e+00 6.499248e+00 
5.323420e+00 6.420155e+00 
5.358440e+00 6.341965e+00 
5.393590e+00 6.264847e+00 
5.428310e+00 6.189917e+00 
5.462800e+00 6.116708e+00 
5.497640e+00 6.044003e+00 
5.532670e+00 5.972086e+00 
5.567280e+00 5.902205e+00 
5.602000e+00 5.833262e+00 
5.637270e+00 5.764326e+00 
5.672410e+00 5.696771e+00 
5.707020e+00 5.631326e+00 
5.742040e+00 5.566192e+00 
5.777430e+00 5.501448e+00 
5.812210e+00 5.438852e+00 
5.846820e+00 5.377501e+00 
5.881610e+00 5.316795e+00 
5.916510e+00 5.256863e+00 
5.951600e+00 5.197551e+00 
5.986560e+00 5.139386e+00 
6.021830e+00 5.081629e+00 
6.056490e+00 5.025779e+00 
6.091160e+00 4.970792e+00 
6.125830e+00 4.916645e+00 
6.161090e+00 4.862427e+00 
6.195760e+00 4.809939e+00 
6.230420e+00 4.758256e+00 
6.265690e+00 4.706460e+00 
6.300950e+00 4.655505e+00 
6.335620e+00 4.606151e+00 
6.370880e+00 4.556704e+00 
6.405550e+00 4.508833e+00 
6.440220e+00 4.461673e+00 
6.475480e+00 4.414414e+00 
6.510150e+00 4.368642e+00 
6.544810e+00 4.323586e+00 
6.580080e+00 4.278399e+00 
6.614750e+00 4.234618e+00 
6.649410e+00 4.191523e+00 
6.684080e+00 4.149033e+00 
6.719340e+00 4.106431e+00 
6.754010e+00 4.065162e+00 
6.788680e+00 4.024534e+00 
6.823940e+00 3.983792e+00 
6.859800e+00 3.942941e+00 
6.894470e+00 3.904044e+00 
6.929140e+00 3.865694e+00 
6.963800e+00 3.827876e+00 
6.999070e+00 3.789922e+00 
7.033730e+00 3.753220e+00 
7.068400e+00 3.716998e+00 
7.103660e+00 3.680654e+00 
7.138330e+00 3.645422e+00 
7.173600e+00 3.610113e+00 
7.208260e+00 3.575874e+00 
7.243530e+00 3.541492e+00 
7.277600e+00 3.508750e+00 
7.312860e+00 3.475339e+00 
7.348120e+00 3.442366e+00 
7.382790e+00 3.410365e+00 
7.417460e+00 3.378854e+00 
7.452720e+00 3.347260e+00 
7.487390e+00 3.316592e+00 
7.522650e+00 3.285798e+00 
7.557320e+00 3.255971e+00 
7.591990e+00 3.226541e+00 
7.627250e+00 3.196986e+00 
7.662510e+00 3.167803e+00 
7.697180e+00 3.139539e+00 
7.731850e+00 3.111650e+00 
7.766510e+00 3.084109e+00 
7.801180e+00 3.056896e+00 
7.836440e+00 3.029611e+00 
7.871110e+00 3.003141e+00 
7.906380e+00 2.976540e+00 
7.941040e+00 2.950714e+00 
7.976310e+00 2.924790e+00 
8.011570e+00 2.899236e+00 
8.046240e+00 2.874408e+00 
8.080900e+00 2.849879e+00 
8.115570e+00 2.825653e+00 
8.150830e+00 2.801391e+00 
8.185500e+00 2.777814e+00 
8.220770e+00 2.754108e+00 
8.255430e+00 2.731083e+00 
8.290100e+00 2.708403e+00 
8.324770e+00 2.685992e+00 
8.359430e+00 2.663842e+00 
8.394700e+00 2.641560e+00 
8.429960e+00 2.619588e+00 
8.464630e+00 2.598277e+00 
8.499890e+00 2.576849e+00 
8.534560e+00 2.556015e+00 
8.569200e+00 2.535431e+00 
