# Parameters:
# omega_b = 0.022580, omega_m = 0.133084, n_s = 0.963000, h = 71.000000, w = -1.000000, sigma_8 = 0.800000
# z = 1.850000
#
# k[1/Mpc] # P(k):
8.694000e-04 3.612299e+03 
2.077466e-03 7.674118e+03 
3.285532e-03 1.079115e+04 
4.493598e-03 1.314559e+04 
5.701664e-03 1.485327e+04 
6.909730e-03 1.602706e+04 
8.117797e-03 1.678927e+04 
9.325863e-03 1.720299e+04 
1.053393e-02 1.732941e+04 
1.174199e-02 1.722429e+04 
1.295006e-02 1.692380e+04 
1.415813e-02 1.647580e+04 
1.536619e-02 1.592079e+04 
1.657426e-02 1.528663e+04 
1.778233e-02 1.459864e+04 
1.899039e-02 1.389323e+04 
2.019846e-02 1.318998e+04 
2.140652e-02 1.250560e+04 
2.261459e-02 1.184936e+04 
2.382266e-02 1.123203e+04 
2.503072e-02 1.066063e+04 
2.623879e-02 1.013725e+04 
2.744685e-02 9.662721e+03 
2.865492e-02 9.236663e+03 
2.986299e-02 8.856085e+03 
3.100100e-02 8.538123e+03 
3.220400e-02 8.240550e+03 
3.288100e-02 8.090076e+03 
3.424300e-02 7.818457e+03 
3.555100e-02 7.590741e+03 
3.686000e-02 7.390285e+03 
3.795000e-02 7.239739e+03 
3.929100e-02 7.070853e+03 
4.039800e-02 6.939848e+03 
4.164000e-02 6.798551e+03 
4.294400e-02 6.650013e+03 
4.415000e-02 6.512341e+03 
4.542900e-02 6.358828e+03 
4.660900e-02 6.213345e+03 
4.782300e-02 6.051819e+03 
4.892900e-02 5.899730e+03 
5.031200e-02 5.700555e+03 
5.155900e-02 5.512721e+03 
5.238100e-02 5.386177e+03 
5.378200e-02 5.167590e+03 
5.513400e-02 4.954626e+03 
5.627600e-02 4.775612e+03 
5.735300e-02 4.609679e+03 
5.870100e-02 4.407936e+03 
5.988700e-02 4.238126e+03 
6.113500e-02 4.068378e+03 
6.225900e-02 3.924709e+03 
6.340100e-02 3.788590e+03 
6.480200e-02 3.634885e+03 
6.601100e-02 3.515493e+03 
6.725500e-02 3.404818e+03 
6.829100e-02 3.322633e+03 
6.958600e-02 3.229840e+03 
7.071100e-02 3.158773e+03 
7.192300e-02 3.090553e+03 
7.307400e-02 3.032919e+03 
7.412300e-02 2.985635e+03 
7.550400e-02 2.930369e+03 
7.663100e-02 2.889390e+03 
7.791200e-02 2.847004e+03 
7.912700e-02 2.809171e+03 
8.027600e-02 2.774424e+03 
8.138400e-02 2.741266e+03 
8.272200e-02 2.700831e+03 
8.406100e-02 2.659113e+03 
8.534100e-02 2.616604e+03 
8.653800e-02 2.574120e+03 
8.759800e-02 2.534868e+03 
8.900300e-02 2.480029e+03 
9.009000e-02 2.435124e+03 
9.113300e-02 2.389813e+03 
9.239600e-02 2.333740e+03 
9.358000e-02 2.279499e+03 
9.496100e-02 2.214277e+03 
9.608400e-02 2.161170e+03 
9.727500e-02 2.105273e+03 
9.852600e-02 2.046342e+03 
9.973800e-02 1.990923e+03 
1.009000e-01 1.939330e+03 
1.020900e-01 1.888831e+03 
1.034000e-01 1.835990e+03 
1.046000e-01 1.790159e+03 
1.057200e-01 1.751046e+03 
1.069100e-01 1.711709e+03 
1.082500e-01 1.671872e+03 
1.093900e-01 1.641174e+03 
1.105400e-01 1.612297e+03 
1.116900e-01 1.587211e+03 
1.129600e-01 1.561270e+03 
1.142000e-01 1.539196e+03 
1.153300e-01 1.520427e+03 
1.166400e-01 1.500527e+03 
1.177800e-01 1.484390e+03 
1.190000e-01 1.467887e+03 
1.201200e-01 1.453067e+03 
1.213400e-01 1.437301e+03 
1.227100e-01 1.418956e+03 
1.238900e-01 1.403173e+03 
1.250700e-01 1.386461e+03 
1.263200e-01 1.368532e+03 
1.275500e-01 1.349881e+03 
1.287500e-01 1.331303e+03 
1.299900e-01 1.311278e+03 
1.311300e-01 1.292561e+03 
1.323500e-01 1.271892e+03 
1.335900e-01 1.250786e+03 
1.347100e-01 1.231369e+03 
1.359800e-01 1.209524e+03 
1.372100e-01 1.188198e+03 
1.384300e-01 1.167420e+03 
1.395700e-01 1.148127e+03 
1.407700e-01 1.128282e+03 
1.420300e-01 1.107911e+03 
1.432800e-01 1.088191e+03 
1.444500e-01 1.070538e+03 
1.456300e-01 1.053129e+03 
1.468900e-01 1.035529e+03 
1.480500e-01 1.019853e+03 
1.491700e-01 1.005410e+03 
1.503800e-01 9.906142e+02 
1.516400e-01 9.757241e+02 
1.528200e-01 9.628806e+02 
1.540200e-01 9.500799e+02 
1.551900e-01 9.385509e+02 
1.564300e-01 9.267420e+02 
1.576600e-01 9.155673e+02 
1.588700e-01 9.051555e+02 
1.600900e-01 8.948751e+02 
1.612700e-01 8.854640e+02 
1.625400e-01 8.755242e+02 
1.637600e-01 8.661623e+02 
1.649500e-01 8.571998e+02 
1.662200e-01 8.477652e+02 
1.674000e-01 8.389085e+02 
1.685000e-01 8.307914e+02 
1.697500e-01 8.214673e+02 
1.710300e-01 8.118383e+02 
1.722200e-01 8.030481e+02 
1.734400e-01 7.936138e+02 
1.746400e-01 7.844750e+02 
1.758700e-01 7.751037e+02 
1.770900e-01 7.656286e+02 
1.782700e-01 7.566256e+02 
1.794600e-01 7.474834e+02 
1.807000e-01 7.379787e+02 
1.819100e-01 7.288701e+02 
1.830100e-01 7.206138e+02 
1.842200e-01 7.116647e+02 
1.855000e-01 7.023704e+02 
1.867000e-01 6.938600e+02 
1.879200e-01 6.853569e+02 
1.890900e-01 6.773713e+02 
1.902800e-01 6.695437e+02 
1.915200e-01 6.615248e+02 
1.926900e-01 6.541482e+02 
1.939000e-01 6.468511e+02 
1.951700e-01 6.393199e+02 
1.963100e-01 6.327410e+02 
1.975100e-01 6.261165e+02 
1.987800e-01 6.192184e+02 
2.000100e-01 6.127128e+02 
2.012500e-01 6.064137e+02 
2.023400e-01 6.009583e+02 
2.036100e-01 5.947245e+02 
2.048900e-01 5.886504e+02 
2.060400e-01 5.832752e+02 
2.072200e-01 5.778425e+02 
2.084200e-01 5.724417e+02 
2.096900e-01 5.668115e+02 
2.109200e-01 5.614408e+02 
2.121100e-01 5.562959e+02 
2.132700e-01 5.513498e+02 
2.145200e-01 5.460964e+02 
2.157200e-01 5.410802e+02 
2.168800e-01 5.362775e+02 
2.180700e-01 5.314186e+02 
2.193400e-01 5.262787e+02 
2.206000e-01 5.212007e+02 
2.217500e-01 5.166308e+02 
2.229500e-01 5.119270e+02 
2.241400e-01 5.072555e+02 
2.253500e-01 5.025692e+02 
2.264900e-01 4.982133e+02 
2.277100e-01 4.935934e+02 
2.289900e-01 4.887918e+02 
2.301500e-01 4.845003e+02 
2.313600e-01 4.800833e+02 
2.325600e-01 4.757455e+02 
2.337700e-01 4.714304e+02 
2.350000e-01 4.671032e+02 
2.362000e-01 4.629435e+02 
2.374100e-01 4.588109e+02 
2.386500e-01 4.546324e+02 
2.399100e-01 4.504443e+02 
2.410400e-01 4.467646e+02 
2.422500e-01 4.428774e+02 
2.435000e-01 4.389145e+02 
2.447300e-01 4.350739e+02 
2.458700e-01 4.315889e+02 
2.470600e-01 4.279956e+02 
2.483300e-01 4.242099e+02 
2.495600e-01 4.206087e+02 
2.507600e-01 4.171633e+02 
2.519600e-01 4.137604e+02 
2.532200e-01 4.102322e+02 
2.543700e-01 4.070723e+02 
2.555500e-01 4.038822e+02 
2.568000e-01 4.005441e+02 
2.580100e-01 3.973526e+02 
2.592400e-01 3.941633e+02 
2.604100e-01 3.911725e+02 
2.616100e-01 3.881407e+02 
2.628400e-01 3.850701e+02 
2.640600e-01 3.820736e+02 
2.652200e-01 3.792624e+02 
2.664300e-01 3.763636e+02 
2.676500e-01 3.734749e+02 
2.688400e-01 3.706936e+02 
2.700700e-01 3.678543e+02 
2.712400e-01 3.651842e+02 
2.724800e-01 3.623865e+02 
2.736700e-01 3.597329e+02 
2.748800e-01 3.570655e+02 
2.761000e-01 3.544065e+02 
2.773200e-01 3.517776e+02 
2.785400e-01 3.491775e+02 
2.797000e-01 3.467305e+02 
2.808900e-01 3.442472e+02 
2.821400e-01 3.416678e+02 
2.833900e-01 3.391175e+02 
2.845500e-01 3.367704e+02 
2.857800e-01 3.343086e+02 
2.870300e-01 3.318347e+02 
2.882100e-01 3.295246e+02 
2.893900e-01 3.272365e+02 
2.906300e-01 3.248566e+02 
2.918900e-01 3.224651e+02 
2.930500e-01 3.202869e+02 
2.942500e-01 3.180557e+02 
2.954200e-01 3.158994e+02 
2.966500e-01 3.136562e+02 
2.978900e-01 3.114190e+02 
2.990400e-01 3.093656e+02 
3.002700e-01 3.071907e+02 
3.015100e-01 3.050208e+02 
3.026800e-01 3.029944e+02 
3.038500e-01 3.009883e+02 
3.050300e-01 2.989851e+02 
3.062600e-01 2.969166e+02 
3.075000e-01 2.948530e+02 
3.087000e-01 2.928765e+02 
3.099100e-01 2.909035e+02 
3.111200e-01 2.889510e+02 
3.123100e-01 2.870509e+02 
3.135300e-01 2.851223e+02 
3.147300e-01 2.832442e+02 
3.159900e-01 2.812921e+02 
3.171800e-01 2.794695e+02 
3.183700e-01 2.776661e+02 
3.196300e-01 2.757756e+02 
3.208400e-01 2.739782e+02 
3.220300e-01 2.722276e+02 
3.232000e-01 2.705265e+02 
3.244300e-01 2.687567e+02 
3.256700e-01 2.669901e+02 
3.269200e-01 2.652268e+02 
3.280800e-01 2.636061e+02 
3.292500e-01 2.619918e+02 
3.304800e-01 2.603125e+02 
3.317100e-01 2.586492e+02 
3.328900e-01 2.570686e+02 
3.340700e-01 2.555024e+02 
3.353600e-01 2.538122e+02 
3.365300e-01 2.522959e+02 
3.377100e-01 2.507803e+02 
3.389200e-01 2.492405e+02 
3.401600e-01 2.476771e+02 
3.413700e-01 2.461716e+02 
3.425300e-01 2.447453e+02 
3.437700e-01 2.432343e+02 
3.449800e-01 2.417735e+02 
3.461800e-01 2.403377e+02 
3.473600e-01 2.389409e+02 
3.485800e-01 2.375154e+02 
3.498100e-01 2.360912e+02 
3.510200e-01 2.347028e+02 
3.522000e-01 2.333607e+02 
3.533900e-01 2.320189e+02 
3.546400e-01 2.306311e+02 
3.558400e-01 2.293112e+02 
3.570600e-01 2.279810e+02 
3.582700e-01 2.266732e+02 
3.595000e-01 2.253555e+02 
3.607100e-01 2.240754e+02 
3.618900e-01 2.228417e+02 
3.631200e-01 2.215666e+02 
3.643200e-01 2.203333e+02 
3.655500e-01 2.190800e+02 
3.667300e-01 2.178879e+02 
3.679500e-01 2.166742e+02 
3.691900e-01 2.154512e+02 
3.703600e-01 2.143068e+02 
3.715700e-01 2.131331e+02 
3.727700e-01 2.119788e+02 
3.739900e-01 2.108176e+02 
3.752000e-01 2.096802e+02 
3.763900e-01 2.085707e+02 
3.775800e-01 2.074703e+02 
3.788200e-01 2.063330e+02 
3.800300e-01 2.052324e+02 
3.812100e-01 2.041720e+02 
3.824200e-01 2.030961e+02 
3.836100e-01 2.020465e+02 
3.848600e-01 2.009530e+02 
3.860400e-01 1.999290e+02 
3.872400e-01 1.988959e+02 
3.884600e-01 1.978588e+02 
3.896500e-01 1.968571e+02 
3.908700e-01 1.958383e+02 
3.920600e-01 1.948523e+02 
3.933100e-01 1.938248e+02 
3.945300e-01 1.928301e+02 
3.957200e-01 1.918722e+02 
3.969300e-01 1.909071e+02 
3.981700e-01 1.899258e+02 
3.993500e-01 1.889993e+02 
4.094840e-01 1.813482e+02 
4.272360e-01 1.691869e+02 
4.454600e-01 1.580920e+02 
4.630560e-01 1.485185e+02 
4.804610e-01 1.399951e+02 
4.980690e-01 1.322032e+02 
5.159230e-01 1.250429e+02 
5.317440e-01 1.192441e+02 
5.489640e-01 1.134510e+02 
5.671990e-01 1.078417e+02 
5.838690e-01 1.031249e+02 
6.018840e-01 9.842835e+01 
6.202330e-01 9.402906e+01 
6.379250e-01 9.010568e+01 
6.545410e-01 8.668920e+01 
6.714560e-01 8.344421e+01 
6.892080e-01 8.027013e+01 
7.066010e-01 7.737281e+01 
7.240540e-01 7.465237e+01 
7.420450e-01 7.203252e+01 
7.593780e-01 6.966875e+01 
7.764720e-01 6.747610e+01 
7.942840e-01 6.532762e+01 
8.116170e-01 6.336054e+01 
8.288310e-01 6.151756e+01 
8.462240e-01 5.975740e+01 
8.631980e-01 5.813200e+01 
8.810700e-01 5.651143e+01 
8.989410e-01 5.497692e+01 
9.166330e-01 5.353584e+01 
9.345640e-01 5.215012e+01 
9.515980e-01 5.089734e+01 
9.688720e-01 4.968608e+01 
9.865640e-01 4.850425e+01 
1.031870e+00 4.571247e+01 
1.063490e+00 4.394477e+01 
1.097920e+00 4.216840e+01 
1.134370e+00 4.043273e+01 
1.167730e+00 3.896240e+01 
1.203830e+00 3.748416e+01 
1.240470e+00 3.608975e+01 
1.275790e+00 3.483683e+01 
1.309140e+00 3.372807e+01 
1.342970e+00 3.266844e+01 
1.378420e+00 3.162367e+01 
1.413200e+00 3.065786e+01 
1.448110e+00 2.974172e+01 
1.484090e+00 2.884853e+01 
1.518820e+00 2.803229e+01 
1.552880e+00 2.727119e+01 
1.588630e+00 2.651141e+01 
1.623230e+00 2.581119e+01 
1.657720e+00 2.514601e+01 
1.692450e+00 2.450595e+01 
1.726400e+00 2.390760e+01 
1.762200e+00 2.330321e+01 
1.797880e+00 2.272695e+01 
1.833270e+00 2.217945e+01 
1.869070e+00 2.164832e+01 
1.903200e+00 2.116170e+01 
1.937740e+00 2.068819e+01 
1.973190e+00 2.022036e+01 
2.007440e+00 1.978515e+01 
2.042160e+00 1.935958e+01 
2.077900e+00 1.893719e+01 
2.112390e+00 1.854436e+01 
2.146220e+00 1.817136e+01 
2.181600e+00 1.779450e+01 
2.216930e+00 1.743046e+01 
2.250760e+00 1.709319e+01 
2.286500e+00 1.674848e+01 
2.321770e+00 1.641925e+01 
2.355950e+00 1.610967e+01 
2.391280e+00 1.579926e+01 
2.426240e+00 1.550121e+01 
2.460670e+00 1.521646e+01 
2.495640e+00 1.493600e+01 
2.531080e+00 1.465939e+01 
2.566220e+00 1.439282e+01 
2.600830e+00 1.413768e+01 
2.635080e+00 1.389223e+01 
2.670340e+00 1.364605e+01 
2.705970e+00 1.340398e+01 
2.740040e+00 1.317872e+01 
2.774520e+00 1.295639e+01 
2.809730e+00 1.273498e+01 
2.844390e+00 1.252280e+01 
2.879960e+00 1.231053e+01 
2.914860e+00 1.210717e+01 
2.949410e+00 1.191095e+01 
2.984440e+00 1.171650e+01 
3.019760e+00 1.152524e+01 
3.054730e+00 1.134071e+01 
3.089030e+00 1.116321e+01 
3.124060e+00 1.098640e+01 
3.159560e+00 1.081143e+01 
3.194710e+00 1.064191e+01 
3.229010e+00 1.048049e+01 
3.263320e+00 1.032189e+01 
3.297930e+00 1.016569e+01 
3.332830e+00 1.001152e+01 
3.368040e+00 9.859304e+00 
3.403300e+00 9.710277e+00 
3.438450e+00 9.564624e+00 
3.473060e+00 9.424585e+00 
3.508440e+00 9.283782e+00 
3.543110e+00 9.149040e+00 
3.577470e+00 9.017879e+00 
3.613040e+00 8.885100e+00 
3.648120e+00 8.756527e+00 
3.682910e+00 8.631748e+00 
3.718050e+00 8.508125e+00 
3.753320e+00 8.386538e+00 
3.787980e+00 8.269203e+00 
3.822290e+00 8.155371e+00 
3.857020e+00 8.042259e+00 
3.891920e+00 7.930854e+00 
3.926650e+00 7.821931e+00 
3.961970e+00 7.713376e+00 
3.997360e+00 7.606427e+00 
4.031670e+00 7.504872e+00 
4.066330e+00 7.403918e+00 
4.101420e+00 7.303878e+00 
4.136200e+00 7.206081e+00 
4.170810e+00 7.110811e+00 
4.206250e+00 7.014774e+00 
4.241580e+00 6.920961e+00 
4.276300e+00 6.830290e+00 
4.310970e+00 6.741383e+00 
4.346120e+00 6.652855e+00 
4.380600e+00 6.567389e+00 
4.414730e+00 6.484450e+00 
4.450350e+00 6.399068e+00 
4.485320e+00 6.316928e+00 
4.519810e+00 6.237166e+00 
4.555430e+00 6.156260e+00 
4.590870e+00 6.077184e+00 
4.625480e+00 6.001100e+00 
4.659910e+00 5.926851e+00 
4.695230e+00 5.851761e+00 
4.729960e+00 5.779275e+00 
4.764450e+00 5.708499e+00 
4.799530e+00 5.637628e+00 
4.834910e+00 5.567493e+00 
4.869700e+00 5.499431e+00 
4.904370e+00 5.432782e+00 
4.939450e+00 5.366490e+00 
4.973940e+00 5.302267e+00 
5.008430e+00 5.239190e+00 
5.043810e+00 5.175435e+00 
5.078840e+00 5.113323e+00 
5.113500e+00 5.052955e+00 
5.148890e+00 4.992111e+00 
5.184210e+00 4.932454e+00 
5.219060e+00 4.874561e+00 
5.253660e+00 4.817905e+00 
5.288570e+00 4.761722e+00 
5.323420e+00 4.706464e+00 
5.358440e+00 4.651736e+00 
5.393590e+00 4.597741e+00 
5.428310e+00 4.545192e+00 
5.462800e+00 4.493800e+00 
5.497640e+00 4.442746e+00 
5.532670e+00 4.392114e+00 
5.567280e+00 4.342864e+00 
5.602000e+00 4.294262e+00 
5.637270e+00 4.245557e+00 
5.672410e+00 4.197793e+00 
5.707020e+00 4.151509e+00 
5.742040e+00 4.105316e+00 
5.777430e+00 4.059364e+00 
5.812210e+00 4.014925e+00 
5.846820e+00 3.971299e+00 
5.881610e+00 3.928107e+00 
5.916510e+00 3.885456e+00 
5.951600e+00 3.843172e+00 
5.986560e+00 3.801670e+00 
6.021830e+00 3.760448e+00 
6.056490e+00 3.720509e+00 
6.091160e+00 3.681119e+00 
6.125830e+00 3.642324e+00 
6.161090e+00 3.603443e+00 
6.195760e+00 3.565744e+00 
6.230420e+00 3.528615e+00 
6.265690e+00 3.491394e+00 
6.300950e+00 3.454699e+00 
6.335620e+00 3.419152e+00 
6.370880e+00 3.383530e+00 
6.405550e+00 3.348982e+00 
6.440220e+00 3.314918e+00 
6.475480e+00 3.280775e+00 
6.510150e+00 3.247683e+00 
6.544810e+00 3.215060e+00 
6.580080e+00 3.182337e+00 
6.614750e+00 3.150627e+00 
6.649410e+00 3.119348e+00 
6.684080e+00 3.088492e+00 
6.719340e+00 3.057551e+00 
6.754010e+00 3.027553e+00 
6.788680e+00 2.997972e+00 
6.823940e+00 2.968304e+00 
6.859800e+00 2.938552e+00 
6.894470e+00 2.910198e+00 
6.929140e+00 2.882232e+00 
6.963800e+00 2.854650e+00 
6.999070e+00 2.826962e+00 
7.033730e+00 2.800128e+00 
7.068400e+00 2.773643e+00 
7.103660e+00 2.747065e+00 
7.138330e+00 2.721283e+00 
7.173600e+00 2.695411e+00 
7.208260e+00 2.670321e+00 
7.243530e+00 2.645122e+00 
7.277600e+00 2.621117e+00 
7.312860e+00 2.596612e+00 
7.348120e+00 2.572426e+00 
7.382790e+00 2.548950e+00 
7.417460e+00 2.525788e+00 
7.452720e+00 2.502540e+00 
7.487390e+00 2.479971e+00 
7.522650e+00 2.457307e+00 
7.557320e+00 2.435339e+00 
7.591990e+00 2.413656e+00 
7.627250e+00 2.391878e+00 
7.662510e+00 2.370373e+00 
7.697180e+00 2.349530e+00 
7.731850e+00 2.328957e+00 
7.766510e+00 2.308640e+00 
7.801180e+00 2.288562e+00 
7.836440e+00 2.268418e+00 
7.871110e+00 2.248867e+00 
7.906380e+00 2.229217e+00 
7.941040e+00 2.210138e+00 
7.976310e+00 2.190979e+00 
8.011570e+00 2.172083e+00 
8.046240e+00 2.153722e+00 
8.080900e+00 2.135582e+00 
8.115570e+00 2.117661e+00 
8.150830e+00 2.099699e+00 
8.185500e+00 2.082244e+00 
8.220770e+00 2.064692e+00 
8.255430e+00 2.047643e+00 
8.290100e+00 2.030836e+00 
8.324770e+00 2.014226e+00 
8.359430e+00 1.997808e+00 
8.394700e+00 1.981291e+00 
8.429960e+00 1.964996e+00 
8.464630e+00 1.949183e+00 
8.499890e+00 1.933281e+00 
8.534560e+00 1.917820e+00 
8.569200e+00 1.902543e+00 
