# Parameters:
# omega_b = 0.021887, omega_m = 0.143710, n_s = 0.998387, h = 71.451613, w = -1.000000, sigma_8 = 0.767419
# z = 0.010000
#
# k[1/Mpc] # P(k):
8.694000e-04 1.030187e+04 
2.077466e-03 2.269469e+04 
3.285532e-03 3.270695e+04 
4.493598e-03 4.061237e+04 
5.701664e-03 4.665867e+04 
6.909730e-03 5.110112e+04 
8.117797e-03 5.425878e+04 
9.325863e-03 5.629619e+04 
1.053393e-02 5.738709e+04 
1.174199e-02 5.769760e+04 
1.295006e-02 5.733271e+04 
1.415813e-02 5.643990e+04 
1.536619e-02 5.514536e+04 
1.657426e-02 5.358647e+04 
1.778233e-02 5.201281e+04 
1.899039e-02 5.044295e+04 
2.019846e-02 4.858448e+04 
2.140652e-02 4.649951e+04 
2.261459e-02 4.438536e+04 
2.382266e-02 4.234913e+04 
2.503072e-02 4.043016e+04 
2.623879e-02 3.864351e+04 
2.744685e-02 3.699507e+04 
2.865492e-02 3.549140e+04 
2.986299e-02 3.412870e+04 
3.100100e-02 3.297339e+04 
3.220400e-02 3.187731e+04 
3.288100e-02 3.131537e+04 
3.424300e-02 3.029191e+04 
3.555100e-02 2.943219e+04 
3.686000e-02 2.866831e+04 
3.795000e-02 2.809700e+04 
3.929100e-02 2.746331e+04 
4.039800e-02 2.698003e+04 
4.164000e-02 2.646371e+04 
4.294400e-02 2.593487e+04 
4.415000e-02 2.545769e+04 
4.542900e-02 2.493443e+04 
4.660900e-02 2.444164e+04 
4.782300e-02 2.390179e+04 
4.892900e-02 2.339193e+04 
5.031200e-02 2.272257e+04 
5.155900e-02 2.208827e+04 
5.238100e-02 2.165808e+04 
5.378200e-02 2.090988e+04 
5.513400e-02 2.016902e+04 
5.627600e-02 1.954072e+04 
5.735300e-02 1.895380e+04 
5.870100e-02 1.822947e+04 
5.988700e-02 1.761267e+04 
6.113500e-02 1.698927e+04 
6.225900e-02 1.645411e+04 
6.340100e-02 1.593860e+04 
6.480200e-02 1.534961e+04 
6.601100e-02 1.488333e+04 
6.725500e-02 1.444344e+04 
6.829100e-02 1.411193e+04 
6.958600e-02 1.373158e+04 
7.071100e-02 1.343405e+04 
7.192300e-02 1.314374e+04 
7.307400e-02 1.289478e+04 
7.412300e-02 1.268823e+04 
7.550400e-02 1.244433e+04 
7.663100e-02 1.226210e+04 
7.791200e-02 1.207200e+04 
7.912700e-02 1.190470e+04 
8.027600e-02 1.175251e+04 
8.138400e-02 1.160976e+04 
8.272200e-02 1.144036e+04 
8.406100e-02 1.127083e+04 
8.534100e-02 1.110503e+04 
8.653800e-02 1.094387e+04 
8.759800e-02 1.079853e+04 
8.900300e-02 1.060044e+04 
9.009000e-02 1.044040e+04 
9.113300e-02 1.028239e+04 
9.239600e-02 1.008853e+04 
9.358000e-02 9.901543e+03 
9.496100e-02 9.680221e+03 
9.608400e-02 9.499917e+03 
9.727500e-02 9.309475e+03 
9.852600e-02 9.107994e+03 
9.973800e-02 8.917419e+03 
1.009000e-01 8.739011e+03 
1.020900e-01 8.560063e+03 
1.034000e-01 8.370862e+03 
1.046000e-01 8.204899e+03 
1.057200e-01 8.058387e+03 
1.069100e-01 7.909156e+03 
1.082500e-01 7.753541e+03 
1.093900e-01 7.628844e+03 
1.105400e-01 7.508581e+03 
1.116900e-01 7.399244e+03 
1.129600e-01 7.284282e+03 
1.142000e-01 7.181459e+03 
1.153300e-01 7.092600e+03 
1.166400e-01 6.996073e+03 
1.177800e-01 6.916130e+03 
1.190000e-01 6.833553e+03 
1.201200e-01 6.761291e+03 
1.213400e-01 6.684751e+03 
1.227100e-01 6.600020e+03 
1.238900e-01 6.528433e+03 
1.250700e-01 6.456948e+03 
1.263200e-01 6.381880e+03 
1.275500e-01 6.307261e+03 
1.287500e-01 6.234895e+03 
1.299900e-01 6.159857e+03 
1.311300e-01 6.090654e+03 
1.323500e-01 6.015577e+03 
1.335900e-01 5.939867e+03 
1.347100e-01 5.871465e+03 
1.359800e-01 5.794681e+03 
1.372100e-01 5.720181e+03 
1.384300e-01 5.647324e+03 
1.395700e-01 5.579282e+03 
1.407700e-01 5.509025e+03 
1.420300e-01 5.435672e+03 
1.432800e-01 5.364492e+03 
1.444500e-01 5.299671e+03 
1.456300e-01 5.235610e+03 
1.468900e-01 5.168821e+03 
1.480500e-01 5.108644e+03 
1.491700e-01 5.052198e+03 
1.503800e-01 4.993092e+03 
1.516400e-01 4.933153e+03 
1.528200e-01 4.879728e+03 
1.540200e-01 4.826433e+03 
1.551900e-01 4.777010e+03 
1.564300e-01 4.726001e+03 
1.576600e-01 4.676889e+03 
1.588700e-01 4.630101e+03 
1.600900e-01 4.583877e+03 
1.612700e-01 4.541345e+03 
1.625400e-01 4.496413e+03 
1.637600e-01 4.454167e+03 
1.649500e-01 4.413765e+03 
1.662200e-01 4.371443e+03 
1.674000e-01 4.332911e+03 
1.685000e-01 4.297587e+03 
1.697500e-01 4.257918e+03 
1.710300e-01 4.217827e+03 
1.722200e-01 4.181209e+03 
1.734400e-01 4.143526e+03 
1.746400e-01 4.107057e+03 
1.758700e-01 4.070029e+03 
1.770900e-01 4.033353e+03 
1.782700e-01 3.998466e+03 
1.794600e-01 3.963352e+03 
1.807000e-01 3.927030e+03 
1.819100e-01 3.892173e+03 
1.830100e-01 3.860778e+03 
1.842200e-01 3.826741e+03 
1.855000e-01 3.791332e+03 
1.867000e-01 3.758752e+03 
1.879200e-01 3.726152e+03 
1.890900e-01 3.695340e+03 
1.902800e-01 3.664302e+03 
1.915200e-01 3.632464e+03 
1.926900e-01 3.602978e+03 
1.939000e-01 3.573248e+03 
1.951700e-01 3.542530e+03 
1.963100e-01 3.515470e+03 
1.975100e-01 3.487660e+03 
1.987800e-01 3.458677e+03 
2.000100e-01 3.431086e+03 
2.012500e-01 3.403805e+03 
2.023400e-01 3.380162e+03 
2.036100e-01 3.353050e+03 
2.048900e-01 3.326315e+03 
2.060400e-01 3.302643e+03 
2.072200e-01 3.278703e+03 
2.084200e-01 3.254901e+03 
2.096900e-01 3.230072e+03 
2.109200e-01 3.206375e+03 
2.121100e-01 3.183750e+03 
2.132700e-01 3.161993e+03 
2.145200e-01 3.138870e+03 
2.157200e-01 3.116991e+03 
2.168800e-01 3.096128e+03 
2.180700e-01 3.075008e+03 
2.193400e-01 3.052767e+03 
2.206000e-01 3.030991e+03 
2.217500e-01 3.011380e+03 
2.229500e-01 2.991180e+03 
2.241400e-01 2.971394e+03 
2.253500e-01 2.951537e+03 
2.264900e-01 2.933067e+03 
2.277100e-01 2.913685e+03 
2.289900e-01 2.893772e+03 
2.301500e-01 2.875959e+03 
2.313600e-01 2.857610e+03 
2.325600e-01 2.839538e+03 
2.337700e-01 2.821544e+03 
2.350000e-01 2.803486e+03 
2.362000e-01 2.786181e+03 
2.374100e-01 2.769058e+03 
2.386500e-01 2.751730e+03 
2.399100e-01 2.734348e+03 
2.410400e-01 2.718806e+03 
2.422500e-01 2.702342e+03 
2.435000e-01 2.685545e+03 
2.447300e-01 2.669276e+03 
2.458700e-01 2.654599e+03 
2.470600e-01 2.639454e+03 
2.483300e-01 2.623487e+03 
2.495600e-01 2.608156e+03 
2.507600e-01 2.593296e+03 
2.519600e-01 2.578610e+03 
2.532200e-01 2.563372e+03 
2.543700e-01 2.549647e+03 
2.555500e-01 2.535736e+03 
2.568000e-01 2.521170e+03 
2.580100e-01 2.507235e+03 
2.592400e-01 2.493279e+03 
2.604100e-01 2.480174e+03 
2.616100e-01 2.466882e+03 
2.628400e-01 2.453412e+03 
2.640600e-01 2.440281e+03 
2.652200e-01 2.427964e+03 
2.664300e-01 2.415256e+03 
2.676500e-01 2.402585e+03 
2.688400e-01 2.390274e+03 
2.700700e-01 2.377635e+03 
2.712400e-01 2.365741e+03 
2.724800e-01 2.353273e+03 
2.736700e-01 2.341490e+03 
2.748800e-01 2.329689e+03 
2.761000e-01 2.317920e+03 
2.773200e-01 2.306277e+03 
2.785400e-01 2.294724e+03 
2.797000e-01 2.283777e+03 
2.808900e-01 2.272663e+03 
2.821400e-01 2.261112e+03 
2.833900e-01 2.249686e+03 
2.845500e-01 2.239170e+03 
2.857800e-01 2.228134e+03 
2.870300e-01 2.217037e+03 
2.882100e-01 2.206671e+03 
2.893900e-01 2.196330e+03 
2.906300e-01 2.185532e+03 
2.918900e-01 2.174675e+03 
2.930500e-01 2.164781e+03 
2.942500e-01 2.154660e+03 
2.954200e-01 2.144936e+03 
2.966500e-01 2.134814e+03 
2.978900e-01 2.124713e+03 
2.990400e-01 2.115438e+03 
3.002700e-01 2.105522e+03 
3.015100e-01 2.095581e+03 
3.026800e-01 2.086293e+03 
3.038500e-01 2.077093e+03 
3.050300e-01 2.067902e+03 
3.062600e-01 2.058468e+03 
3.075000e-01 2.049051e+03 
3.087000e-01 2.040026e+03 
3.099100e-01 2.031012e+03 
3.111200e-01 2.022066e+03 
3.123100e-01 2.013319e+03 
3.135300e-01 2.004436e+03 
3.147300e-01 1.995781e+03 
3.159900e-01 1.986780e+03 
3.171800e-01 1.978340e+03 
3.183700e-01 1.969966e+03 
3.196300e-01 1.961183e+03 
3.208400e-01 1.952828e+03 
3.220300e-01 1.944686e+03 
3.232000e-01 1.936767e+03 
3.244300e-01 1.928522e+03 
3.256700e-01 1.920289e+03 
3.269200e-01 1.912066e+03 
3.280800e-01 1.904504e+03 
3.292500e-01 1.896978e+03 
3.304800e-01 1.889146e+03 
3.317100e-01 1.881386e+03 
3.328900e-01 1.874008e+03 
3.340700e-01 1.866693e+03 
3.353600e-01 1.858791e+03 
3.365300e-01 1.851697e+03 
3.377100e-01 1.844604e+03 
3.389200e-01 1.837393e+03 
3.401600e-01 1.830069e+03 
3.413700e-01 1.822998e+03 
3.425300e-01 1.816285e+03 
3.437700e-01 1.809171e+03 
3.449800e-01 1.802289e+03 
3.461800e-01 1.795523e+03 
3.473600e-01 1.788932e+03 
3.485800e-01 1.782190e+03 
3.498100e-01 1.775451e+03 
3.510200e-01 1.768878e+03 
3.522000e-01 1.762522e+03 
3.533900e-01 1.756166e+03 
3.546400e-01 1.749633e+03 
3.558400e-01 1.743420e+03 
3.570600e-01 1.737157e+03 
3.582700e-01 1.730997e+03 
3.595000e-01 1.724787e+03 
3.607100e-01 1.718707e+03 
3.618900e-01 1.712808e+03 
3.631200e-01 1.706710e+03 
3.643200e-01 1.700809e+03 
3.655500e-01 1.694811e+03 
3.667300e-01 1.689103e+03 
3.679500e-01 1.683260e+03 
3.691900e-01 1.677371e+03 
3.703600e-01 1.671860e+03 
3.715700e-01 1.666205e+03 
3.727700e-01 1.660641e+03 
3.739900e-01 1.655038e+03 
3.752000e-01 1.649540e+03 
3.763900e-01 1.644176e+03 
3.775800e-01 1.638853e+03 
3.788200e-01 1.633351e+03 
3.800300e-01 1.628025e+03 
3.812100e-01 1.622876e+03 
3.824200e-01 1.617641e+03 
3.836100e-01 1.612531e+03 
3.848600e-01 1.607207e+03 
3.860400e-01 1.602220e+03 
3.872400e-01 1.597187e+03 
3.884600e-01 1.592121e+03 
3.896500e-01 1.587221e+03 
3.908700e-01 1.582237e+03 
3.920600e-01 1.577412e+03 
3.933100e-01 1.572384e+03 
3.945300e-01 1.567514e+03 
3.957200e-01 1.562770e+03 
3.969300e-01 1.557975e+03 
3.981700e-01 1.553098e+03 
3.993500e-01 1.548492e+03 
4.094840e-01 1.510347e+03 
4.272360e-01 1.448385e+03 
4.454600e-01 1.390098e+03 
4.630560e-01 1.338424e+03 
4.804610e-01 1.290778e+03 
4.980690e-01 1.246263e+03 
5.159230e-01 1.204001e+03 
5.317440e-01 1.169107e+03 
5.489640e-01 1.133284e+03 
5.671990e-01 1.097756e+03 
5.838690e-01 1.067281e+03 
6.018840e-01 1.036329e+03 
6.202330e-01 1.006424e+03 
6.379250e-01 9.794329e+02 
6.545410e-01 9.552642e+02 
6.714560e-01 9.318746e+02 
6.892080e-01 9.084546e+02 
7.066010e-01 8.867010e+02 
7.240540e-01 8.657813e+02 
7.420450e-01 8.450248e+02 
7.593780e-01 8.260302e+02 
7.764720e-01 8.078688e+02 
7.942840e-01 7.896945e+02 
8.116170e-01 7.727316e+02 
8.288310e-01 7.564097e+02 
8.462240e-01 7.405261e+02 
8.631980e-01 7.254716e+02 
8.810700e-01 7.101411e+02 
8.989410e-01 6.953311e+02 
9.166330e-01 6.811752e+02 
9.345640e-01 6.671651e+02 
9.515980e-01 6.542751e+02 
9.688720e-01 6.415767e+02 
9.865640e-01 6.289083e+02 
1.031870e+00 5.981510e+02 
1.063490e+00 5.779627e+02 
1.097920e+00 5.569216e+02 
1.134370e+00 5.358728e+02 
1.167730e+00 5.176573e+02 
1.203830e+00 4.987822e+02 
1.240470e+00 4.806825e+02 
1.275790e+00 4.640223e+02 
1.309140e+00 4.490183e+02 
1.342970e+00 4.344871e+02 
1.378420e+00 4.199568e+02 
1.413200e+00 4.063789e+02 
1.448110e+00 3.933415e+02 
1.484090e+00 3.805108e+02 
1.518820e+00 3.686659e+02 
1.552880e+00 3.575890e+02 
1.588630e+00 3.464267e+02 
1.623230e+00 3.360724e+02 
1.657720e+00 3.262025e+02 
1.692450e+00 3.166785e+02 
1.726400e+00 3.077321e+02 
1.762200e+00 2.987208e+02 
1.797880e+00 2.900585e+02 
1.833270e+00 2.818542e+02 
1.869070e+00 2.738725e+02 
1.903200e+00 2.665523e+02 
1.937740e+00 2.594136e+02 
1.973190e+00 2.523728e+02 
2.007440e+00 2.458504e+02 
2.042160e+00 2.394737e+02 
2.077900e+00 2.331407e+02 
2.112390e+00 2.272488e+02 
2.146220e+00 2.217007e+02 
2.181600e+00 2.160609e+02 
2.216930e+00 2.106482e+02 
2.250760e+00 2.056658e+02 
2.286500e+00 2.005787e+02 
2.321770e+00 1.957121e+02 
2.355950e+00 1.911737e+02 
2.391280e+00 1.866323e+02 
2.426240e+00 1.822809e+02 
2.460670e+00 1.781418e+02 
2.495640e+00 1.740864e+02 
2.531080e+00 1.700747e+02 
2.566220e+00 1.662393e+02 
2.600830e+00 1.625946e+02 
2.635080e+00 1.591113e+02 
2.670340e+00 1.556022e+02 
2.705970e+00 1.521786e+02 
2.740040e+00 1.490101e+02 
2.774520e+00 1.458909e+02 
2.809730e+00 1.428125e+02 
2.844390e+00 1.398761e+02 
2.879960e+00 1.369452e+02 
2.914860e+00 1.341492e+02 
2.949410e+00 1.314598e+02 
2.984440e+00 1.288061e+02 
3.019760e+00 1.262141e+02 
3.054730e+00 1.237253e+02 
3.089030e+00 1.213447e+02 
3.124060e+00 1.189856e+02 
3.159560e+00 1.166671e+02 
3.194710e+00 1.144303e+02 
3.229010e+00 1.123061e+02 
3.263320e+00 1.102311e+02 
3.297930e+00 1.081968e+02 
3.332830e+00 1.062053e+02 
3.368040e+00 1.042460e+02 
3.403300e+00 1.023337e+02 
3.438450e+00 1.004816e+02 
3.473060e+00 9.870658e+01 
3.508440e+00 9.693386e+01 
3.543110e+00 9.524074e+01 
3.577470e+00 9.360009e+01 
3.613040e+00 9.194602e+01 
3.648120e+00 9.035962e+01 
3.682910e+00 8.882375e+01 
3.718050e+00 8.730738e+01 
3.753320e+00 8.582475e+01 
3.787980e+00 8.440576e+01 
3.822290e+00 8.303275e+01 
3.857020e+00 8.167305e+01 
3.891920e+00 8.034013e+01 
3.926650e+00 7.904685e+01 
3.961970e+00 7.776135e+01 
3.997360e+00 7.650109e+01 
4.031670e+00 7.530802e+01 
4.066330e+00 7.413317e+01 
4.101420e+00 7.297063e+01 
4.136200e+00 7.184712e+01 
4.170810e+00 7.075373e+01 
4.206250e+00 6.965652e+01 
4.241580e+00 6.858650e+01 
4.276300e+00 6.755568e+01 
4.310970e+00 6.654718e+01 
4.346120e+00 6.554795e+01 
4.380600e+00 6.459080e+01 
4.414730e+00 6.366303e+01 
4.450350e+00 6.271781e+01 
4.485320e+00 6.180927e+01 
4.519810e+00 6.093013e+01 
4.555430e+00 6.004017e+01 
4.590870e+00 5.917378e+01 
4.625480e+00 5.834640e+01 
4.659910e+00 5.753960e+01 
4.695230e+00 5.673113e+01 
4.729960e+00 5.595231e+01 
4.764450e+00 5.519323e+01 
4.799530e+00 5.443508e+01 
4.834910e+00 5.368535e+01 
4.869700e+00 5.296452e+01 
4.904370e+00 5.226014e+01 
4.939450e+00 5.156041e+01 
4.973940e+00 5.088407e+01 
5.008430e+00 5.022023e+01 
5.043810e+00 4.955326e+01 
5.078840e+00 4.890595e+01 
5.113500e+00 4.827719e+01 
5.148890e+00 4.764957e+01 
5.184210e+00 4.703476e+01 
5.219060e+00 4.643869e+01 
5.253660e+00 4.585627e+01 
5.288570e+00 4.527902e+01 
5.323420e+00 4.471381e+01 
5.358440e+00 4.415678e+01 
5.393590e+00 4.360748e+01 
5.428310e+00 4.307589e+01 
5.462800e+00 4.255767e+01 
5.497640e+00 4.204307e+01 
5.532670e+00 4.153340e+01 
5.567280e+00 4.103798e+01 
5.602000e+00 4.054930e+01 
5.637270e+00 4.006253e+01 
5.672410e+00 3.958599e+01 
5.707020e+00 3.912438e+01 
5.742040e+00 3.866652e+01 
5.777430e+00 3.821176e+01 
5.812210e+00 3.777211e+01 
5.846820e+00 3.734089e+01 
5.881610e+00 3.691414e+01 
5.916510e+00 3.649287e+01 
5.951600e+00 3.607542e+01 
5.986560e+00 3.566584e+01 
6.021830e+00 3.525916e+01 
6.056490e+00 3.486674e+01 
6.091160e+00 3.448108e+01 
6.125830e+00 3.410135e+01 
6.161090e+00 3.372142e+01 
6.195760e+00 3.335428e+01 
6.230420e+00 3.299278e+01 
6.265690e+00 3.263048e+01 
6.300950e+00 3.227330e+01 
6.335620e+00 3.192737e+01 
6.370880e+00 3.158082e+01 
6.405550e+00 3.124599e+01 
6.440220e+00 3.091642e+01 
6.475480e+00 3.058617e+01 
6.510150e+00 3.026601e+01 
6.544810e+00 2.995014e+01 
6.580080e+00 2.963338e+01 
6.614750e+00 2.932650e+01 
6.649410e+00 2.902512e+01 
6.684080e+00 2.872812e+01 
6.719340e+00 2.843037e+01 
6.754010e+00 2.814154e+01 
6.788680e+00 2.785627e+01 
6.823940e+00 2.757021e+01 
6.859800e+00 2.728343e+01 
6.894470e+00 2.700977e+01 
6.929140e+00 2.673977e+01 
6.963800e+00 2.647354e+01 
6.999070e+00 2.620641e+01 
7.033730e+00 2.594833e+01 
7.068400e+00 2.569365e+01 
7.103660e+00 2.543815e+01 
7.138330e+00 2.519020e+01 
7.173600e+00 2.494114e+01 
7.208260e+00 2.469965e+01 
7.243530e+00 2.445719e+01 
7.277600e+00 2.422648e+01 
7.312860e+00 2.399123e+01 
7.348120e+00 2.375909e+01 
7.382790e+00 2.353381e+01 
7.417460e+00 2.331125e+01 
7.452720e+00 2.308774e+01 
7.487390e+00 2.287081e+01 
7.522650e+00 2.265302e+01 
7.557320e+00 2.244134e+01 
7.591990e+00 2.223223e+01 
7.627250e+00 2.202227e+01 
7.662510e+00 2.181500e+01 
7.697180e+00 2.161351e+01 
7.731850e+00 2.141445e+01 
7.766510e+00 2.121791e+01 
7.801180e+00 2.102375e+01 
7.836440e+00 2.082928e+01 
7.871110e+00 2.064075e+01 
7.906380e+00 2.045132e+01 
7.941040e+00 2.026746e+01 
7.976310e+00 2.008198e+01 
8.011570e+00 1.989804e+01 
8.046240e+00 1.971938e+01 
8.080900e+00 1.954292e+01 
8.115570e+00 1.936871e+01 
8.150830e+00 1.919440e+01 
8.185500e+00 1.902505e+01 
8.220770e+00 1.885483e+01 
8.255430e+00 1.868954e+01 
8.290100e+00 1.852662e+01 
8.324770e+00 1.836567e+01 
8.359430e+00 1.820663e+01 
8.394700e+00 1.804668e+01 
8.429960e+00 1.788818e+01 
8.464630e+00 1.773366e+01 
8.499890e+00 1.757833e+01 
8.534560e+00 1.742737e+01 
8.569200e+00 1.727826e+01 
