# Parameters:
# omega_b = 0.021887, omega_m = 0.143710, n_s = 0.998387, h = 71.451613, w = -1.000000, sigma_8 = 0.767419
# z = 0.570000
#
# k[1/Mpc] # P(k):
8.694000e-04 5.904760e+03 
2.077466e-03 1.301212e+04 
3.285532e-03 1.875138e+04 
4.493598e-03 2.328747e+04 
5.701664e-03 2.675928e+04 
6.909730e-03 2.931323e+04 
8.117797e-03 3.113110e+04 
9.325863e-03 3.230746e+04 
1.053393e-02 3.294151e+04 
1.174199e-02 3.312862e+04 
1.295006e-02 3.292849e+04 
1.415813e-02 3.242483e+04 
1.536619e-02 3.168877e+04 
1.657426e-02 3.076904e+04 
1.778233e-02 2.969804e+04 
1.899039e-02 2.851713e+04 
2.019846e-02 2.728335e+04 
2.140652e-02 2.606364e+04 
2.261459e-02 2.487617e+04 
2.382266e-02 2.373850e+04 
2.503072e-02 2.266647e+04 
2.623879e-02 2.166771e+04 
2.744685e-02 2.074533e+04 
2.865492e-02 1.990360e+04 
2.986299e-02 1.914045e+04 
3.100100e-02 1.849306e+04 
3.220400e-02 1.787901e+04 
3.288100e-02 1.756501e+04 
3.424300e-02 1.699421e+04 
3.555100e-02 1.651244e+04 
3.686000e-02 1.608774e+04 
3.795000e-02 1.576974e+04 
3.929100e-02 1.541756e+04 
4.039800e-02 1.514912e+04 
4.164000e-02 1.486459e+04 
4.294400e-02 1.457403e+04 
4.415000e-02 1.430919e+04 
4.542900e-02 1.401933e+04 
4.660900e-02 1.374665e+04 
4.782300e-02 1.344507e+04 
4.892900e-02 1.316006e+04 
5.031200e-02 1.278428e+04 
5.155900e-02 1.242558e+04 
5.238100e-02 1.218128e+04 
5.378200e-02 1.175423e+04 
5.513400e-02 1.133099e+04 
5.627600e-02 1.096958e+04 
5.735300e-02 1.063024e+04 
5.870100e-02 1.021215e+04 
5.988700e-02 9.855436e+03 
6.113500e-02 9.494321e+03 
6.225900e-02 9.184471e+03 
6.340100e-02 8.887125e+03 
6.480200e-02 8.547031e+03 
6.601100e-02 8.278426e+03 
6.725500e-02 8.025899e+03 
6.829100e-02 7.835745e+03 
6.958600e-02 7.618845e+03 
7.071100e-02 7.450678e+03 
7.192300e-02 7.287751e+03 
7.307400e-02 7.149021e+03 
7.412300e-02 7.034616e+03 
7.550400e-02 6.900447e+03 
7.663100e-02 6.800885e+03 
7.791200e-02 6.698716e+03 
7.912700e-02 6.608820e+03 
8.027600e-02 6.527623e+03 
8.138400e-02 6.451477e+03 
8.272200e-02 6.360670e+03 
8.406100e-02 6.269297e+03 
8.534100e-02 6.178649e+03 
8.653800e-02 6.089886e+03 
8.759800e-02 6.008858e+03 
8.900300e-02 5.896948e+03 
9.009000e-02 5.806100e+03 
9.113300e-02 5.714914e+03 
9.239600e-02 5.602278e+03 
9.358000e-02 5.493408e+03 
9.496100e-02 5.362111e+03 
9.608400e-02 5.254627e+03 
9.727500e-02 5.140915e+03 
9.852600e-02 5.019679e+03 
9.973800e-02 4.904609e+03 
1.009000e-01 4.796577e+03 
1.020900e-01 4.688644e+03 
1.034000e-01 4.574333e+03 
1.046000e-01 4.473776e+03 
1.057200e-01 4.385568e+03 
1.069100e-01 4.295873e+03 
1.082500e-01 4.202387e+03 
1.093900e-01 4.128548e+03 
1.105400e-01 4.057980e+03 
1.116900e-01 3.994419e+03 
1.129600e-01 3.927916e+03 
1.142000e-01 3.869463e+03 
1.153300e-01 3.819319e+03 
1.166400e-01 3.765427e+03 
1.177800e-01 3.721811e+03 
1.190000e-01 3.677245e+03 
1.201200e-01 3.638494e+03 
1.213400e-01 3.597494e+03 
1.227100e-01 3.552599e+03 
1.238900e-01 3.514621e+03 
1.250700e-01 3.476480e+03 
1.263200e-01 3.436308e+03 
1.275500e-01 3.396113e+03 
1.287500e-01 3.356695e+03 
1.299900e-01 3.315140e+03 
1.311300e-01 3.276559e+03 
1.323500e-01 3.234326e+03 
1.335900e-01 3.191133e+03 
1.347100e-01 3.151325e+03 
1.359800e-01 3.106266e+03 
1.372100e-01 3.061803e+03 
1.384300e-01 3.018110e+03 
1.395700e-01 2.976780e+03 
1.407700e-01 2.934086e+03 
1.420300e-01 2.889051e+03 
1.432800e-01 2.845387e+03 
1.444500e-01 2.805046e+03 
1.456300e-01 2.765215e+03 
1.468900e-01 2.724076e+03 
1.480500e-01 2.687146e+03 
1.491700e-01 2.652733e+03 
1.503800e-01 2.616983e+03 
1.516400e-01 2.580864e+03 
1.528200e-01 2.549174e+03 
1.540200e-01 2.517576e+03 
1.551900e-01 2.488860e+03 
1.564300e-01 2.459375e+03 
1.576600e-01 2.431441e+03 
1.588700e-01 2.405379e+03 
1.600900e-01 2.379655e+03 
1.612700e-01 2.356352e+03 
1.625400e-01 2.331735e+03 
1.637600e-01 2.308841e+03 
1.649500e-01 2.287091e+03 
1.662200e-01 2.264283e+03 
1.674000e-01 2.243381e+03 
1.685000e-01 2.224219e+03 
1.697500e-01 2.202478e+03 
1.710300e-01 2.180286e+03 
1.722200e-01 2.160018e+03 
1.734400e-01 2.138665e+03 
1.746400e-01 2.117983e+03 
1.758700e-01 2.096829e+03 
1.770900e-01 2.075562e+03 
1.782700e-01 2.055337e+03 
1.794600e-01 2.034810e+03 
1.807000e-01 2.013468e+03 
1.819100e-01 1.992993e+03 
1.830100e-01 1.974298e+03 
1.842200e-01 1.953993e+03 
1.855000e-01 1.932871e+03 
1.867000e-01 1.913267e+03 
1.879200e-01 1.893661e+03 
1.890900e-01 1.875183e+03 
1.902800e-01 1.856813e+03 
1.915200e-01 1.837978e+03 
1.926900e-01 1.820561e+03 
1.939000e-01 1.803073e+03 
1.951700e-01 1.785010e+03 
1.963100e-01 1.769153e+03 
1.975100e-01 1.752997e+03 
1.987800e-01 1.736164e+03 
2.000100e-01 1.720228e+03 
2.012500e-01 1.704669e+03 
2.023400e-01 1.691188e+03 
2.036100e-01 1.675769e+03 
2.048900e-01 1.660710e+03 
2.060400e-01 1.647378e+03 
2.072200e-01 1.633903e+03 
2.084200e-01 1.620558e+03 
2.096900e-01 1.606641e+03 
2.109200e-01 1.593360e+03 
2.121100e-01 1.580757e+03 
2.132700e-01 1.568642e+03 
2.145200e-01 1.555769e+03 
2.157200e-01 1.543605e+03 
2.168800e-01 1.532014e+03 
2.180700e-01 1.520282e+03 
2.193400e-01 1.507933e+03 
2.206000e-01 1.495855e+03 
2.217500e-01 1.484978e+03 
2.229500e-01 1.473777e+03 
2.241400e-01 1.462843e+03 
2.253500e-01 1.451872e+03 
2.264900e-01 1.441669e+03 
2.277100e-01 1.430916e+03 
2.289900e-01 1.419817e+03 
2.301500e-01 1.409890e+03 
2.313600e-01 1.399666e+03 
2.325600e-01 1.389758e+03 
2.337700e-01 1.379893e+03 
2.350000e-01 1.369993e+03 
2.362000e-01 1.360512e+03 
2.374100e-01 1.351135e+03 
2.386500e-01 1.341648e+03 
2.399100e-01 1.332130e+03 
2.410400e-01 1.323801e+03 
2.422500e-01 1.315002e+03 
2.435000e-01 1.306023e+03 
2.447300e-01 1.297315e+03 
2.458700e-01 1.289406e+03 
2.470600e-01 1.281245e+03 
2.483300e-01 1.272641e+03 
2.495600e-01 1.264432e+03 
2.507600e-01 1.256548e+03 
2.519600e-01 1.248756e+03 
2.532200e-01 1.240672e+03 
2.543700e-01 1.233378e+03 
2.555500e-01 1.225977e+03 
2.568000e-01 1.218227e+03 
2.580100e-01 1.210813e+03 
2.592400e-01 1.203337e+03 
2.604100e-01 1.196295e+03 
2.616100e-01 1.189152e+03 
2.628400e-01 1.181913e+03 
2.640600e-01 1.174772e+03 
2.652200e-01 1.168040e+03 
2.664300e-01 1.161094e+03 
2.676500e-01 1.154169e+03 
2.688400e-01 1.147449e+03 
2.700700e-01 1.140555e+03 
2.712400e-01 1.134068e+03 
2.724800e-01 1.127268e+03 
2.736700e-01 1.120778e+03 
2.748800e-01 1.114214e+03 
2.761000e-01 1.107666e+03 
2.773200e-01 1.101190e+03 
2.785400e-01 1.094767e+03 
2.797000e-01 1.088689e+03 
2.808900e-01 1.082519e+03 
2.821400e-01 1.076106e+03 
2.833900e-01 1.069761e+03 
2.845500e-01 1.063895e+03 
2.857800e-01 1.057739e+03 
2.870300e-01 1.051549e+03 
2.882100e-01 1.045766e+03 
2.893900e-01 1.040025e+03 
2.906300e-01 1.034043e+03 
2.918900e-01 1.028030e+03 
2.930500e-01 1.022550e+03 
2.942500e-01 1.016932e+03 
2.954200e-01 1.011493e+03 
2.966500e-01 1.005831e+03 
2.978900e-01 1.000182e+03 
2.990400e-01 9.949943e+02 
3.002700e-01 9.894935e+02 
3.015100e-01 9.840008e+02 
3.026800e-01 9.788689e+02 
3.038500e-01 9.737856e+02 
3.050300e-01 9.687073e+02 
3.062600e-01 9.634605e+02 
3.075000e-01 9.582233e+02 
3.087000e-01 9.532043e+02 
3.099100e-01 9.481918e+02 
3.111200e-01 9.432284e+02 
3.123100e-01 9.383952e+02 
3.135300e-01 9.334870e+02 
3.147300e-01 9.287048e+02 
3.159900e-01 9.237315e+02 
3.171800e-01 9.190821e+02 
3.183700e-01 9.144774e+02 
3.196300e-01 9.096477e+02 
3.208400e-01 9.050535e+02 
3.220300e-01 9.005766e+02 
3.232000e-01 8.962250e+02 
3.244300e-01 8.916959e+02 
3.256700e-01 8.871725e+02 
3.269200e-01 8.826552e+02 
3.280800e-01 8.785011e+02 
3.292500e-01 8.743581e+02 
3.304800e-01 8.700448e+02 
3.317100e-01 8.657708e+02 
3.328900e-01 8.617070e+02 
3.340700e-01 8.576784e+02 
3.353600e-01 8.533287e+02 
3.365300e-01 8.494245e+02 
3.377100e-01 8.455205e+02 
3.389200e-01 8.415520e+02 
3.401600e-01 8.375210e+02 
3.413700e-01 8.336328e+02 
3.425300e-01 8.299443e+02 
3.437700e-01 8.260353e+02 
3.449800e-01 8.222540e+02 
3.461800e-01 8.185360e+02 
3.473600e-01 8.149173e+02 
3.485800e-01 8.112235e+02 
3.498100e-01 8.075314e+02 
3.510200e-01 8.039303e+02 
3.522000e-01 8.004477e+02 
3.533900e-01 7.969644e+02 
3.546400e-01 7.933560e+02 
3.558400e-01 7.899223e+02 
3.570600e-01 7.864604e+02 
3.582700e-01 7.830553e+02 
3.595000e-01 7.796228e+02 
3.607100e-01 7.762844e+02 
3.618900e-01 7.730632e+02 
3.631200e-01 7.697327e+02 
3.643200e-01 7.665101e+02 
3.655500e-01 7.632338e+02 
3.667300e-01 7.601160e+02 
3.679500e-01 7.569397e+02 
3.691900e-01 7.537377e+02 
3.703600e-01 7.507405e+02 
3.715700e-01 7.476652e+02 
3.727700e-01 7.446394e+02 
3.739900e-01 7.415927e+02 
3.752000e-01 7.386042e+02 
3.763900e-01 7.356881e+02 
3.775800e-01 7.327944e+02 
3.788200e-01 7.298029e+02 
3.800300e-01 7.269067e+02 
3.812100e-01 7.241040e+02 
3.824200e-01 7.212521e+02 
3.836100e-01 7.184687e+02 
3.848600e-01 7.155677e+02 
3.860400e-01 7.128503e+02 
3.872400e-01 7.101076e+02 
3.884600e-01 7.073599e+02 
3.896500e-01 7.047074e+02 
3.908700e-01 7.020085e+02 
3.920600e-01 6.993958e+02 
3.933100e-01 6.966721e+02 
3.945300e-01 6.940343e+02 
3.957200e-01 6.914811e+02 
3.969300e-01 6.889044e+02 
3.981700e-01 6.862837e+02 
3.993500e-01 6.838083e+02 
4.094840e-01 6.632407e+02 
4.272360e-01 6.302525e+02 
4.454600e-01 5.995984e+02 
4.630560e-01 5.726505e+02 
4.804610e-01 5.481996e+02 
4.980690e-01 5.254567e+02 
5.159230e-01 5.041891e+02 
5.317440e-01 4.867320e+02 
5.489640e-01 4.690163e+02 
5.671990e-01 4.516171e+02 
5.838690e-01 4.368369e+02 
6.018840e-01 4.219766e+02 
6.202330e-01 4.079231e+02 
6.379250e-01 3.952503e+02 
6.545410e-01 3.841250e+02 
6.714560e-01 3.734720e+02 
6.892080e-01 3.629679e+02 
7.066010e-01 3.532593e+02 
7.240540e-01 3.440736e+02 
7.420450e-01 3.351699e+02 
7.593780e-01 3.270077e+02 
7.764720e-01 3.193727e+02 
7.942840e-01 3.118212e+02 
8.116170e-01 3.047886e+02 
8.288310e-01 2.981400e+02 
8.462240e-01 2.916904e+02 
8.631980e-01 2.856602e+02 
8.810700e-01 2.795740e+02 
8.989410e-01 2.737398e+02 
9.166330e-01 2.681749e+02 
9.345640e-01 2.627253e+02 
9.515980e-01 2.577311e+02 
9.688720e-01 2.528463e+02 
9.865640e-01 2.480012e+02 
1.031870e+00 2.362786e+02 
1.063490e+00 2.286153e+02 
1.097920e+00 2.207288e+02 
1.134370e+00 2.128278e+02 
1.167730e+00 2.059564e+02 
1.203830e+00 1.988974e+02 
1.240470e+00 1.921042e+02 
1.275790e+00 1.858445e+02 
1.309140e+00 1.802264e+02 
1.342970e+00 1.747386e+02 
1.378420e+00 1.692740e+02 
1.413200e+00 1.641329e+02 
1.448110e+00 1.591856e+02 
1.484090e+00 1.543206e+02 
1.518820e+00 1.498082e+02 
1.552880e+00 1.455574e+02 
1.588630e+00 1.412771e+02 
1.623230e+00 1.373100e+02 
1.657720e+00 1.335062e+02 
1.692450e+00 1.298491e+02 
1.726400e+00 1.263744e+02 
1.762200e+00 1.228480e+02 
1.797880e+00 1.194797e+02 
1.833270e+00 1.162602e+02 
1.869070e+00 1.131294e+02 
1.903200e+00 1.102574e+02 
1.937740e+00 1.074512e+02 
1.973190e+00 1.046711e+02 
2.007440e+00 1.020809e+02 
2.042160e+00 9.955043e+01 
2.077900e+00 9.702640e+01 
2.112390e+00 9.468983e+01 
2.146220e+00 9.245147e+01 
2.181600e+00 9.020291e+01 
2.216930e+00 8.803391e+01 
2.250760e+00 8.601779e+01 
2.286500e+00 8.395484e+01 
2.321770e+00 8.199247e+01 
2.355950e+00 8.015665e+01 
2.391280e+00 7.830755e+01 
2.426240e+00 7.653810e+01 
2.460670e+00 7.484861e+01 
2.495640e+00 7.318250e+01 
2.531080e+00 7.155486e+01 
2.566220e+00 6.998349e+01 
2.600830e+00 6.848318e+01 
2.635080e+00 6.704580e+01 
2.670340e+00 6.559963e+01 
2.705970e+00 6.418849e+01 
2.740040e+00 6.288134e+01 
2.774520e+00 6.159036e+01 
2.809730e+00 6.031144e+01 
2.844390e+00 5.908948e+01 
2.879960e+00 5.786919e+01 
2.914860e+00 5.670453e+01 
2.949410e+00 5.558439e+01 
2.984440e+00 5.448047e+01 
3.019760e+00 5.339810e+01 
3.054730e+00 5.235642e+01 
3.089030e+00 5.135849e+01 
3.124060e+00 5.036833e+01 
3.159560e+00 4.939351e+01 
3.194710e+00 4.845152e+01 
3.229010e+00 4.755647e+01 
3.263320e+00 4.668296e+01 
3.297930e+00 4.582535e+01 
3.332830e+00 4.498317e+01 
3.368040e+00 4.415459e+01 
3.403300e+00 4.334582e+01 
3.438450e+00 4.255848e+01 
3.473060e+00 4.180298e+01 
3.508440e+00 4.105305e+01 
3.543110e+00 4.033644e+01 
3.577470e+00 3.963965e+01 
3.613040e+00 3.893716e+01 
3.648120e+00 3.826338e+01 
3.682910e+00 3.761044e+01 
3.718050e+00 3.696459e+01 
3.753320e+00 3.633287e+01 
3.787980e+00 3.572792e+01 
3.822290e+00 3.514291e+01 
3.857020e+00 3.456407e+01 
3.891920e+00 3.399521e+01 
3.926650e+00 3.344068e+01 
3.961970e+00 3.289012e+01 
3.997360e+00 3.235183e+01 
4.031670e+00 3.184194e+01 
4.066330e+00 3.133837e+01 
4.101420e+00 3.084010e+01 
4.136200e+00 3.035750e+01 
4.170810e+00 2.988792e+01 
4.206250e+00 2.941756e+01 
4.241580e+00 2.895907e+01 
4.276300e+00 2.851799e+01 
4.310970e+00 2.808683e+01 
4.346120e+00 2.765934e+01 
4.380600e+00 2.724935e+01 
4.414730e+00 2.685194e+01 
4.450350e+00 2.644533e+01 
4.485320e+00 2.605457e+01 
4.519810e+00 2.567762e+01 
4.555430e+00 2.529658e+01 
4.590870e+00 2.492555e+01 
4.625480e+00 2.457098e+01 
4.659910e+00 2.422528e+01 
4.695230e+00 2.387758e+01 
4.729960e+00 2.354248e+01 
4.764450e+00 2.321614e+01 
4.799530e+00 2.289062e+01 
4.834910e+00 2.256877e+01 
4.869700e+00 2.225972e+01 
4.904370e+00 2.195784e+01 
4.939450e+00 2.165819e+01 
4.973940e+00 2.136910e+01 
5.008430e+00 2.108539e+01 
5.043810e+00 2.079982e+01 
5.078840e+00 2.052238e+01 
5.113500e+00 2.025294e+01 
5.148890e+00 1.998416e+01 
5.184210e+00 1.972092e+01 
5.219060e+00 1.946576e+01 
5.253660e+00 1.921655e+01 
5.288570e+00 1.896959e+01 
5.323420e+00 1.872806e+01 
5.358440e+00 1.849035e+01 
5.393590e+00 1.825596e+01 
5.428310e+00 1.802854e+01 
5.462800e+00 1.780654e+01 
5.497640e+00 1.758613e+01 
5.532670e+00 1.736925e+01 
5.567280e+00 1.715891e+01 
5.602000e+00 1.695145e+01 
5.637270e+00 1.674388e+01 
5.672410e+00 1.654048e+01 
5.707020e+00 1.634348e+01 
5.742040e+00 1.614840e+01 
5.777430e+00 1.595474e+01 
5.812210e+00 1.576754e+01 
5.846820e+00 1.558430e+01 
5.881610e+00 1.540308e+01 
5.916510e+00 1.522420e+01 
5.951600e+00 1.504771e+01 
5.986560e+00 1.487489e+01 
6.021830e+00 1.470332e+01 
6.056490e+00 1.453764e+01 
6.091160e+00 1.437473e+01 
6.125830e+00 1.421433e+01 
6.161090e+00 1.405377e+01 
6.195760e+00 1.389838e+01 
6.230420e+00 1.374541e+01 
6.265690e+00 1.359214e+01 
6.300950e+00 1.344185e+01 
6.335620e+00 1.329632e+01 
6.370880e+00 1.315052e+01 
6.405550e+00 1.300959e+01 
6.440220e+00 1.287085e+01 
6.475480e+00 1.273183e+01 
6.510150e+00 1.259731e+01 
6.544810e+00 1.246514e+01 
6.580080e+00 1.233260e+01 
6.614750e+00 1.220420e+01 
6.649410e+00 1.207776e+01 
6.684080e+00 1.195310e+01 
6.719340e+00 1.182813e+01 
6.754010e+00 1.170712e+01 
6.788680e+00 1.158810e+01 
6.823940e+00 1.146875e+01 
6.859800e+00 1.134910e+01 
6.894470e+00 1.123532e+01 
6.929140e+00 1.112321e+01 
6.963800e+00 1.101266e+01 
6.999070e+00 1.090172e+01 
7.033730e+00 1.079431e+01 
7.068400e+00 1.068832e+01 
7.103660e+00 1.058198e+01 
7.138330e+00 1.047903e+01 
7.173600e+00 1.037612e+01 
7.208260e+00 1.027634e+01 
7.243530e+00 1.017615e+01 
7.277600e+00 1.008056e+01 
7.312860e+00 9.982852e+00 
7.348120e+00 9.886434e+00 
7.382790e+00 9.792867e+00 
7.417460e+00 9.700867e+00 
7.452720e+00 9.608697e+00 
7.487390e+00 9.519235e+00 
7.522650e+00 9.429416e+00 
7.557320e+00 9.342304e+00 
7.591990e+00 9.256316e+00 
7.627250e+00 9.169972e+00 
7.662510e+00 9.084724e+00 
7.697180e+00 9.002160e+00 
7.731850e+00 8.920698e+00 
7.766510e+00 8.840262e+00 
7.801180e+00 8.760791e+00 
7.836440e+00 8.681004e+00 
7.871110e+00 8.603540e+00 
7.906380e+00 8.525700e+00 
7.941040e+00 8.450137e+00 
7.976310e+00 8.374298e+00 
8.011570e+00 8.299546e+00 
8.046240e+00 8.226929e+00 
8.080900e+00 8.155195e+00 
8.115570e+00 8.084330e+00 
8.150830e+00 8.013275e+00 
8.185500e+00 7.944234e+00 
8.220770e+00 7.874827e+00 
8.255430e+00 7.807421e+00 
8.290100e+00 7.740896e+00 
8.324770e+00 7.675153e+00 
8.359430e+00 7.610186e+00 
8.394700e+00 7.544839e+00 
8.429960e+00 7.480355e+00 
8.464630e+00 7.417765e+00 
8.499890e+00 7.354837e+00 
8.534560e+00 7.293665e+00 
8.569200e+00 7.233234e+00 
