# Parameters:
# omega_b = 0.021887, omega_m = 0.143710, n_s = 0.998387, h = 71.451613, w = -1.000000, sigma_8 = 0.767419
# z = 0.650000
#
# k[1/Mpc] # P(k):
8.694000e-04 5.465278e+03 
2.077466e-03 1.204381e+04 
3.285532e-03 1.735626e+04 
4.493598e-03 2.155516e+04 
5.701664e-03 2.476914e+04 
6.909730e-03 2.713380e+04 
8.117797e-03 2.881708e+04 
9.325863e-03 2.990677e+04 
1.053393e-02 3.049446e+04 
1.174199e-02 3.066857e+04 
1.295006e-02 3.048431e+04 
1.415813e-02 3.001892e+04 
1.536619e-02 2.933821e+04 
1.657426e-02 2.848594e+04 
1.778233e-02 2.748627e+04 
1.899039e-02 2.637895e+04 
2.019846e-02 2.522839e+04 
2.140652e-02 2.409837e+04 
2.261459e-02 2.300050e+04 
2.382266e-02 2.194895e+04 
2.503072e-02 2.095804e+04 
2.623879e-02 2.003484e+04 
2.744685e-02 1.918212e+04 
2.865492e-02 1.840404e+04 
2.986299e-02 1.769841e+04 
3.100100e-02 1.710001e+04 
3.220400e-02 1.653220e+04 
3.288100e-02 1.624203e+04 
3.424300e-02 1.571445e+04 
3.555100e-02 1.526921e+04 
3.686000e-02 1.487680e+04 
3.795000e-02 1.458304e+04 
3.929100e-02 1.425783e+04 
4.039800e-02 1.401005e+04 
4.164000e-02 1.374740e+04 
4.294400e-02 1.347928e+04 
4.415000e-02 1.323494e+04 
4.542900e-02 1.296734e+04 
4.660900e-02 1.271553e+04 
4.782300e-02 1.243684e+04 
4.892900e-02 1.217332e+04 
5.031200e-02 1.182584e+04 
5.155900e-02 1.149387e+04 
5.238100e-02 1.126770e+04 
5.378200e-02 1.087213e+04 
5.513400e-02 1.047983e+04 
5.627600e-02 1.014478e+04 
5.735300e-02 9.830096e+03 
5.870100e-02 9.442268e+03 
5.988700e-02 9.111328e+03 
6.113500e-02 8.776297e+03 
6.225900e-02 8.488810e+03 
6.340100e-02 8.212950e+03 
6.480200e-02 7.897463e+03 
6.601100e-02 7.648364e+03 
6.725500e-02 7.414218e+03 
6.829100e-02 7.238027e+03 
6.958600e-02 7.037176e+03 
7.071100e-02 6.881563e+03 
7.192300e-02 6.730872e+03 
7.307400e-02 6.602691e+03 
7.412300e-02 6.497088e+03 
7.550400e-02 6.373334e+03 
7.663100e-02 6.281590e+03 
7.791200e-02 6.187564e+03 
7.912700e-02 6.104865e+03 
8.027600e-02 6.030245e+03 
8.138400e-02 5.960258e+03 
8.272200e-02 5.876714e+03 
8.406100e-02 5.792567e+03 
8.534100e-02 5.709037e+03 
8.653800e-02 5.627096e+03 
8.759800e-02 5.552213e+03 
8.900300e-02 5.448665e+03 
9.009000e-02 5.364498e+03 
9.113300e-02 5.279908e+03 
9.239600e-02 5.175338e+03 
9.358000e-02 5.074181e+03 
9.496100e-02 4.952067e+03 
9.608400e-02 4.852032e+03 
9.727500e-02 4.746150e+03 
9.852600e-02 4.633203e+03 
9.973800e-02 4.525965e+03 
1.009000e-01 4.425259e+03 
1.020900e-01 4.324619e+03 
1.034000e-01 4.218041e+03 
1.046000e-01 4.124297e+03 
1.057200e-01 4.042094e+03 
1.069100e-01 3.958532e+03 
1.082500e-01 3.871505e+03 
1.093900e-01 3.802813e+03 
1.105400e-01 3.737192e+03 
1.116900e-01 3.678186e+03 
1.129600e-01 3.616486e+03 
1.142000e-01 3.562344e+03 
1.153300e-01 3.515957e+03 
1.166400e-01 3.466199e+03 
1.177800e-01 3.425989e+03 
1.190000e-01 3.384932e+03 
1.201200e-01 3.349318e+03 
1.213400e-01 3.311653e+03 
1.227100e-01 3.270441e+03 
1.238900e-01 3.235579e+03 
1.250700e-01 3.200555e+03 
1.263200e-01 3.163644e+03 
1.275500e-01 3.126663e+03 
1.287500e-01 3.090363e+03 
1.299900e-01 3.052043e+03 
1.311300e-01 3.016418e+03 
1.323500e-01 2.977352e+03 
1.335900e-01 2.937334e+03 
1.347100e-01 2.900373e+03 
1.359800e-01 2.858496e+03 
1.372100e-01 2.817090e+03 
1.384300e-01 2.776375e+03 
1.395700e-01 2.737793e+03 
1.407700e-01 2.697936e+03 
1.420300e-01 2.655847e+03 
1.432800e-01 2.615046e+03 
1.444500e-01 2.577289e+03 
1.456300e-01 2.540015e+03 
1.468900e-01 2.501548e+03 
1.480500e-01 2.467028e+03 
1.491700e-01 2.434887e+03 
1.503800e-01 2.401528e+03 
1.516400e-01 2.367845e+03 
1.528200e-01 2.338364e+03 
1.540200e-01 2.308971e+03 
1.551900e-01 2.282332e+03 
1.564300e-01 2.254999e+03 
1.576600e-01 2.229149e+03 
1.588700e-01 2.205083e+03 
1.600900e-01 2.181334e+03 
1.612700e-01 2.159880e+03 
1.625400e-01 2.137219e+03 
1.637600e-01 2.116159e+03 
1.649500e-01 2.096162e+03 
1.662200e-01 2.075191e+03 
1.674000e-01 2.055956e+03 
1.685000e-01 2.038323e+03 
1.697500e-01 2.018295e+03 
1.710300e-01 1.997827e+03 
1.722200e-01 1.979134e+03 
1.734400e-01 1.959369e+03 
1.746400e-01 1.940224e+03 
1.758700e-01 1.920623e+03 
1.770900e-01 1.900878e+03 
1.782700e-01 1.882102e+03 
1.794600e-01 1.863017e+03 
1.807000e-01 1.843155e+03 
1.819100e-01 1.824103e+03 
1.830100e-01 1.806685e+03 
1.842200e-01 1.787765e+03 
1.855000e-01 1.768085e+03 
1.867000e-01 1.749818e+03 
1.879200e-01 1.731550e+03 
1.890900e-01 1.714337e+03 
1.902800e-01 1.697237e+03 
1.915200e-01 1.679706e+03 
1.926900e-01 1.663502e+03 
1.939000e-01 1.647251e+03 
1.951700e-01 1.630468e+03 
1.963100e-01 1.615743e+03 
1.975100e-01 1.600759e+03 
1.987800e-01 1.585148e+03 
2.000100e-01 1.570376e+03 
2.012500e-01 1.555971e+03 
2.023400e-01 1.543490e+03 
2.036100e-01 1.529220e+03 
2.048900e-01 1.515299e+03 
2.060400e-01 1.502975e+03 
2.072200e-01 1.490520e+03 
2.084200e-01 1.478194e+03 
2.096900e-01 1.465339e+03 
2.109200e-01 1.453072e+03 
2.121100e-01 1.441429e+03 
2.132700e-01 1.430236e+03 
2.145200e-01 1.418343e+03 
2.157200e-01 1.407104e+03 
2.168800e-01 1.396393e+03 
2.180700e-01 1.385552e+03 
2.193400e-01 1.374136e+03 
2.206000e-01 1.362958e+03 
2.217500e-01 1.352892e+03 
2.229500e-01 1.342527e+03 
2.241400e-01 1.332395e+03 
2.253500e-01 1.322229e+03 
2.264900e-01 1.312774e+03 
2.277100e-01 1.302806e+03 
2.289900e-01 1.292513e+03 
2.301500e-01 1.283307e+03 
2.313600e-01 1.273826e+03 
2.325600e-01 1.264627e+03 
2.337700e-01 1.255470e+03 
2.350000e-01 1.246280e+03 
2.362000e-01 1.237474e+03 
2.374100e-01 1.228761e+03 
2.386500e-01 1.219945e+03 
2.399100e-01 1.211101e+03 
2.410400e-01 1.203363e+03 
2.422500e-01 1.195189e+03 
2.435000e-01 1.186849e+03 
2.447300e-01 1.178760e+03 
2.458700e-01 1.171414e+03 
2.470600e-01 1.163834e+03 
2.483300e-01 1.155843e+03 
2.495600e-01 1.148220e+03 
2.507600e-01 1.140901e+03 
2.519600e-01 1.133666e+03 
2.532200e-01 1.126161e+03 
2.543700e-01 1.119392e+03 
2.555500e-01 1.112526e+03 
2.568000e-01 1.105337e+03 
2.580100e-01 1.098460e+03 
2.592400e-01 1.091528e+03 
2.604100e-01 1.085000e+03 
2.616100e-01 1.078379e+03 
2.628400e-01 1.071670e+03 
2.640600e-01 1.065054e+03 
2.652200e-01 1.058819e+03 
2.664300e-01 1.052386e+03 
2.676500e-01 1.045972e+03 
2.688400e-01 1.039751e+03 
2.700700e-01 1.033369e+03 
2.712400e-01 1.027366e+03 
2.724800e-01 1.021072e+03 
2.736700e-01 1.015068e+03 
2.748800e-01 1.008998e+03 
2.761000e-01 1.002944e+03 
2.773200e-01 9.969558e+02 
2.785400e-01 9.910177e+02 
2.797000e-01 9.854008e+02 
2.808900e-01 9.796980e+02 
2.821400e-01 9.737714e+02 
2.833900e-01 9.679075e+02 
2.845500e-01 9.624876e+02 
2.857800e-01 9.567999e+02 
2.870300e-01 9.510811e+02 
2.882100e-01 9.457387e+02 
2.893900e-01 9.404375e+02 
2.906300e-01 9.349173e+02 
2.918900e-01 9.293672e+02 
2.930500e-01 9.243096e+02 
2.942500e-01 9.191245e+02 
2.954200e-01 9.141037e+02 
2.966500e-01 9.088780e+02 
2.978900e-01 9.036636e+02 
2.990400e-01 8.988754e+02 
3.002700e-01 8.937992e+02 
3.015100e-01 8.887310e+02 
3.026800e-01 8.839959e+02 
3.038500e-01 8.793058e+02 
3.050300e-01 8.746203e+02 
3.062600e-01 8.697804e+02 
3.075000e-01 8.649494e+02 
3.087000e-01 8.603197e+02 
3.099100e-01 8.556962e+02 
3.111200e-01 8.511183e+02 
3.123100e-01 8.466608e+02 
3.135300e-01 8.421341e+02 
3.147300e-01 8.377239e+02 
3.159900e-01 8.331376e+02 
3.171800e-01 8.288493e+02 
3.183700e-01 8.246019e+02 
3.196300e-01 8.201471e+02 
3.208400e-01 8.159096e+02 
3.220300e-01 8.117804e+02 
3.232000e-01 8.077672e+02 
3.244300e-01 8.035906e+02 
3.256700e-01 7.994193e+02 
3.269200e-01 7.952538e+02 
3.280800e-01 7.914231e+02 
3.292500e-01 7.876031e+02 
3.304800e-01 7.836262e+02 
3.317100e-01 7.796856e+02 
3.328900e-01 7.759388e+02 
3.340700e-01 7.722246e+02 
3.353600e-01 7.682145e+02 
3.365300e-01 7.646153e+02 
3.377100e-01 7.610164e+02 
3.389200e-01 7.573580e+02 
3.401600e-01 7.536420e+02 
3.413700e-01 7.500581e+02 
3.425300e-01 7.466586e+02 
3.437700e-01 7.430559e+02 
3.449800e-01 7.395709e+02 
3.461800e-01 7.361444e+02 
3.473600e-01 7.328099e+02 
3.485800e-01 7.294078e+02 
3.498100e-01 7.260072e+02 
3.510200e-01 7.226906e+02 
3.522000e-01 7.194830e+02 
3.533900e-01 7.162750e+02 
3.546400e-01 7.129512e+02 
3.558400e-01 7.097884e+02 
3.570600e-01 7.065995e+02 
3.582700e-01 7.034632e+02 
3.595000e-01 7.003015e+02 
3.607100e-01 6.972272e+02 
3.618900e-01 6.942613e+02 
3.631200e-01 6.911948e+02 
3.643200e-01 6.882276e+02 
3.655500e-01 6.852111e+02 
3.667300e-01 6.823405e+02 
3.679500e-01 6.794125e+02 
3.691900e-01 6.764608e+02 
3.703600e-01 6.736979e+02 
3.715700e-01 6.708631e+02 
3.727700e-01 6.680739e+02 
3.739900e-01 6.652674e+02 
3.752000e-01 6.625181e+02 
3.763900e-01 6.598353e+02 
3.775800e-01 6.571733e+02 
3.788200e-01 6.544212e+02 
3.800300e-01 6.517569e+02 
3.812100e-01 6.491831e+02 
3.824200e-01 6.465672e+02 
3.836100e-01 6.440141e+02 
3.848600e-01 6.413532e+02 
3.860400e-01 6.388607e+02 
3.872400e-01 6.363449e+02 
3.884600e-01 6.338182e+02 
3.896500e-01 6.313766e+02 
3.908700e-01 6.288923e+02 
3.920600e-01 6.264874e+02 
3.933100e-01 6.239804e+02 
3.945300e-01 6.215523e+02 
3.957200e-01 6.192072e+02 
3.969300e-01 6.168421e+02 
3.981700e-01 6.144365e+02 
3.993500e-01 6.121643e+02 
4.094840e-01 5.933110e+02 
4.272360e-01 5.630563e+02 
4.454600e-01 5.349991e+02 
4.630560e-01 5.103815e+02 
4.804610e-01 4.880849e+02 
4.980690e-01 4.673524e+02 
5.159230e-01 4.479893e+02 
5.317440e-01 4.320871e+02 
5.489640e-01 4.159894e+02 
5.671990e-01 4.002097e+02 
5.838690e-01 3.868030e+02 
6.018840e-01 3.733279e+02 
6.202330e-01 3.605928e+02 
6.379250e-01 3.491366e+02 
6.545410e-01 3.390896e+02 
6.714560e-01 3.294725e+02 
6.892080e-01 3.200137e+02 
7.066010e-01 3.112997e+02 
7.240540e-01 3.030534e+02 
7.420450e-01 2.950571e+02 
7.593780e-01 2.877678e+02 
7.764720e-01 2.809469e+02 
7.942840e-01 2.742038e+02 
8.116170e-01 2.679578e+02 
8.288310e-01 2.620468e+02 
8.462240e-01 2.563366e+02 
8.631980e-01 2.510014e+02 
8.810700e-01 2.456199e+02 
8.989410e-01 2.404632e+02 
9.166330e-01 2.355574e+02 
9.345640e-01 2.307719e+02 
9.515980e-01 2.263881e+02 
9.688720e-01 2.220976e+02 
9.865640e-01 2.178494e+02 
1.031870e+00 2.076004e+02 
1.063490e+00 2.009004e+02 
1.097920e+00 1.940416e+02 
1.134370e+00 1.871463e+02 
1.167730e+00 1.811792e+02 
1.203830e+00 1.750389e+02 
1.240470e+00 1.691418e+02 
1.275790e+00 1.637076e+02 
1.309140e+00 1.588310e+02 
1.342970e+00 1.540676e+02 
1.378420e+00 1.493220e+02 
1.413200e+00 1.448632e+02 
1.448110e+00 1.405632e+02 
1.484090e+00 1.363397e+02 
1.518820e+00 1.324121e+02 
1.552880e+00 1.287256e+02 
1.588630e+00 1.249981e+02 
1.623230e+00 1.215474e+02 
1.657720e+00 1.182364e+02 
1.692450e+00 1.150516e+02 
1.726400e+00 1.120228e+02 
1.762200e+00 1.089486e+02 
1.797880e+00 1.060136e+02 
1.833270e+00 1.031986e+02 
1.869070e+00 1.004680e+02 
1.903200e+00 9.795682e+01 
1.937740e+00 9.550186e+01 
1.973190e+00 9.306815e+01 
2.007440e+00 9.080130e+01 
2.042160e+00 8.858895e+01 
2.077900e+00 8.637576e+01 
2.112390e+00 8.432609e+01 
2.146220e+00 8.236129e+01 
2.181600e+00 8.038660e+01 
2.216930e+00 7.848095e+01 
2.250760e+00 7.670608e+01 
2.286500e+00 7.488874e+01 
2.321770e+00 7.316316e+01 
2.355950e+00 7.155194e+01 
2.391280e+00 6.992391e+01 
2.426240e+00 6.836226e+01 
2.460670e+00 6.687087e+01 
2.495640e+00 6.540201e+01 
2.531080e+00 6.396644e+01 
2.566220e+00 6.257714e+01 
2.600830e+00 6.125087e+01 
2.635080e+00 5.998178e+01 
2.670340e+00 5.870099e+01 
2.705970e+00 5.745097e+01 
2.740040e+00 5.629336e+01 
2.774520e+00 5.515196e+01 
2.809730e+00 5.401880e+01 
2.844390e+00 5.293508e+01 
2.879960e+00 5.185249e+01 
2.914860e+00 5.081894e+01 
2.949410e+00 4.982421e+01 
2.984440e+00 4.884169e+01 
3.019760e+00 4.788114e+01 
3.054730e+00 4.695799e+01 
3.089030e+00 4.606910e+01 
3.124060e+00 4.518786e+01 
3.159560e+00 4.432137e+01 
3.194710e+00 4.348076e+01 
3.229010e+00 4.268129e+01 
3.263320e+00 4.190439e+01 
3.297930e+00 4.114093e+01 
3.332830e+00 4.038982e+01 
3.368040e+00 3.965074e+01 
3.403300e+00 3.892923e+01 
3.438450e+00 3.822668e+01 
3.473060e+00 3.755248e+01 
3.508440e+00 3.688314e+01 
3.543110e+00 3.624326e+01 
3.577470e+00 3.561970e+01 
3.613040e+00 3.499100e+01 
3.648120e+00 3.438795e+01 
3.682910e+00 3.380395e+01 
3.718050e+00 3.322707e+01 
3.753320e+00 3.266175e+01 
3.787980e+00 3.211884e+01 
3.822290e+00 3.159473e+01 
3.857020e+00 3.107753e+01 
3.891920e+00 3.056840e+01 
3.926650e+00 3.007060e+01 
3.961970e+00 2.957666e+01 
3.997360e+00 2.909446e+01 
4.031670e+00 2.863749e+01 
4.066330e+00 2.818533e+01 
4.101420e+00 2.773795e+01 
4.136200e+00 2.730547e+01 
4.170810e+00 2.688463e+01 
4.206250e+00 2.646220e+01 
4.241580e+00 2.605026e+01 
4.276300e+00 2.565418e+01 
4.310970e+00 2.526710e+01 
4.346120e+00 2.488313e+01 
4.380600e+00 2.451455e+01 
4.414730e+00 2.415730e+01 
4.450350e+00 2.379202e+01 
4.485320e+00 2.344098e+01 
4.519810e+00 2.310201e+01 
4.555430e+00 2.275923e+01 
4.590870e+00 2.242534e+01 
4.625480e+00 2.210604e+01 
4.659910e+00 2.179473e+01 
4.695230e+00 2.148186e+01 
4.729960e+00 2.118037e+01 
4.764450e+00 2.088689e+01 
4.799530e+00 2.059434e+01 
4.834910e+00 2.030509e+01 
4.869700e+00 2.002658e+01 
4.904370e+00 1.975440e+01 
4.939450e+00 1.948432e+01 
4.973940e+00 1.922399e+01 
5.008430e+00 1.896850e+01 
5.043810e+00 1.871156e+01 
5.078840e+00 1.846207e+01 
5.113500e+00 1.821976e+01 
5.148890e+00 1.797731e+01 
5.184210e+00 1.773982e+01 
5.219060e+00 1.750984e+01 
5.253660e+00 1.728581e+01 
5.288570e+00 1.706381e+01 
5.323420e+00 1.684639e+01 
5.358440e+00 1.663206e+01 
5.393590e+00 1.642075e+01 
5.428310e+00 1.621590e+01 
5.462800e+00 1.601603e+01 
5.497640e+00 1.581760e+01 
5.532670e+00 1.562195e+01 
5.567280e+00 1.543208e+01 
5.602000e+00 1.524480e+01 
5.637270e+00 1.505797e+01 
5.672410e+00 1.487501e+01 
5.707020e+00 1.469781e+01 
5.742040e+00 1.452196e+01 
5.777430e+00 1.434730e+01 
5.812210e+00 1.417848e+01 
5.846820e+00 1.401341e+01 
5.881610e+00 1.385021e+01 
5.916510e+00 1.368912e+01 
5.951600e+00 1.353014e+01 
5.986560e+00 1.337447e+01 
6.021830e+00 1.321991e+01 
6.056490e+00 1.307062e+01 
6.091160e+00 1.292378e+01 
6.125830e+00 1.277922e+01 
6.161090e+00 1.263457e+01 
6.195760e+00 1.249476e+01 
6.230420e+00 1.235711e+01 
6.265690e+00 1.221920e+01 
6.300950e+00 1.208393e+01 
6.335620e+00 1.195293e+01 
6.370880e+00 1.182170e+01 
6.405550e+00 1.169481e+01 
6.440220e+00 1.156986e+01 
6.475480e+00 1.144467e+01 
6.510150e+00 1.132351e+01 
6.544810e+00 1.120446e+01 
6.580080e+00 1.108506e+01 
6.614750e+00 1.096940e+01 
6.649410e+00 1.085566e+01 
6.684080e+00 1.074355e+01 
6.719340e+00 1.063116e+01 
6.754010e+00 1.052232e+01 
6.788680e+00 1.041523e+01 
6.823940e+00 1.030786e+01 
6.859800e+00 1.020021e+01 
6.894470e+00 1.009782e+01 
6.929140e+00 9.996901e+00 
6.963800e+00 9.897395e+00 
6.999070e+00 9.797549e+00 
7.033730e+00 9.701061e+00 
7.068400e+00 9.605845e+00 
7.103660e+00 9.510320e+00 
7.138330e+00 9.417760e+00 
7.173600e+00 9.325068e+00 
7.208260e+00 9.235195e+00 
7.243530e+00 9.144954e+00 
7.277600e+00 9.059030e+00 
7.312860e+00 8.971359e+00 
7.348120e+00 8.884847e+00 
7.382790e+00 8.800892e+00 
7.417460e+00 8.718209e+00 
7.452720e+00 8.635304e+00 
7.487390e+00 8.554836e+00 
7.522650e+00 8.474046e+00 
7.557320e+00 8.395789e+00 
7.591990e+00 8.318578e+00 
7.627250e+00 8.241046e+00 
7.662510e+00 8.164499e+00 
7.697180e+00 8.090342e+00 
7.731850e+00 8.017167e+00 
7.766510e+00 7.944913e+00 
7.801180e+00 7.873526e+00 
7.836440e+00 7.801920e+00 
7.871110e+00 7.732438e+00 
7.906380e+00 7.662617e+00 
7.941040e+00 7.594840e+00 
7.976310e+00 7.526792e+00 
8.011570e+00 7.459696e+00 
8.046240e+00 7.394516e+00 
8.080900e+00 7.330128e+00 
8.115570e+00 7.266531e+00 
8.150830e+00 7.202808e+00 
8.185500e+00 7.140890e+00 
8.220770e+00 7.078643e+00 
8.255430e+00 7.018190e+00 
8.290100e+00 6.958536e+00 
8.324770e+00 6.899583e+00 
8.359430e+00 6.841324e+00 
8.394700e+00 6.782724e+00 
8.429960e+00 6.724909e+00 
8.464630e+00 6.668802e+00 
8.499890e+00 6.612391e+00 
8.534560e+00 6.557554e+00 
8.569200e+00 6.503380e+00 
