# Parameters:
# omega_b = 0.021887, omega_m = 0.143710, n_s = 0.998387, h = 71.451613, w = -1.000000, sigma_8 = 0.767419
# z = 0.830000
#
# k[1/Mpc] # P(k):
8.694000e-04 4.642846e+03 
2.077466e-03 1.023148e+04 
3.285532e-03 1.474393e+04 
4.493598e-03 1.831120e+04 
5.701664e-03 2.104243e+04 
6.909730e-03 2.305207e+04 
8.117797e-03 2.448319e+04 
9.325863e-03 2.541003e+04 
1.053393e-02 2.591055e+04 
1.174199e-02 2.605954e+04 
1.295006e-02 2.590425e+04 
1.415813e-02 2.551011e+04 
1.536619e-02 2.493288e+04 
1.657426e-02 2.420912e+04 
1.778233e-02 2.335648e+04 
1.899039e-02 2.240983e+04 
2.019846e-02 2.142884e+04 
2.140652e-02 2.046849e+04 
2.261459e-02 1.953650e+04 
2.382266e-02 1.864388e+04 
2.503072e-02 1.780267e+04 
2.623879e-02 1.701872e+04 
2.744685e-02 1.629476e+04 
2.865492e-02 1.563400e+04 
2.986299e-02 1.503489e+04 
3.100100e-02 1.452656e+04 
3.220400e-02 1.404446e+04 
3.288100e-02 1.379804e+04 
3.424300e-02 1.335017e+04 
3.555100e-02 1.297221e+04 
3.686000e-02 1.263934e+04 
3.795000e-02 1.239027e+04 
3.929100e-02 1.211457e+04 
4.039800e-02 1.190473e+04 
4.164000e-02 1.168233e+04 
4.294400e-02 1.145528e+04 
4.415000e-02 1.124839e+04 
4.542900e-02 1.102174e+04 
4.660900e-02 1.080840e+04 
4.782300e-02 1.057191e+04 
4.892900e-02 1.034827e+04 
5.031200e-02 1.005291e+04 
5.155900e-02 9.770466e+03 
5.238100e-02 9.577912e+03 
5.378200e-02 9.240857e+03 
5.513400e-02 8.906283e+03 
5.627600e-02 8.620363e+03 
5.735300e-02 8.351739e+03 
5.870100e-02 8.020543e+03 
5.988700e-02 7.737864e+03 
6.113500e-02 7.451583e+03 
6.225900e-02 7.205920e+03 
6.340100e-02 6.970239e+03 
6.480200e-02 6.700821e+03 
6.601100e-02 6.488132e+03 
6.725500e-02 6.288341e+03 
6.829100e-02 6.138168e+03 
6.958600e-02 5.967036e+03 
7.071100e-02 5.834623e+03 
7.192300e-02 5.706626e+03 
7.307400e-02 5.597904e+03 
7.412300e-02 5.508441e+03 
7.550400e-02 5.403818e+03 
7.663100e-02 5.326386e+03 
7.791200e-02 5.247152e+03 
7.912700e-02 5.177601e+03 
8.027600e-02 5.114862e+03 
8.138400e-02 5.056009e+03 
8.272200e-02 4.985698e+03 
8.406100e-02 4.914752e+03 
8.534100e-02 4.844166e+03 
8.653800e-02 4.774747e+03 
8.759800e-02 4.711195e+03 
8.900300e-02 4.623129e+03 
9.009000e-02 4.551367e+03 
9.113300e-02 4.479092e+03 
9.239600e-02 4.389617e+03 
9.358000e-02 4.302903e+03 
9.496100e-02 4.198072e+03 
9.608400e-02 4.112126e+03 
9.727500e-02 4.021110e+03 
9.852600e-02 3.923865e+03 
9.973800e-02 3.831508e+03 
1.009000e-01 3.744759e+03 
1.020900e-01 3.658021e+03 
1.034000e-01 3.566194e+03 
1.046000e-01 3.485454e+03 
1.057200e-01 3.414678e+03 
1.069100e-01 3.342760e+03 
1.082500e-01 3.267933e+03 
1.093900e-01 3.208963e+03 
1.105400e-01 3.152685e+03 
1.116900e-01 3.102212e+03 
1.129600e-01 3.049490e+03 
1.142000e-01 3.003369e+03 
1.153300e-01 2.963935e+03 
1.166400e-01 2.921760e+03 
1.177800e-01 2.887782e+03 
1.190000e-01 2.853140e+03 
1.201200e-01 2.823180e+03 
1.213400e-01 2.791511e+03 
1.227100e-01 2.756982e+03 
1.238900e-01 2.727772e+03 
1.250700e-01 2.698413e+03 
1.263200e-01 2.667442e+03 
1.275500e-01 2.636345e+03 
1.287500e-01 2.605763e+03 
1.299900e-01 2.573391e+03 
1.311300e-01 2.543214e+03 
1.323500e-01 2.510003e+03 
1.335900e-01 2.475898e+03 
1.347100e-01 2.444290e+03 
1.359800e-01 2.408400e+03 
1.372100e-01 2.372763e+03 
1.384300e-01 2.337674e+03 
1.395700e-01 2.304309e+03 
1.407700e-01 2.269837e+03 
1.420300e-01 2.233320e+03 
1.432800e-01 2.197931e+03 
1.444500e-01 2.165136e+03 
1.456300e-01 2.132769e+03 
1.468900e-01 2.099401e+03 
1.480500e-01 2.069472e+03 
1.491700e-01 2.041648e+03 
1.503800e-01 2.012824e+03 
1.516400e-01 1.983748e+03 
1.528200e-01 1.958407e+03 
1.540200e-01 1.933147e+03 
1.551900e-01 1.910392e+03 
1.564300e-01 1.887083e+03 
1.576600e-01 1.865108e+03 
1.588700e-01 1.844738e+03 
1.600900e-01 1.824641e+03 
1.612700e-01 1.806595e+03 
1.625400e-01 1.787531e+03 
1.637600e-01 1.769841e+03 
1.649500e-01 1.753058e+03 
1.662200e-01 1.735451e+03 
1.674000e-01 1.719271e+03 
1.685000e-01 1.704438e+03 
1.697500e-01 1.687547e+03 
1.710300e-01 1.670244e+03 
1.722200e-01 1.654442e+03 
1.734400e-01 1.637615e+03 
1.746400e-01 1.621310e+03 
1.758700e-01 1.604584e+03 
1.770900e-01 1.587667e+03 
1.782700e-01 1.571582e+03 
1.794600e-01 1.555189e+03 
1.807000e-01 1.538102e+03 
1.819100e-01 1.521712e+03 
1.830100e-01 1.506699e+03 
1.842200e-01 1.490388e+03 
1.855000e-01 1.473424e+03 
1.867000e-01 1.457672e+03 
1.879200e-01 1.441921e+03 
1.890900e-01 1.427086e+03 
1.902800e-01 1.412370e+03 
1.915200e-01 1.397284e+03 
1.926900e-01 1.383354e+03 
1.939000e-01 1.369425e+03 
1.951700e-01 1.355042e+03 
1.963100e-01 1.342433e+03 
1.975100e-01 1.329631e+03 
1.987800e-01 1.316294e+03 
2.000100e-01 1.303691e+03 
2.012500e-01 1.291437e+03 
2.023400e-01 1.280820e+03 
2.036100e-01 1.268686e+03 
2.048900e-01 1.256867e+03 
2.060400e-01 1.246405e+03 
2.072200e-01 1.235832e+03 
2.084200e-01 1.225382e+03 
2.096900e-01 1.214485e+03 
2.109200e-01 1.204086e+03 
2.121100e-01 1.194209e+03 
2.132700e-01 1.184715e+03 
2.145200e-01 1.174628e+03 
2.157200e-01 1.165080e+03 
2.168800e-01 1.155975e+03 
2.180700e-01 1.146760e+03 
2.193400e-01 1.137047e+03 
2.206000e-01 1.127518e+03 
2.217500e-01 1.118938e+03 
2.229500e-01 1.110102e+03 
2.241400e-01 1.101434e+03 
2.253500e-01 1.092736e+03 
2.264900e-01 1.084646e+03 
2.277100e-01 1.076104e+03 
2.289900e-01 1.067265e+03 
2.301500e-01 1.059361e+03 
2.313600e-01 1.051222e+03 
2.325600e-01 1.043296e+03 
2.337700e-01 1.035407e+03 
2.350000e-01 1.027491e+03 
2.362000e-01 1.019899e+03 
2.374100e-01 1.012379e+03 
2.386500e-01 1.004771e+03 
2.399100e-01 9.971409e+02 
2.410400e-01 9.904499e+02 
2.422500e-01 9.833796e+02 
2.435000e-01 9.761669e+02 
2.447300e-01 9.691727e+02 
2.458700e-01 9.628240e+02 
2.470600e-01 9.562741e+02 
2.483300e-01 9.493695e+02 
2.495600e-01 9.427838e+02 
2.507600e-01 9.364613e+02 
2.519600e-01 9.302131e+02 
2.532200e-01 9.237312e+02 
2.543700e-01 9.178951e+02 
2.555500e-01 9.119814e+02 
2.568000e-01 9.057901e+02 
2.580100e-01 8.998674e+02 
2.592400e-01 8.939099e+02 
2.604100e-01 8.883044e+02 
2.616100e-01 8.826194e+02 
2.628400e-01 8.768588e+02 
2.640600e-01 8.711889e+02 
2.652200e-01 8.658490e+02 
2.664300e-01 8.603402e+02 
2.676500e-01 8.548480e+02 
2.688400e-01 8.495292e+02 
2.700700e-01 8.440792e+02 
2.712400e-01 8.389518e+02 
2.724800e-01 8.335770e+02 
2.736700e-01 8.284567e+02 
2.748800e-01 8.232872e+02 
2.761000e-01 8.181317e+02 
2.773200e-01 8.130323e+02 
2.785400e-01 8.079787e+02 
2.797000e-01 8.032042e+02 
2.808900e-01 7.983569e+02 
2.821400e-01 7.933198e+02 
2.833900e-01 7.883364e+02 
2.845500e-01 7.837350e+02 
2.857800e-01 7.789065e+02 
2.870300e-01 7.740519e+02 
2.882100e-01 7.695171e+02 
2.893900e-01 7.650185e+02 
2.906300e-01 7.603347e+02 
2.918900e-01 7.556259e+02 
2.930500e-01 7.513352e+02 
2.942500e-01 7.469372e+02 
2.954200e-01 7.426809e+02 
2.966500e-01 7.382512e+02 
2.978900e-01 7.338313e+02 
2.990400e-01 7.297729e+02 
3.002700e-01 7.254699e+02 
3.015100e-01 7.211736e+02 
3.026800e-01 7.171599e+02 
3.038500e-01 7.131845e+02 
3.050300e-01 7.092134e+02 
3.062600e-01 7.051114e+02 
3.075000e-01 7.010172e+02 
3.087000e-01 6.970939e+02 
3.099100e-01 6.931761e+02 
3.111200e-01 6.892973e+02 
3.123100e-01 6.855210e+02 
3.135300e-01 6.816864e+02 
3.147300e-01 6.779506e+02 
3.159900e-01 6.740659e+02 
3.171800e-01 6.704346e+02 
3.183700e-01 6.668387e+02 
3.196300e-01 6.630674e+02 
3.208400e-01 6.594803e+02 
3.220300e-01 6.559851e+02 
3.232000e-01 6.525871e+02 
3.244300e-01 6.490505e+02 
3.256700e-01 6.455187e+02 
3.269200e-01 6.419919e+02 
3.280800e-01 6.387488e+02 
3.292500e-01 6.355158e+02 
3.304800e-01 6.321503e+02 
3.317100e-01 6.288158e+02 
3.328900e-01 6.256455e+02 
3.340700e-01 6.225028e+02 
3.353600e-01 6.191099e+02 
3.365300e-01 6.160647e+02 
3.377100e-01 6.130199e+02 
3.389200e-01 6.099250e+02 
3.401600e-01 6.067815e+02 
3.413700e-01 6.037520e+02 
3.425300e-01 6.008800e+02 
3.437700e-01 5.978364e+02 
3.449800e-01 5.948925e+02 
3.461800e-01 5.919981e+02 
3.473600e-01 5.891814e+02 
3.485800e-01 5.863072e+02 
3.498100e-01 5.834345e+02 
3.510200e-01 5.806328e+02 
3.522000e-01 5.779234e+02 
3.533900e-01 5.752137e+02 
3.546400e-01 5.724082e+02 
3.558400e-01 5.697388e+02 
3.570600e-01 5.670476e+02 
3.582700e-01 5.644008e+02 
3.595000e-01 5.617327e+02 
3.607100e-01 5.591392e+02 
3.618900e-01 5.566378e+02 
3.631200e-01 5.540518e+02 
3.643200e-01 5.515495e+02 
3.655500e-01 5.490057e+02 
3.667300e-01 5.465851e+02 
3.679500e-01 5.441186e+02 
3.691900e-01 5.416322e+02 
3.703600e-01 5.393050e+02 
3.715700e-01 5.369172e+02 
3.727700e-01 5.345679e+02 
3.739900e-01 5.322047e+02 
3.752000e-01 5.298908e+02 
3.763900e-01 5.276330e+02 
3.775800e-01 5.253927e+02 
3.788200e-01 5.230767e+02 
3.800300e-01 5.208346e+02 
3.812100e-01 5.186709e+02 
3.824200e-01 5.164734e+02 
3.836100e-01 5.143289e+02 
3.848600e-01 5.120937e+02 
3.860400e-01 5.100000e+02 
3.872400e-01 5.078870e+02 
3.884600e-01 5.057645e+02 
3.896500e-01 5.037134e+02 
3.908700e-01 5.016266e+02 
3.920600e-01 4.996064e+02 
3.933100e-01 4.975005e+02 
3.945300e-01 4.954610e+02 
3.957200e-01 4.934944e+02 
3.969300e-01 4.915118e+02 
3.981700e-01 4.894954e+02 
3.993500e-01 4.875908e+02 
4.094840e-01 4.717959e+02 
4.272360e-01 4.464940e+02 
4.454600e-01 4.230926e+02 
4.630560e-01 4.026056e+02 
4.804610e-01 3.840918e+02 
4.980690e-01 3.669077e+02 
5.159230e-01 3.508881e+02 
5.317440e-01 3.377500e+02 
5.489640e-01 3.244792e+02 
5.671990e-01 3.114956e+02 
5.838690e-01 3.004856e+02 
6.018840e-01 2.894379e+02 
6.202330e-01 2.790172e+02 
6.379250e-01 2.696671e+02 
6.545410e-01 2.614900e+02 
6.714560e-01 2.536790e+02 
6.892080e-01 2.460129e+02 
7.066010e-01 2.389772e+02 
7.240540e-01 2.323366e+02 
7.420450e-01 2.259128e+02 
7.593780e-01 2.200801e+02 
7.764720e-01 2.146364e+02 
7.942840e-01 2.092691e+02 
8.116170e-01 2.043194e+02 
8.288310e-01 1.996486e+02 
8.462240e-01 1.951515e+02 
8.631980e-01 1.909627e+02 
8.810700e-01 1.867493e+02 
8.989410e-01 1.827240e+02 
9.166330e-01 1.789067e+02 
9.345640e-01 1.751971e+02 
9.515980e-01 1.718090e+02 
9.688720e-01 1.685003e+02 
9.865640e-01 1.652335e+02 
1.031870e+00 1.573850e+02 
1.063490e+00 1.522861e+02 
1.097920e+00 1.470750e+02 
1.134370e+00 1.418638e+02 
1.167730e+00 1.373689e+02 
1.203830e+00 1.327521e+02 
1.240470e+00 1.283270e+02 
1.275790e+00 1.242632e+02 
1.309140e+00 1.206206e+02 
1.342970e+00 1.170707e+02 
1.378420e+00 1.135343e+02 
1.413200e+00 1.102142e+02 
1.448110e+00 1.070182e+02 
1.484090e+00 1.038777e+02 
1.518820e+00 1.009638e+02 
1.552880e+00 9.822383e+01 
1.588630e+00 9.545751e+01 
1.623230e+00 9.289385e+01 
1.657720e+00 9.043528e+01 
1.692450e+00 8.806269e+01 
1.726400e+00 8.581417e+01 
1.762200e+00 8.353142e+01 
1.797880e+00 8.134735e+01 
1.833270e+00 7.925556e+01 
1.869070e+00 7.722176e+01 
1.903200e+00 7.535062e+01 
1.937740e+00 7.352139e+01 
1.973190e+00 7.170714e+01 
2.007440e+00 7.001569e+01 
2.042160e+00 6.836116e+01 
2.077900e+00 6.670889e+01 
2.112390e+00 6.517368e+01 
2.146220e+00 6.370668e+01 
2.181600e+00 6.222636e+01 
2.216930e+00 6.079678e+01 
2.250760e+00 5.946727e+01 
2.286500e+00 5.810571e+01 
2.321770e+00 5.680888e+01 
2.355950e+00 5.559391e+01 
2.391280e+00 5.436919e+01 
2.426240e+00 5.319355e+01 
2.460670e+00 5.207048e+01 
2.495640e+00 5.096423e+01 
2.531080e+00 4.987777e+01 
2.566220e+00 4.882859e+01 
2.600830e+00 4.782601e+01 
2.635080e+00 4.686443e+01 
2.670340e+00 4.589624e+01 
2.705970e+00 4.494858e+01 
2.740040e+00 4.406938e+01 
2.774520e+00 4.320221e+01 
2.809730e+00 4.234044e+01 
2.844390e+00 4.151574e+01 
2.879960e+00 4.069147e+01 
2.914860e+00 3.990408e+01 
2.949410e+00 3.914580e+01 
2.984440e+00 3.839588e+01 
3.019760e+00 3.766143e+01 
3.054730e+00 3.695483e+01 
3.089030e+00 3.627510e+01 
3.124060e+00 3.560018e+01 
3.159560e+00 3.493511e+01 
3.194710e+00 3.429078e+01 
3.229010e+00 3.367801e+01 
3.263320e+00 3.308069e+01 
3.297930e+00 3.249339e+01 
3.332830e+00 3.191512e+01 
3.368040e+00 3.134579e+01 
3.403300e+00 3.078974e+01 
3.438450e+00 3.024805e+01 
3.473060e+00 2.972808e+01 
3.508440e+00 2.920988e+01 
3.543110e+00 2.871452e+01 
3.577470e+00 2.823260e+01 
3.613040e+00 2.774619e+01 
3.648120e+00 2.727830e+01 
3.682910e+00 2.682514e+01 
3.718050e+00 2.637751e+01 
3.753320e+00 2.593861e+01 
3.787980e+00 2.551681e+01 
3.822290e+00 2.510908e+01 
3.857020e+00 2.470598e+01 
3.891920e+00 2.430940e+01 
3.926650e+00 2.392209e+01 
3.961970e+00 2.353744e+01 
3.997360e+00 2.316118e+01 
4.031670e+00 2.280449e+01 
4.066330e+00 2.245128e+01 
4.101420e+00 2.210172e+01 
4.136200e+00 2.176303e+01 
4.170810e+00 2.143340e+01 
4.206250e+00 2.110242e+01 
4.241580e+00 2.077959e+01 
4.276300e+00 2.046896e+01 
4.310970e+00 2.016525e+01 
4.346120e+00 1.986382e+01 
4.380600e+00 1.957427e+01 
4.414730e+00 1.929356e+01 
4.450350e+00 1.900636e+01 
4.485320e+00 1.873031e+01 
4.519810e+00 1.846349e+01 
4.555430e+00 1.819351e+01 
4.590870e+00 1.793044e+01 
4.625480e+00 1.767869e+01 
4.659910e+00 1.743321e+01 
4.695230e+00 1.718630e+01 
4.729960e+00 1.694831e+01 
4.764450e+00 1.671656e+01 
4.799530e+00 1.648543e+01 
4.834910e+00 1.625688e+01 
4.869700e+00 1.603654e+01 
4.904370e+00 1.582115e+01 
4.939450e+00 1.560738e+01 
4.973940e+00 1.540125e+01 
5.008430e+00 1.519893e+01 
5.043810e+00 1.499533e+01 
5.078840e+00 1.479755e+01 
5.113500e+00 1.460546e+01 
5.148890e+00 1.441305e+01 
5.184210e+00 1.422456e+01 
5.219060e+00 1.404201e+01 
5.253660e+00 1.386415e+01 
5.288570e+00 1.368788e+01 
5.323420e+00 1.351514e+01 
5.358440e+00 1.334475e+01 
5.393590e+00 1.317672e+01 
5.428310e+00 1.301381e+01 
5.462800e+00 1.285483e+01 
5.497640e+00 1.269698e+01 
5.532670e+00 1.254118e+01 
5.567280e+00 1.238990e+01 
5.602000e+00 1.224070e+01 
5.637270e+00 1.209189e+01 
5.672410e+00 1.194618e+01 
5.707020e+00 1.180505e+01 
5.742040e+00 1.166482e+01 
5.777430e+00 1.152551e+01 
5.812210e+00 1.139084e+01 
5.846820e+00 1.125916e+01 
5.881610e+00 1.112896e+01 
5.916510e+00 1.100045e+01 
5.951600e+00 1.087354e+01 
5.986560e+00 1.074922e+01 
6.021830e+00 1.062578e+01 
6.056490e+00 1.050654e+01 
6.091160e+00 1.038924e+01 
6.125830e+00 1.027375e+01 
6.161090e+00 1.015820e+01 
6.195760e+00 1.004650e+01 
6.230420e+00 9.936526e+00 
6.265690e+00 9.826334e+00 
6.300950e+00 9.718161e+00 
6.335620e+00 9.613399e+00 
6.370880e+00 9.508451e+00 
6.405550e+00 9.406966e+00 
6.440220e+00 9.307041e+00 
6.475480e+00 9.206916e+00 
6.510150e+00 9.109991e+00 
6.544810e+00 9.014681e+00 
6.580080e+00 8.919102e+00 
6.614750e+00 8.826507e+00 
6.649410e+00 8.735502e+00 
6.684080e+00 8.645809e+00 
6.719340e+00 8.555889e+00 
6.754010e+00 8.468792e+00 
6.788680e+00 8.383066e+00 
6.823940e+00 8.297104e+00 
6.859800e+00 8.210920e+00 
6.894470e+00 8.128939e+00 
6.929140e+00 8.048145e+00 
6.963800e+00 7.968476e+00 
6.999070e+00 7.888530e+00 
7.033730e+00 7.811250e+00 
7.068400e+00 7.734988e+00 
7.103660e+00 7.658474e+00 
7.138330e+00 7.584329e+00 
7.173600e+00 7.510069e+00 
7.208260e+00 7.438064e+00 
7.243530e+00 7.365763e+00 
7.277600e+00 7.296951e+00 
7.312860e+00 7.226768e+00 
7.348120e+00 7.157511e+00 
7.382790e+00 7.090298e+00 
7.417460e+00 7.024077e+00 
7.452720e+00 6.957664e+00 
7.487390e+00 6.893201e+00 
7.522650e+00 6.828478e+00 
7.557320e+00 6.765788e+00 
7.591990e+00 6.703937e+00 
7.627250e+00 6.641827e+00 
7.662510e+00 6.580503e+00 
7.697180e+00 6.521098e+00 
7.731850e+00 6.462480e+00 
7.766510e+00 6.404598e+00 
7.801180e+00 6.347408e+00 
7.836440e+00 6.290077e+00 
7.871110e+00 6.234467e+00 
7.906380e+00 6.178583e+00 
7.941040e+00 6.124332e+00 
7.976310e+00 6.069858e+00 
8.011570e+00 6.016137e+00 
8.046240e+00 5.963948e+00 
8.080900e+00 5.912391e+00 
8.115570e+00 5.861466e+00 
8.150830e+00 5.810437e+00 
8.185500e+00 5.760853e+00 
8.220770e+00 5.711002e+00 
8.255430e+00 5.662587e+00 
8.290100e+00 5.614832e+00 
8.324770e+00 5.567640e+00 
8.359430e+00 5.521001e+00 
8.394700e+00 5.474088e+00 
8.429960e+00 5.427812e+00 
8.464630e+00 5.382912e+00 
8.499890e+00 5.337767e+00 
8.534560e+00 5.293880e+00 
8.569200e+00 5.250522e+00 
