# Parameters:
# omega_b = 0.021887, omega_m = 0.143710, n_s = 0.998387, h = 71.451613, w = -1.000000, sigma_8 = 0.767419
# z = 1.690000
#
# k[1/Mpc] # P(k):
8.694000e-04 2.351674e+03 
2.077466e-03 5.183377e+03 
3.285532e-03 7.468106e+03 
4.493598e-03 9.275188e+03 
5.701664e-03 1.065934e+04 
6.909730e-03 1.167862e+04 
8.117797e-03 1.240520e+04 
9.325863e-03 1.287664e+04 
1.053393e-02 1.313245e+04 
1.174199e-02 1.321026e+04 
1.295006e-02 1.313392e+04 
1.415813e-02 1.293634e+04 
1.536619e-02 1.264588e+04 
1.657426e-02 1.228151e+04 
1.778233e-02 1.186122e+04 
1.899039e-02 1.141217e+04 
2.019846e-02 1.094935e+04 
2.140652e-02 1.048619e+04 
2.261459e-02 1.003017e+04 
2.382266e-02 9.591018e+03 
2.503072e-02 9.176123e+03 
2.623879e-02 8.788813e+03 
2.744685e-02 8.430442e+03 
2.865492e-02 8.103123e+03 
2.986299e-02 7.805972e+03 
3.100100e-02 7.553443e+03 
3.220400e-02 7.313484e+03 
3.288100e-02 7.190480e+03 
3.424300e-02 6.965776e+03 
3.555100e-02 6.774773e+03 
3.686000e-02 6.604605e+03 
3.795000e-02 6.475773e+03 
3.929100e-02 6.330599e+03 
4.039800e-02 6.218239e+03 
4.164000e-02 6.097556e+03 
4.294400e-02 5.972300e+03 
4.415000e-02 5.857470e+03 
4.542900e-02 5.731477e+03 
4.660900e-02 5.613271e+03 
4.782300e-02 5.483574e+03 
4.892900e-02 5.362019e+03 
5.031200e-02 5.203488e+03 
5.155900e-02 5.053998e+03 
5.238100e-02 4.953029e+03 
5.378200e-02 4.777798e+03 
5.513400e-02 4.605143e+03 
5.627600e-02 4.457949e+03 
5.735300e-02 4.319196e+03 
5.870100e-02 4.146695e+03 
5.988700e-02 3.997682e+03 
6.113500e-02 3.844773e+03 
6.225900e-02 3.712063e+03 
6.340100e-02 3.583716e+03 
6.480200e-02 3.436539e+03 
6.601100e-02 3.320717e+03 
6.725500e-02 3.212665e+03 
6.829100e-02 3.132108e+03 
6.958600e-02 3.041156e+03 
7.071100e-02 2.971413e+03 
7.192300e-02 2.904468e+03 
7.307400e-02 2.847951e+03 
7.412300e-02 2.801676e+03 
7.550400e-02 2.747915e+03 
7.663100e-02 2.708379e+03 
7.791200e-02 2.668247e+03 
7.912700e-02 2.633334e+03 
8.027600e-02 2.602068e+03 
8.138400e-02 2.572920e+03 
8.272200e-02 2.538287e+03 
8.406100e-02 2.503387e+03 
8.534100e-02 2.468527e+03 
8.653800e-02 2.433986e+03 
8.759800e-02 2.402122e+03 
8.900300e-02 2.357534e+03 
9.009000e-02 2.320805e+03 
9.113300e-02 2.283389e+03 
9.239600e-02 2.236707e+03 
9.358000e-02 2.191020e+03 
9.496100e-02 2.135178e+03 
9.608400e-02 2.089128e+03 
9.727500e-02 2.040180e+03 
9.852600e-02 1.987440e+03 
9.973800e-02 1.937275e+03 
1.009000e-01 1.890105e+03 
1.020900e-01 1.842846e+03 
1.034000e-01 1.792858e+03 
1.046000e-01 1.748944e+03 
1.057200e-01 1.710592e+03 
1.069100e-01 1.671706e+03 
1.082500e-01 1.631433e+03 
1.093900e-01 1.599895e+03 
1.105400e-01 1.569921e+03 
1.116900e-01 1.543322e+03 
1.129600e-01 1.515664e+03 
1.142000e-01 1.491823e+03 
1.153300e-01 1.471587e+03 
1.166400e-01 1.450181e+03 
1.177800e-01 1.433181e+03 
1.190000e-01 1.415970e+03 
1.201200e-01 1.401308e+03 
1.213400e-01 1.385853e+03 
1.227100e-01 1.369183e+03 
1.238900e-01 1.355089e+03 
1.250700e-01 1.340927e+03 
1.263200e-01 1.325944e+03 
1.275500e-01 1.310805e+03 
1.287500e-01 1.295806e+03 
1.299900e-01 1.279756e+03 
1.311300e-01 1.264650e+03 
1.323500e-01 1.247817e+03 
1.335900e-01 1.230363e+03 
1.347100e-01 1.213972e+03 
1.359800e-01 1.195236e+03 
1.372100e-01 1.176382e+03 
1.384300e-01 1.157736e+03 
1.395700e-01 1.139799e+03 
1.407700e-01 1.121259e+03 
1.420300e-01 1.101417e+03 
1.432800e-01 1.082205e+03 
1.444500e-01 1.064328e+03 
1.456300e-01 1.046702e+03 
1.468900e-01 1.028547e+03 
1.480500e-01 1.012279e+03 
1.491700e-01 9.972176e+02 
1.503800e-01 9.816904e+02 
1.516400e-01 9.660810e+02 
1.528200e-01 9.526623e+02 
1.540200e-01 9.392934e+02 
1.551900e-01 9.274464e+02 
1.564300e-01 9.153630e+02 
1.576600e-01 9.040859e+02 
1.588700e-01 8.937712e+02 
1.600900e-01 8.836063e+02 
1.612700e-01 8.746612e+02 
1.625400e-01 8.652125e+02 
1.637600e-01 8.564979e+02 
1.649500e-01 8.482624e+02 
1.662200e-01 8.396189e+02 
1.674000e-01 8.316546e+02 
1.685000e-01 8.243536e+02 
1.697500e-01 8.159770e+02 
1.710300e-01 8.073353e+02 
1.722200e-01 7.994436e+02 
1.734400e-01 7.908907e+02 
1.746400e-01 7.825991e+02 
1.758700e-01 7.740409e+02 
1.770900e-01 7.652806e+02 
1.782700e-01 7.569531e+02 
1.794600e-01 7.483927e+02 
1.807000e-01 7.394232e+02 
1.819100e-01 7.308242e+02 
1.830100e-01 7.228906e+02 
1.842200e-01 7.142658e+02 
1.855000e-01 7.052999e+02 
1.867000e-01 6.969582e+02 
1.879200e-01 6.886224e+02 
1.890900e-01 6.807763e+02 
1.902800e-01 6.730000e+02 
1.915200e-01 6.650330e+02 
1.926900e-01 6.576898e+02 
1.939000e-01 6.503801e+02 
1.951700e-01 6.428356e+02 
1.963100e-01 6.362395e+02 
1.975100e-01 6.295828e+02 
1.987800e-01 6.226511e+02 
2.000100e-01 6.161173e+02 
2.012500e-01 6.097989e+02 
2.023400e-01 6.043267e+02 
2.036100e-01 5.980817e+02 
2.048900e-01 5.920275e+02 
2.060400e-01 5.866698e+02 
2.072200e-01 5.812580e+02 
2.084200e-01 5.759221e+02 
2.096900e-01 5.703590e+02 
2.109200e-01 5.650521e+02 
2.121100e-01 5.600100e+02 
2.132700e-01 5.551644e+02 
2.145200e-01 5.500171e+02 
2.157200e-01 5.451266e+02 
2.168800e-01 5.404552e+02 
2.180700e-01 5.357283e+02 
2.193400e-01 5.307350e+02 
2.206000e-01 5.258153e+02 
2.217500e-01 5.213871e+02 
2.229500e-01 5.168284e+02 
2.241400e-01 5.123072e+02 
2.253500e-01 5.077710e+02 
2.264900e-01 5.035539e+02 
2.277100e-01 4.990776e+02 
2.289900e-01 4.944212e+02 
2.301500e-01 4.902587e+02 
2.313600e-01 4.859736e+02 
2.325600e-01 4.817519e+02 
2.337700e-01 4.775515e+02 
2.350000e-01 4.733387e+02 
2.362000e-01 4.692803e+02 
2.374100e-01 4.652383e+02 
2.386500e-01 4.611509e+02 
2.399100e-01 4.570532e+02 
2.410400e-01 4.534380e+02 
2.422500e-01 4.496165e+02 
2.435000e-01 4.457201e+02 
2.447300e-01 4.419406e+02 
2.458700e-01 4.384996e+02 
2.470600e-01 4.349512e+02 
2.483300e-01 4.312125e+02 
2.495600e-01 4.276499e+02 
2.507600e-01 4.242335e+02 
2.519600e-01 4.208588e+02 
2.532200e-01 4.173595e+02 
2.543700e-01 4.142195e+02 
2.555500e-01 4.110453e+02 
2.568000e-01 4.077235e+02 
2.580100e-01 4.045473e+02 
2.592400e-01 4.013703e+02 
2.604100e-01 3.983894e+02 
2.616100e-01 3.953675e+02 
2.628400e-01 3.923068e+02 
2.640600e-01 3.893178e+02 
2.652200e-01 3.865126e+02 
2.664300e-01 3.836199e+02 
2.676500e-01 3.807370e+02 
2.688400e-01 3.779610e+02 
2.700700e-01 3.751268e+02 
2.712400e-01 3.724614e+02 
2.724800e-01 3.696684e+02 
2.736700e-01 3.670207e+02 
2.748800e-01 3.643610e+02 
2.761000e-01 3.617094e+02 
2.773200e-01 3.590876e+02 
2.785400e-01 3.564949e+02 
2.797000e-01 3.540563e+02 
2.808900e-01 3.515813e+02 
2.821400e-01 3.490103e+02 
2.833900e-01 3.464681e+02 
2.845500e-01 3.441315e+02 
2.857800e-01 3.416805e+02 
2.870300e-01 3.392172e+02 
2.882100e-01 3.369168e+02 
2.893900e-01 3.346395e+02 
2.906300e-01 3.322714e+02 
2.918900e-01 3.298914e+02 
2.930500e-01 3.277235e+02 
2.942500e-01 3.255031e+02 
2.954200e-01 3.233580e+02 
2.966500e-01 3.211262e+02 
2.978900e-01 3.189002e+02 
2.990400e-01 3.168569e+02 
3.002700e-01 3.146924e+02 
3.015100e-01 3.125325e+02 
3.026800e-01 3.105153e+02 
3.038500e-01 3.085181e+02 
3.050300e-01 3.065238e+02 
3.062600e-01 3.044639e+02 
3.075000e-01 3.024088e+02 
3.087000e-01 3.004401e+02 
3.099100e-01 2.984748e+02 
3.111200e-01 2.965297e+02 
3.123100e-01 2.946365e+02 
3.135300e-01 2.927147e+02 
3.147300e-01 2.908431e+02 
3.159900e-01 2.888976e+02 
3.171800e-01 2.870800e+02 
3.183700e-01 2.852807e+02 
3.196300e-01 2.833944e+02 
3.208400e-01 2.816009e+02 
3.220300e-01 2.798539e+02 
3.232000e-01 2.781556e+02 
3.244300e-01 2.763885e+02 
3.256700e-01 2.746244e+02 
3.269200e-01 2.728635e+02 
3.280800e-01 2.712448e+02 
3.292500e-01 2.696319e+02 
3.304800e-01 2.679535e+02 
3.317100e-01 2.662912e+02 
3.328900e-01 2.647112e+02 
3.340700e-01 2.631456e+02 
3.353600e-01 2.614557e+02 
3.365300e-01 2.599395e+02 
3.377100e-01 2.584239e+02 
3.389200e-01 2.568839e+02 
3.401600e-01 2.553203e+02 
3.413700e-01 2.538143e+02 
3.425300e-01 2.523872e+02 
3.437700e-01 2.508754e+02 
3.449800e-01 2.494135e+02 
3.461800e-01 2.479767e+02 
3.473600e-01 2.465788e+02 
3.485800e-01 2.451527e+02 
3.498100e-01 2.437277e+02 
3.510200e-01 2.423384e+02 
3.522000e-01 2.409952e+02 
3.533900e-01 2.396524e+02 
3.546400e-01 2.382635e+02 
3.558400e-01 2.369425e+02 
3.570600e-01 2.356111e+02 
3.582700e-01 2.343020e+02 
3.595000e-01 2.329829e+02 
3.607100e-01 2.317016e+02 
3.618900e-01 2.304667e+02 
3.631200e-01 2.291904e+02 
3.643200e-01 2.279558e+02 
3.655500e-01 2.267011e+02 
3.667300e-01 2.255074e+02 
3.679500e-01 2.242930e+02 
3.691900e-01 2.230692e+02 
3.703600e-01 2.219240e+02 
3.715700e-01 2.207493e+02 
3.727700e-01 2.195940e+02 
3.739900e-01 2.184320e+02 
3.752000e-01 2.172946e+02 
3.763900e-01 2.161850e+02 
3.775800e-01 2.150843e+02 
3.788200e-01 2.139468e+02 
3.800300e-01 2.128458e+02 
3.812100e-01 2.117852e+02 
3.824200e-01 2.107092e+02 
3.836100e-01 2.096594e+02 
3.848600e-01 2.085656e+02 
3.860400e-01 2.075413e+02 
3.872400e-01 2.065077e+02 
3.884600e-01 2.054707e+02 
3.896500e-01 2.044692e+02 
3.908700e-01 2.034504e+02 
3.920600e-01 2.024645e+02 
3.933100e-01 2.014370e+02 
3.945300e-01 2.004421e+02 
3.957200e-01 1.994845e+02 
3.969300e-01 1.985197e+02 
3.981700e-01 1.975387e+02 
3.993500e-01 1.966124e+02 
4.094840e-01 1.889616e+02 
4.272360e-01 1.767910e+02 
4.454600e-01 1.656657e+02 
4.630560e-01 1.560363e+02 
4.804610e-01 1.474325e+02 
4.980690e-01 1.395347e+02 
5.159230e-01 1.322471e+02 
5.317440e-01 1.263241e+02 
5.489640e-01 1.203863e+02 
5.671990e-01 1.146157e+02 
5.838690e-01 1.097524e+02 
6.018840e-01 1.048962e+02 
6.202330e-01 1.003376e+02 
6.379250e-01 9.626729e+01 
6.545410e-01 9.271762e+01 
6.714560e-01 8.934247e+01 
6.892080e-01 8.603971e+01 
7.066010e-01 8.302275e+01 
7.240540e-01 8.018826e+01 
7.420450e-01 7.745830e+01 
7.593780e-01 7.499466e+01 
7.764720e-01 7.270806e+01 
7.942840e-01 7.046693e+01 
8.116170e-01 6.841484e+01 
8.288310e-01 6.649230e+01 
8.462240e-01 6.465615e+01 
8.631980e-01 6.295964e+01 
8.810700e-01 6.126754e+01 
8.989410e-01 5.966454e+01 
9.166330e-01 5.815933e+01 
9.345640e-01 5.671074e+01 
9.515980e-01 5.540065e+01 
9.688720e-01 5.413347e+01 
9.865640e-01 5.289632e+01 
1.031870e+00 4.997112e+01 
1.063490e+00 4.811556e+01 
1.097920e+00 4.624867e+01 
1.134370e+00 4.442175e+01 
1.167730e+00 4.287169e+01 
1.203830e+00 4.130996e+01 
1.240470e+00 3.983461e+01 
1.275790e+00 3.850584e+01 
1.309140e+00 3.732814e+01 
1.342970e+00 3.620030e+01 
1.378420e+00 3.508652e+01 
1.413200e+00 3.405489e+01 
1.448110e+00 3.307407e+01 
1.484090e+00 3.211690e+01 
1.518820e+00 3.123994e+01 
1.552880e+00 3.042100e+01 
1.588630e+00 2.960183e+01 
1.623230e+00 2.884622e+01 
1.657720e+00 2.812675e+01 
1.692450e+00 2.743394e+01 
1.726400e+00 2.678448e+01 
1.762200e+00 2.612755e+01 
1.797880e+00 2.550061e+01 
1.833270e+00 2.490415e+01 
1.869070e+00 2.432425e+01 
1.903200e+00 2.379274e+01 
1.937740e+00 2.327461e+01 
1.973190e+00 2.276201e+01 
2.007440e+00 2.228453e+01 
2.042160e+00 2.181727e+01 
2.077900e+00 2.135288e+01 
2.112390e+00 2.092017e+01 
2.146220e+00 2.050904e+01 
2.181600e+00 2.009322e+01 
2.216930e+00 1.969126e+01 
2.250760e+00 1.931843e+01 
2.286500e+00 1.893687e+01 
2.321770e+00 1.857208e+01 
2.355950e+00 1.822909e+01 
2.391280e+00 1.788443e+01 
2.426240e+00 1.755338e+01 
2.460670e+00 1.723690e+01 
2.495640e+00 1.692487e+01 
2.531080e+00 1.661679e+01 
2.566220e+00 1.631980e+01 
2.600830e+00 1.603541e+01 
2.635080e+00 1.576164e+01 
2.670340e+00 1.548647e+01 
2.705970e+00 1.521597e+01 
2.740040e+00 1.496421e+01 
2.774520e+00 1.471544e+01 
2.809730e+00 1.446755e+01 
2.844390e+00 1.422986e+01 
2.879960e+00 1.399187e+01 
2.914860e+00 1.376376e+01 
2.949410e+00 1.354361e+01 
2.984440e+00 1.332538e+01 
3.019760e+00 1.311054e+01 
3.054730e+00 1.290316e+01 
3.089030e+00 1.270360e+01 
3.124060e+00 1.250473e+01 
3.159560e+00 1.230779e+01 
3.194710e+00 1.211697e+01 
3.229010e+00 1.193525e+01 
3.263320e+00 1.175655e+01 
3.297930e+00 1.158052e+01 
3.332830e+00 1.140671e+01 
3.368040e+00 1.123504e+01 
3.403300e+00 1.106694e+01 
3.438450e+00 1.090256e+01 
3.473060e+00 1.074449e+01 
3.508440e+00 1.058553e+01 
3.543110e+00 1.043338e+01 
3.577470e+00 1.028515e+01 
3.613040e+00 1.013510e+01 
3.648120e+00 9.989835e+00 
3.682910e+00 9.848772e+00 
3.718050e+00 9.708866e+00 
3.753320e+00 9.571306e+00 
3.787980e+00 9.438617e+00 
3.822290e+00 9.309848e+00 
3.857020e+00 9.181830e+00 
3.891920e+00 9.055712e+00 
3.926650e+00 8.932348e+00 
3.961970e+00 8.809396e+00 
3.997360e+00 8.688266e+00 
4.031670e+00 8.573240e+00 
4.066330e+00 8.458881e+00 
4.101420e+00 8.345551e+00 
4.136200e+00 8.234720e+00 
4.170810e+00 8.126749e+00 
4.206250e+00 8.017905e+00 
4.241580e+00 7.911578e+00 
4.276300e+00 7.808785e+00 
4.310970e+00 7.707973e+00 
4.346120e+00 7.607589e+00 
4.380600e+00 7.510672e+00 
4.414730e+00 7.416618e+00 
4.450350e+00 7.319813e+00 
4.485320e+00 7.226680e+00 
4.519810e+00 7.136190e+00 
4.555430e+00 7.044374e+00 
4.590870e+00 6.954653e+00 
4.625480e+00 6.868368e+00 
4.659910e+00 6.784159e+00 
4.695230e+00 6.698987e+00 
4.729960e+00 6.616761e+00 
4.764450e+00 6.536440e+00 
4.799530e+00 6.455954e+00 
4.834910e+00 6.376302e+00 
4.869700e+00 6.299066e+00 
4.904370e+00 6.223441e+00 
4.939450e+00 6.148212e+00 
4.973940e+00 6.075316e+00 
5.008430e+00 6.003718e+00 
5.043810e+00 5.931345e+00 
5.078840e+00 5.860832e+00 
5.113500e+00 5.792297e+00 
5.148890e+00 5.723192e+00 
5.184210e+00 5.655429e+00 
5.219060e+00 5.589674e+00 
5.253660e+00 5.525335e+00 
5.288570e+00 5.461530e+00 
5.323420e+00 5.398784e+00 
5.358440e+00 5.336651e+00 
5.393590e+00 5.275345e+00 
5.428310e+00 5.215652e+00 
5.462800e+00 5.157254e+00 
5.497640e+00 5.099237e+00 
5.532670e+00 5.041709e+00 
5.567280e+00 4.985753e+00 
5.602000e+00 4.930530e+00 
5.637270e+00 4.875188e+00 
5.672410e+00 4.820913e+00 
5.707020e+00 4.768316e+00 
5.742040e+00 4.715825e+00 
5.777430e+00 4.663606e+00 
5.812210e+00 4.613103e+00 
5.846820e+00 4.563515e+00 
5.881610e+00 4.514415e+00 
5.916510e+00 4.465926e+00 
5.951600e+00 4.417843e+00 
5.986560e+00 4.370640e+00 
6.021830e+00 4.323753e+00 
6.056490e+00 4.278329e+00 
6.091160e+00 4.233531e+00 
6.125830e+00 4.189405e+00 
6.161090e+00 4.145183e+00 
6.195760e+00 4.102305e+00 
6.230420e+00 4.060074e+00 
6.265690e+00 4.017734e+00 
6.300950e+00 3.975962e+00 
6.335620e+00 3.935493e+00 
6.370880e+00 3.894937e+00 
6.405550e+00 3.855608e+00 
6.440220e+00 3.816830e+00 
6.475480e+00 3.777961e+00 
6.510150e+00 3.740280e+00 
6.544810e+00 3.703122e+00 
6.580080e+00 3.665847e+00 
6.614750e+00 3.629725e+00 
6.649410e+00 3.594096e+00 
6.684080e+00 3.558947e+00 
6.719340e+00 3.523698e+00 
6.754010e+00 3.489519e+00 
6.788680e+00 3.455805e+00 
6.823940e+00 3.421989e+00 
6.859800e+00 3.388075e+00 
6.894470e+00 3.355733e+00 
6.929140e+00 3.323825e+00 
6.963800e+00 3.292353e+00 
6.999070e+00 3.260758e+00 
7.033730e+00 3.230142e+00 
7.068400e+00 3.199920e+00 
7.103660e+00 3.169592e+00 
7.138330e+00 3.140170e+00 
7.173600e+00 3.110642e+00 
7.208260e+00 3.082004e+00 
7.243530e+00 3.053241e+00 
7.277600e+00 3.025823e+00 
7.312860e+00 2.997818e+00 
7.348120e+00 2.970176e+00 
7.382790e+00 2.943344e+00 
7.417460e+00 2.916872e+00 
7.452720e+00 2.890300e+00 
7.487390e+00 2.864503e+00 
7.522650e+00 2.838597e+00 
7.557320e+00 2.813479e+00 
7.591990e+00 2.788684e+00 
7.627250e+00 2.763780e+00 
7.662510e+00 2.739186e+00 
7.697180e+00 2.715335e+00 
7.731850e+00 2.691785e+00 
7.766510e+00 2.668527e+00 
7.801180e+00 2.645543e+00 
7.836440e+00 2.622473e+00 
7.871110e+00 2.600077e+00 
7.906380e+00 2.577566e+00 
7.941040e+00 2.555709e+00 
7.976310e+00 2.533752e+00 
8.011570e+00 2.512088e+00 
8.046240e+00 2.491037e+00 
8.080900e+00 2.470237e+00 
8.115570e+00 2.449687e+00 
8.150830e+00 2.429083e+00 
8.185500e+00 2.409059e+00 
8.220770e+00 2.388924e+00 
8.255430e+00 2.369365e+00 
8.290100e+00 2.350065e+00 
8.324770e+00 2.330989e+00 
8.359430e+00 2.312133e+00 
8.394700e+00 2.293163e+00 
8.429960e+00 2.274443e+00 
8.464630e+00 2.256272e+00 
8.499890e+00 2.237998e+00 
8.534560e+00 2.220231e+00 
8.569200e+00 2.202674e+00 
