# Parameters:
# omega_b = 0.021887, omega_m = 0.143710, n_s = 0.998387, h = 71.451613, w = -1.000000, sigma_8 = 0.767419
# z = 1.770000
#
# k[1/Mpc] # P(k):
8.694000e-04 2.226714e+03 
2.077466e-03 4.907957e+03 
3.285532e-03 7.071142e+03 
4.493598e-03 8.782316e+03 
5.701664e-03 1.009298e+04 
6.909730e-03 1.105814e+04 
8.117797e-03 1.174620e+04 
9.325863e-03 1.219272e+04 
1.053393e-02 1.243503e+04 
1.174199e-02 1.250879e+04 
1.295006e-02 1.243659e+04 
1.415813e-02 1.224962e+04 
1.536619e-02 1.197467e+04 
1.657426e-02 1.162972e+04 
1.778233e-02 1.123183e+04 
1.899039e-02 1.080667e+04 
2.019846e-02 1.036846e+04 
2.140652e-02 9.929925e+03 
2.261459e-02 9.498161e+03 
2.382266e-02 9.082362e+03 
2.503072e-02 8.689513e+03 
2.623879e-02 8.322766e+03 
2.744685e-02 7.983451e+03 
2.865492e-02 7.673511e+03 
2.986299e-02 7.392109e+03 
3.100100e-02 7.152992e+03 
3.220400e-02 6.925771e+03 
3.288100e-02 6.809293e+03 
3.424300e-02 6.596543e+03 
3.555100e-02 6.415684e+03 
3.686000e-02 6.254552e+03 
3.795000e-02 6.132583e+03 
3.929100e-02 5.995148e+03 
4.039800e-02 5.888752e+03 
4.164000e-02 5.774499e+03 
4.294400e-02 5.655929e+03 
4.415000e-02 5.547219e+03 
4.542900e-02 5.427917e+03 
4.660900e-02 5.315967e+03 
4.782300e-02 5.193145e+03 
4.892900e-02 5.078036e+03 
5.031200e-02 4.927862e+03 
5.155900e-02 4.786269e+03 
5.238100e-02 4.690625e+03 
5.378200e-02 4.524608e+03 
5.513400e-02 4.361055e+03 
5.627600e-02 4.221632e+03 
5.735300e-02 4.090236e+03 
5.870100e-02 3.926910e+03 
5.988700e-02 3.785862e+03 
6.113500e-02 3.641155e+03 
6.225900e-02 3.515562e+03 
6.340100e-02 3.394101e+03 
6.480200e-02 3.254801e+03 
6.601100e-02 3.145136e+03 
6.725500e-02 3.042811e+03 
6.829100e-02 2.966504e+03 
6.958600e-02 2.880324e+03 
7.071100e-02 2.814238e+03 
7.192300e-02 2.750795e+03 
7.307400e-02 2.697237e+03 
7.412300e-02 2.653389e+03 
7.550400e-02 2.602448e+03 
7.663100e-02 2.564999e+03 
7.791200e-02 2.526994e+03 
7.912700e-02 2.493951e+03 
8.027600e-02 2.464364e+03 
8.138400e-02 2.436786e+03 
8.272200e-02 2.404025e+03 
8.406100e-02 2.371012e+03 
8.534100e-02 2.338031e+03 
8.653800e-02 2.305341e+03 
8.759800e-02 2.275175e+03 
8.900300e-02 2.232946e+03 
9.009000e-02 2.198147e+03 
9.113300e-02 2.162685e+03 
9.239600e-02 2.118427e+03 
9.358000e-02 2.075097e+03 
9.496100e-02 2.022119e+03 
9.608400e-02 1.978423e+03 
9.727500e-02 1.931974e+03 
9.852600e-02 1.881913e+03 
9.973800e-02 1.834297e+03 
1.009000e-01 1.789524e+03 
1.020900e-01 1.744664e+03 
1.034000e-01 1.697217e+03 
1.046000e-01 1.655542e+03 
1.057200e-01 1.619149e+03 
1.069100e-01 1.582255e+03 
1.082500e-01 1.544057e+03 
1.093900e-01 1.514155e+03 
1.105400e-01 1.485743e+03 
1.116900e-01 1.460539e+03 
1.129600e-01 1.434337e+03 
1.142000e-01 1.411767e+03 
1.153300e-01 1.392617e+03 
1.166400e-01 1.372370e+03 
1.177800e-01 1.356298e+03 
1.190000e-01 1.340030e+03 
1.201200e-01 1.326175e+03 
1.213400e-01 1.311570e+03 
1.227100e-01 1.295817e+03 
1.238900e-01 1.282496e+03 
1.250700e-01 1.269104e+03 
1.263200e-01 1.254929e+03 
1.275500e-01 1.240594e+03 
1.287500e-01 1.226381e+03 
1.299900e-01 1.211161e+03 
1.311300e-01 1.196827e+03 
1.323500e-01 1.180840e+03 
1.335900e-01 1.164254e+03 
1.347100e-01 1.148668e+03 
1.359800e-01 1.130844e+03 
1.372100e-01 1.112896e+03 
1.384300e-01 1.095144e+03 
1.395700e-01 1.078064e+03 
1.407700e-01 1.060410e+03 
1.420300e-01 1.041511e+03 
1.432800e-01 1.023214e+03 
1.444500e-01 1.006195e+03 
1.456300e-01 9.894160e+02 
1.468900e-01 9.721458e+02 
1.480500e-01 9.566750e+02 
1.491700e-01 9.423604e+02 
1.503800e-01 9.276146e+02 
1.516400e-01 9.127960e+02 
1.528200e-01 9.000787e+02 
1.540200e-01 8.874089e+02 
1.551900e-01 8.762009e+02 
1.564300e-01 8.647745e+02 
1.576600e-01 8.541197e+02 
1.588700e-01 8.443858e+02 
1.600900e-01 8.347938e+02 
1.612700e-01 8.263618e+02 
1.625400e-01 8.174552e+02 
1.637600e-01 8.092385e+02 
1.649500e-01 8.014723e+02 
1.662200e-01 7.933190e+02 
1.674000e-01 7.857926e+02 
1.685000e-01 7.788932e+02 
1.697500e-01 7.709658e+02 
1.710300e-01 7.627763e+02 
1.722200e-01 7.552977e+02 
1.734400e-01 7.471678e+02 
1.746400e-01 7.392853e+02 
1.758700e-01 7.311442e+02 
1.770900e-01 7.228001e+02 
1.782700e-01 7.148685e+02 
1.794600e-01 7.067091e+02 
1.807000e-01 6.981561e+02 
1.819100e-01 6.899569e+02 
1.830100e-01 6.823947e+02 
1.842200e-01 6.741745e+02 
1.855000e-01 6.656302e+02 
1.867000e-01 6.576869e+02 
1.879200e-01 6.497497e+02 
1.890900e-01 6.422814e+02 
1.902800e-01 6.348905e+02 
1.915200e-01 6.273188e+02 
1.926900e-01 6.203432e+02 
1.939000e-01 6.134096e+02 
1.951700e-01 6.062536e+02 
1.963100e-01 6.000006e+02 
1.975100e-01 5.936991e+02 
1.987800e-01 5.871375e+02 
2.000100e-01 5.809555e+02 
2.012500e-01 5.749840e+02 
2.023400e-01 5.698124e+02 
2.036100e-01 5.639112e+02 
2.048900e-01 5.581936e+02 
2.060400e-01 5.531338e+02 
2.072200e-01 5.480230e+02 
2.084200e-01 5.429825e+02 
2.096900e-01 5.377276e+02 
2.109200e-01 5.327147e+02 
2.121100e-01 5.279477e+02 
2.132700e-01 5.233664e+02 
2.145200e-01 5.184999e+02 
2.157200e-01 5.138709e+02 
2.168800e-01 5.094466e+02 
2.180700e-01 5.049701e+02 
2.193400e-01 5.002382e+02 
2.206000e-01 4.955707e+02 
2.217500e-01 4.913697e+02 
2.229500e-01 4.870450e+02 
2.241400e-01 4.827487e+02 
2.253500e-01 4.784381e+02 
2.264900e-01 4.744308e+02 
2.277100e-01 4.701747e+02 
2.289900e-01 4.657444e+02 
2.301500e-01 4.617842e+02 
2.313600e-01 4.577075e+02 
2.325600e-01 4.536871e+02 
2.337700e-01 4.496872e+02 
2.350000e-01 4.456756e+02 
2.362000e-01 4.418106e+02 
2.374100e-01 4.379606e+02 
2.386500e-01 4.340675e+02 
2.399100e-01 4.301649e+02 
2.410400e-01 4.267218e+02 
2.422500e-01 4.230825e+02 
2.435000e-01 4.193720e+02 
2.447300e-01 4.157731e+02 
2.458700e-01 4.124972e+02 
2.470600e-01 4.091191e+02 
2.483300e-01 4.055601e+02 
2.495600e-01 4.021699e+02 
2.507600e-01 3.989204e+02 
2.519600e-01 3.957107e+02 
2.532200e-01 3.923827e+02 
2.543700e-01 3.893981e+02 
2.555500e-01 3.863823e+02 
2.568000e-01 3.832264e+02 
2.580100e-01 3.802090e+02 
2.592400e-01 3.771922e+02 
2.604100e-01 3.743624e+02 
2.616100e-01 3.714938e+02 
2.628400e-01 3.685883e+02 
2.640600e-01 3.657530e+02 
2.652200e-01 3.630929e+02 
2.664300e-01 3.603497e+02 
2.676500e-01 3.576161e+02 
2.688400e-01 3.549852e+02 
2.700700e-01 3.523001e+02 
2.712400e-01 3.497749e+02 
2.724800e-01 3.471290e+02 
2.736700e-01 3.446212e+02 
2.748800e-01 3.421023e+02 
2.761000e-01 3.395913e+02 
2.773200e-01 3.371086e+02 
2.785400e-01 3.346538e+02 
2.797000e-01 3.323453e+02 
2.808900e-01 3.300025e+02 
2.821400e-01 3.275689e+02 
2.833900e-01 3.251627e+02 
2.845500e-01 3.229511e+02 
2.857800e-01 3.206313e+02 
2.870300e-01 3.182999e+02 
2.882100e-01 3.161228e+02 
2.893900e-01 3.139675e+02 
2.906300e-01 3.117262e+02 
2.918900e-01 3.094738e+02 
2.930500e-01 3.074221e+02 
2.942500e-01 3.053207e+02 
2.954200e-01 3.032902e+02 
2.966500e-01 3.011778e+02 
2.978900e-01 2.990709e+02 
2.990400e-01 2.971369e+02 
3.002700e-01 2.950882e+02 
3.015100e-01 2.930439e+02 
3.026800e-01 2.911348e+02 
3.038500e-01 2.892446e+02 
3.050300e-01 2.873571e+02 
3.062600e-01 2.854073e+02 
3.075000e-01 2.834619e+02 
3.087000e-01 2.815985e+02 
3.099100e-01 2.797384e+02 
3.111200e-01 2.778972e+02 
3.123100e-01 2.761049e+02 
3.135300e-01 2.742857e+02 
3.147300e-01 2.725140e+02 
3.159900e-01 2.706724e+02 
3.171800e-01 2.689519e+02 
3.183700e-01 2.672490e+02 
3.196300e-01 2.654637e+02 
3.208400e-01 2.637663e+02 
3.220300e-01 2.621130e+02 
3.232000e-01 2.605058e+02 
3.244300e-01 2.588335e+02 
3.256700e-01 2.571640e+02 
3.269200e-01 2.554976e+02 
3.280800e-01 2.539659e+02 
3.292500e-01 2.524395e+02 
3.304800e-01 2.508514e+02 
3.317100e-01 2.492784e+02 
3.328900e-01 2.477834e+02 
3.340700e-01 2.463021e+02 
3.353600e-01 2.447031e+02 
3.365300e-01 2.432684e+02 
3.377100e-01 2.418345e+02 
3.389200e-01 2.403774e+02 
3.401600e-01 2.388981e+02 
3.413700e-01 2.374733e+02 
3.425300e-01 2.361234e+02 
3.437700e-01 2.346933e+02 
3.449800e-01 2.333105e+02 
3.461800e-01 2.319514e+02 
3.473600e-01 2.306292e+02 
3.485800e-01 2.292801e+02 
3.498100e-01 2.279322e+02 
3.510200e-01 2.266181e+02 
3.522000e-01 2.253477e+02 
3.533900e-01 2.240776e+02 
3.546400e-01 2.227641e+02 
3.558400e-01 2.215148e+02 
3.570600e-01 2.202558e+02 
3.582700e-01 2.190179e+02 
3.595000e-01 2.177705e+02 
3.607100e-01 2.165590e+02 
3.618900e-01 2.153915e+02 
3.631200e-01 2.141849e+02 
3.643200e-01 2.130177e+02 
3.655500e-01 2.118315e+02 
3.667300e-01 2.107031e+02 
3.679500e-01 2.095550e+02 
3.691900e-01 2.083979e+02 
3.703600e-01 2.073153e+02 
3.715700e-01 2.062048e+02 
3.727700e-01 2.051126e+02 
3.739900e-01 2.040141e+02 
3.752000e-01 2.029388e+02 
3.763900e-01 2.018898e+02 
3.775800e-01 2.008493e+02 
3.788200e-01 1.997739e+02 
3.800300e-01 1.987331e+02 
3.812100e-01 1.977305e+02 
3.824200e-01 1.967135e+02 
3.836100e-01 1.957212e+02 
3.848600e-01 1.946873e+02 
3.860400e-01 1.937192e+02 
3.872400e-01 1.927423e+02 
3.884600e-01 1.917621e+02 
3.896500e-01 1.908155e+02 
3.908700e-01 1.898526e+02 
3.920600e-01 1.889208e+02 
3.933100e-01 1.879496e+02 
3.945300e-01 1.870094e+02 
3.957200e-01 1.861043e+02 
3.969300e-01 1.851924e+02 
3.981700e-01 1.842653e+02 
3.993500e-01 1.833898e+02 
4.094840e-01 1.761595e+02 
4.272360e-01 1.646612e+02 
4.454600e-01 1.541545e+02 
4.630560e-01 1.450664e+02 
4.804610e-01 1.369518e+02 
4.980690e-01 1.295093e+02 
5.159230e-01 1.226479e+02 
5.317440e-01 1.170758e+02 
5.489640e-01 1.114943e+02 
5.671990e-01 1.060748e+02 
5.838690e-01 1.015099e+02 
6.018840e-01 9.695501e+01 
6.202330e-01 9.268154e+01 
6.379250e-01 8.886724e+01 
6.545410e-01 8.554219e+01 
6.714560e-01 8.238168e+01 
6.892080e-01 7.928964e+01 
7.066010e-01 7.646584e+01 
7.240540e-01 7.381379e+01 
7.420450e-01 7.125969e+01 
7.593780e-01 6.895526e+01 
7.764720e-01 6.681715e+01 
7.942840e-01 6.472200e+01 
8.116170e-01 6.280409e+01 
8.288310e-01 6.100755e+01 
8.462240e-01 5.929212e+01 
8.631980e-01 5.770787e+01 
8.810700e-01 5.612842e+01 
8.989410e-01 5.463270e+01 
9.166330e-01 5.322871e+01 
9.345640e-01 5.187826e+01 
9.515980e-01 5.065735e+01 
9.688720e-01 4.947722e+01 
9.865640e-01 4.832562e+01 
1.031870e+00 4.560528e+01 
1.063490e+00 4.388214e+01 
1.097920e+00 4.215050e+01 
1.134370e+00 4.045809e+01 
1.167730e+00 3.902396e+01 
1.203830e+00 3.758122e+01 
1.240470e+00 3.622000e+01 
1.275790e+00 3.499588e+01 
1.309140e+00 3.391204e+01 
1.342970e+00 3.287591e+01 
1.378420e+00 3.185372e+01 
1.413200e+00 3.090809e+01 
1.448110e+00 3.001024e+01 
1.484090e+00 2.913487e+01 
1.518820e+00 2.833394e+01 
1.552880e+00 2.758673e+01 
1.588630e+00 2.684016e+01 
1.623230e+00 2.615204e+01 
1.657720e+00 2.549758e+01 
1.692450e+00 2.486775e+01 
1.726400e+00 2.427807e+01 
1.762200e+00 2.368213e+01 
1.797880e+00 2.311369e+01 
1.833270e+00 2.257332e+01 
1.869070e+00 2.204839e+01 
1.903200e+00 2.156752e+01 
1.937740e+00 2.109914e+01 
1.973190e+00 2.063596e+01 
2.007440e+00 2.020476e+01 
2.042160e+00 1.978301e+01 
2.077900e+00 1.936407e+01 
2.112390e+00 1.897394e+01 
2.146220e+00 1.860346e+01 
2.181600e+00 1.822885e+01 
2.216930e+00 1.786687e+01 
2.250760e+00 1.753123e+01 
2.286500e+00 1.718787e+01 
2.321770e+00 1.685975e+01 
2.355950e+00 1.655123e+01 
2.391280e+00 1.624142e+01 
2.426240e+00 1.594388e+01 
2.460670e+00 1.565947e+01 
2.495640e+00 1.537911e+01 
2.531080e+00 1.510235e+01 
2.566220e+00 1.483563e+01 
2.600830e+00 1.458024e+01 
2.635080e+00 1.433441e+01 
2.670340e+00 1.408742e+01 
2.705970e+00 1.384459e+01 
2.740040e+00 1.361857e+01 
2.774520e+00 1.339530e+01 
2.809730e+00 1.317283e+01 
2.844390e+00 1.295952e+01 
2.879960e+00 1.274595e+01 
2.914860e+00 1.254122e+01 
2.949410e+00 1.234363e+01 
2.984440e+00 1.214777e+01 
3.019760e+00 1.195497e+01 
3.054730e+00 1.176884e+01 
3.089030e+00 1.158971e+01 
3.124060e+00 1.141118e+01 
3.159560e+00 1.123436e+01 
3.194710e+00 1.106302e+01 
3.229010e+00 1.089984e+01 
3.263320e+00 1.073936e+01 
3.297930e+00 1.058125e+01 
3.332830e+00 1.042513e+01 
3.368040e+00 1.027089e+01 
3.403300e+00 1.011982e+01 
3.438450e+00 9.972080e+00 
3.473060e+00 9.830001e+00 
3.508440e+00 9.687055e+00 
3.543110e+00 9.550225e+00 
3.577470e+00 9.416893e+00 
3.613040e+00 9.281898e+00 
3.648120e+00 9.151155e+00 
3.682910e+00 9.024187e+00 
3.718050e+00 8.898246e+00 
3.753320e+00 8.774381e+00 
3.787980e+00 8.654853e+00 
3.822290e+00 8.538832e+00 
3.857020e+00 8.423456e+00 
3.891920e+00 8.309778e+00 
3.926650e+00 8.198562e+00 
3.961970e+00 8.087691e+00 
3.997360e+00 7.978408e+00 
4.031670e+00 7.874611e+00 
4.066330e+00 7.771363e+00 
4.101420e+00 7.669033e+00 
4.136200e+00 7.568924e+00 
4.170810e+00 7.471388e+00 
4.206250e+00 7.373002e+00 
4.241580e+00 7.276872e+00 
4.276300e+00 7.183913e+00 
4.310970e+00 7.092729e+00 
4.346120e+00 7.001902e+00 
4.380600e+00 6.914170e+00 
4.414730e+00 6.829021e+00 
4.450350e+00 6.741331e+00 
4.485320e+00 6.656959e+00 
4.519810e+00 6.574944e+00 
4.555430e+00 6.491705e+00 
4.590870e+00 6.410342e+00 
4.625480e+00 6.332053e+00 
4.659910e+00 6.255641e+00 
4.695230e+00 6.178307e+00 
4.729960e+00 6.103636e+00 
4.764450e+00 6.030679e+00 
4.799530e+00 5.957551e+00 
4.834910e+00 5.885174e+00 
4.869700e+00 5.814939e+00 
4.904370e+00 5.746155e+00 
4.939450e+00 5.677713e+00 
4.973940e+00 5.611358e+00 
5.008430e+00 5.546178e+00 
5.043810e+00 5.480266e+00 
5.078840e+00 5.416031e+00 
5.113500e+00 5.353592e+00 
5.148890e+00 5.290589e+00 
5.184210e+00 5.228804e+00 
5.219060e+00 5.168836e+00 
5.253660e+00 5.110130e+00 
5.288570e+00 5.051908e+00 
5.323420e+00 4.994628e+00 
5.358440e+00 4.937880e+00 
5.393590e+00 4.881884e+00 
5.428310e+00 4.827336e+00 
5.462800e+00 4.773958e+00 
5.497640e+00 4.720924e+00 
5.532670e+00 4.668308e+00 
5.567280e+00 4.617117e+00 
5.602000e+00 4.566594e+00 
5.637270e+00 4.515932e+00 
5.672410e+00 4.466237e+00 
5.707020e+00 4.418076e+00 
5.742040e+00 4.369979e+00 
5.777430e+00 4.322122e+00 
5.812210e+00 4.275835e+00 
5.846820e+00 4.230366e+00 
5.881610e+00 4.185337e+00 
5.916510e+00 4.140865e+00 
5.951600e+00 4.096748e+00 
5.986560e+00 4.053429e+00 
6.021830e+00 4.010398e+00 
6.056490e+00 3.968688e+00 
6.091160e+00 3.927537e+00 
6.125830e+00 3.887001e+00 
6.161090e+00 3.846367e+00 
6.195760e+00 3.806952e+00 
6.230420e+00 3.768129e+00 
6.265690e+00 3.729203e+00 
6.300950e+00 3.690778e+00 
6.335620e+00 3.653549e+00 
6.370880e+00 3.616239e+00 
6.405550e+00 3.580039e+00 
6.440220e+00 3.544338e+00 
6.475480e+00 3.508551e+00 
6.510150e+00 3.473853e+00 
6.544810e+00 3.439624e+00 
6.580080e+00 3.405286e+00 
6.614750e+00 3.372008e+00 
6.649410e+00 3.339167e+00 
6.684080e+00 3.306764e+00 
6.719340e+00 3.274268e+00 
6.754010e+00 3.242752e+00 
6.788680e+00 3.211650e+00 
6.823940e+00 3.180452e+00 
6.859800e+00 3.149164e+00 
6.894470e+00 3.119317e+00 
6.929140e+00 3.089866e+00 
6.963800e+00 3.060816e+00 
6.999070e+00 3.031651e+00 
7.033730e+00 3.003373e+00 
7.068400e+00 2.975460e+00 
7.103660e+00 2.947446e+00 
7.138330e+00 2.920265e+00 
7.173600e+00 2.892977e+00 
7.208260e+00 2.866511e+00 
7.243530e+00 2.839928e+00 
7.277600e+00 2.814585e+00 
7.312860e+00 2.788696e+00 
7.348120e+00 2.763141e+00 
7.382790e+00 2.738334e+00 
7.417460e+00 2.713848e+00 
7.452720e+00 2.689266e+00 
7.487390e+00 2.665399e+00 
7.522650e+00 2.641430e+00 
7.557320e+00 2.618184e+00 
7.591990e+00 2.595236e+00 
7.627250e+00 2.572185e+00 
7.662510e+00 2.549421e+00 
7.697180e+00 2.527339e+00 
7.731850e+00 2.505535e+00 
7.766510e+00 2.484000e+00 
7.801180e+00 2.462717e+00 
7.836440e+00 2.441350e+00 
7.871110e+00 2.420602e+00 
7.906380e+00 2.399749e+00 
7.941040e+00 2.379500e+00 
7.976310e+00 2.359157e+00 
8.011570e+00 2.339082e+00 
8.046240e+00 2.319576e+00 
8.080900e+00 2.300302e+00 
8.115570e+00 2.281257e+00 
8.150830e+00 2.262159e+00 
8.185500e+00 2.243597e+00 
8.220770e+00 2.224932e+00 
8.255430e+00 2.206800e+00 
8.290100e+00 2.188904e+00 
8.324770e+00 2.171215e+00 
8.359430e+00 2.153729e+00 
8.394700e+00 2.136137e+00 
8.429960e+00 2.118775e+00 
8.464630e+00 2.101919e+00 
8.499890e+00 2.084968e+00 
8.534560e+00 2.068486e+00 
8.569200e+00 2.052199e+00 
