# Parameters:
# omega_b = 0.021887, omega_m = 0.143710, n_s = 0.998387, h = 71.451613, w = -1.000000, sigma_8 = 0.767419
# z = 1.830000
#
# k[1/Mpc] # P(k):
8.694000e-04 2.137371e+03 
2.077466e-03 4.711040e+03 
3.285532e-03 6.787329e+03 
4.493598e-03 8.429928e+03 
5.701664e-03 9.688049e+03 
6.909730e-03 1.061451e+04 
8.117797e-03 1.127502e+04 
9.325863e-03 1.170373e+04 
1.053393e-02 1.193639e+04 
1.174199e-02 1.200724e+04 
1.295006e-02 1.193800e+04 
1.415813e-02 1.175861e+04 
1.536619e-02 1.149475e+04 
1.657426e-02 1.116368e+04 
1.778233e-02 1.078180e+04 
1.899039e-02 1.037373e+04 
2.019846e-02 9.953110e+03 
2.140652e-02 9.532180e+03 
2.261459e-02 9.117754e+03 
2.382266e-02 8.718652e+03 
2.503072e-02 8.341566e+03 
2.623879e-02 7.989522e+03 
2.744685e-02 7.663831e+03 
2.865492e-02 7.366316e+03 
2.986299e-02 7.096177e+03 
3.100100e-02 6.866649e+03 
3.220400e-02 6.648535e+03 
3.288100e-02 6.536724e+03 
3.424300e-02 6.332519e+03 
3.555100e-02 6.158914e+03 
3.686000e-02 6.004243e+03 
3.795000e-02 5.887180e+03 
3.929100e-02 5.755276e+03 
4.039800e-02 5.653145e+03 
4.164000e-02 5.543489e+03 
4.294400e-02 5.429697e+03 
4.415000e-02 5.325362e+03 
4.542900e-02 5.210845e+03 
4.660900e-02 5.103369e+03 
4.782300e-02 4.985464e+03 
4.892900e-02 4.874963e+03 
5.031200e-02 4.730767e+03 
5.155900e-02 4.594821e+03 
5.238100e-02 4.502987e+03 
5.378200e-02 4.343560e+03 
5.513400e-02 4.186518e+03 
5.627600e-02 4.052652e+03 
5.735300e-02 3.926517e+03 
5.870100e-02 3.769750e+03 
5.988700e-02 3.634395e+03 
6.113500e-02 3.495549e+03 
6.225900e-02 3.375042e+03 
6.340100e-02 3.258503e+03 
6.480200e-02 3.124834e+03 
6.601100e-02 3.019569e+03 
6.725500e-02 2.921340e+03 
6.829100e-02 2.848073e+03 
6.958600e-02 2.765307e+03 
7.071100e-02 2.701838e+03 
7.192300e-02 2.640900e+03 
7.307400e-02 2.589458e+03 
7.412300e-02 2.547348e+03 
7.550400e-02 2.498425e+03 
7.663100e-02 2.462467e+03 
7.791200e-02 2.425984e+03 
7.912700e-02 2.394277e+03 
8.027600e-02 2.365890e+03 
8.138400e-02 2.339434e+03 
8.272200e-02 2.308011e+03 
8.406100e-02 2.276344e+03 
8.534100e-02 2.244707e+03 
8.653800e-02 2.213339e+03 
8.759800e-02 2.184386e+03 
8.900300e-02 2.143844e+03 
9.009000e-02 2.110426e+03 
9.113300e-02 2.076362e+03 
9.239600e-02 2.033841e+03 
9.358000e-02 1.992198e+03 
9.496100e-02 1.941271e+03 
9.608400e-02 1.899262e+03 
9.727500e-02 1.854603e+03 
9.852600e-02 1.806461e+03 
9.973800e-02 1.760672e+03 
1.009000e-01 1.717618e+03 
1.020900e-01 1.674475e+03 
1.034000e-01 1.628850e+03 
1.046000e-01 1.588778e+03 
1.057200e-01 1.553790e+03 
1.069100e-01 1.518322e+03 
1.082500e-01 1.481610e+03 
1.093900e-01 1.452880e+03 
1.105400e-01 1.425585e+03 
1.116900e-01 1.401379e+03 
1.129600e-01 1.376219e+03 
1.142000e-01 1.354558e+03 
1.153300e-01 1.336183e+03 
1.166400e-01 1.316764e+03 
1.177800e-01 1.301354e+03 
1.190000e-01 1.285760e+03 
1.201200e-01 1.272480e+03 
1.213400e-01 1.258482e+03 
1.227100e-01 1.243384e+03 
1.238900e-01 1.230615e+03 
1.250700e-01 1.217773e+03 
1.263200e-01 1.204175e+03 
1.275500e-01 1.190414e+03 
1.287500e-01 1.176765e+03 
1.299900e-01 1.162139e+03 
1.311300e-01 1.148357e+03 
1.323500e-01 1.132977e+03 
1.335900e-01 1.117014e+03 
1.347100e-01 1.102005e+03 
1.359800e-01 1.084837e+03 
1.372100e-01 1.067539e+03 
1.384300e-01 1.050430e+03 
1.395700e-01 1.033967e+03 
1.407700e-01 1.016950e+03 
1.420300e-01 9.987300e+02 
1.432800e-01 9.810916e+02 
1.444500e-01 9.646890e+02 
1.456300e-01 9.485186e+02 
1.468900e-01 9.318840e+02 
1.480500e-01 9.169856e+02 
1.491700e-01 9.032072e+02 
1.503800e-01 8.890216e+02 
1.516400e-01 8.747700e+02 
1.528200e-01 8.625546e+02 
1.540200e-01 8.503851e+02 
1.551900e-01 8.396337e+02 
1.564300e-01 8.286764e+02 
1.576600e-01 8.184658e+02 
1.588700e-01 8.091460e+02 
1.600900e-01 7.999622e+02 
1.612700e-01 7.918958e+02 
1.625400e-01 7.833753e+02 
1.637600e-01 7.755132e+02 
1.649500e-01 7.680815e+02 
1.662200e-01 7.602774e+02 
1.674000e-01 7.530636e+02 
1.685000e-01 7.464507e+02 
1.697500e-01 7.388444e+02 
1.710300e-01 7.309786e+02 
1.722200e-01 7.237955e+02 
1.734400e-01 7.159692e+02 
1.746400e-01 7.083806e+02 
1.758700e-01 7.005391e+02 
1.770900e-01 6.924945e+02 
1.782700e-01 6.848478e+02 
1.794600e-01 6.769772e+02 
1.807000e-01 6.687244e+02 
1.819100e-01 6.608132e+02 
1.830100e-01 6.535186e+02 
1.842200e-01 6.455899e+02 
1.855000e-01 6.373491e+02 
1.867000e-01 6.296926e+02 
1.879200e-01 6.220422e+02 
1.890900e-01 6.148455e+02 
1.902800e-01 6.077314e+02 
1.915200e-01 6.004434e+02 
1.926900e-01 5.937317e+02 
1.939000e-01 5.870676e+02 
1.951700e-01 5.801899e+02 
1.963100e-01 5.741826e+02 
1.975100e-01 5.681351e+02 
1.987800e-01 5.618380e+02 
2.000100e-01 5.559074e+02 
2.012500e-01 5.501835e+02 
2.023400e-01 5.452264e+02 
2.036100e-01 5.395707e+02 
2.048900e-01 5.340933e+02 
2.060400e-01 5.292460e+02 
2.072200e-01 5.243499e+02 
2.084200e-01 5.195202e+02 
2.096900e-01 5.144852e+02 
2.109200e-01 5.096820e+02 
2.121100e-01 5.051116e+02 
2.132700e-01 5.007190e+02 
2.145200e-01 4.960530e+02 
2.157200e-01 4.916109e+02 
2.168800e-01 4.873635e+02 
2.180700e-01 4.830659e+02 
2.193400e-01 4.785212e+02 
2.206000e-01 4.740345e+02 
2.217500e-01 4.699963e+02 
2.229500e-01 4.658393e+02 
2.241400e-01 4.617045e+02 
2.253500e-01 4.575559e+02 
2.264900e-01 4.536993e+02 
2.277100e-01 4.496013e+02 
2.289900e-01 4.453337e+02 
2.301500e-01 4.415190e+02 
2.313600e-01 4.375921e+02 
2.325600e-01 4.337167e+02 
2.337700e-01 4.298611e+02 
2.350000e-01 4.259945e+02 
2.362000e-01 4.222687e+02 
2.374100e-01 4.185571e+02 
2.386500e-01 4.148040e+02 
2.399100e-01 4.110419e+02 
2.410400e-01 4.077229e+02 
2.422500e-01 4.042148e+02 
2.435000e-01 4.006382e+02 
2.447300e-01 3.971694e+02 
2.458700e-01 3.940123e+02 
2.470600e-01 3.907570e+02 
2.483300e-01 3.873273e+02 
2.495600e-01 3.840612e+02 
2.507600e-01 3.809317e+02 
2.519600e-01 3.778408e+02 
2.532200e-01 3.746360e+02 
2.543700e-01 3.717631e+02 
2.555500e-01 3.688612e+02 
2.568000e-01 3.658245e+02 
2.580100e-01 3.629211e+02 
2.592400e-01 3.600194e+02 
2.604100e-01 3.572980e+02 
2.616100e-01 3.545394e+02 
2.628400e-01 3.517454e+02 
2.640600e-01 3.490202e+02 
2.652200e-01 3.464641e+02 
2.664300e-01 3.438282e+02 
2.676500e-01 3.412016e+02 
2.688400e-01 3.386746e+02 
2.700700e-01 3.360963e+02 
2.712400e-01 3.336716e+02 
2.724800e-01 3.311310e+02 
2.736700e-01 3.287233e+02 
2.748800e-01 3.263053e+02 
2.761000e-01 3.238949e+02 
2.773200e-01 3.215117e+02 
2.785400e-01 3.191556e+02 
2.797000e-01 3.169403e+02 
2.808900e-01 3.146921e+02 
2.821400e-01 3.123568e+02 
2.833900e-01 3.100479e+02 
2.845500e-01 3.079258e+02 
2.857800e-01 3.056998e+02 
2.870300e-01 3.034628e+02 
2.882100e-01 3.013739e+02 
2.893900e-01 2.993059e+02 
2.906300e-01 2.971553e+02 
2.918900e-01 2.949942e+02 
2.930500e-01 2.930257e+02 
2.942500e-01 2.910094e+02 
2.954200e-01 2.890610e+02 
2.966500e-01 2.870339e+02 
2.978900e-01 2.850123e+02 
2.990400e-01 2.831566e+02 
3.002700e-01 2.811908e+02 
3.015100e-01 2.792292e+02 
3.026800e-01 2.773974e+02 
3.038500e-01 2.755837e+02 
3.050300e-01 2.737727e+02 
3.062600e-01 2.719017e+02 
3.075000e-01 2.700350e+02 
3.087000e-01 2.682469e+02 
3.099100e-01 2.664620e+02 
3.111200e-01 2.646953e+02 
3.123100e-01 2.629753e+02 
3.135300e-01 2.612294e+02 
3.147300e-01 2.595292e+02 
3.159900e-01 2.577620e+02 
3.171800e-01 2.561111e+02 
3.183700e-01 2.544772e+02 
3.196300e-01 2.527642e+02 
3.208400e-01 2.511356e+02 
3.220300e-01 2.495494e+02 
3.232000e-01 2.480074e+02 
3.244300e-01 2.464029e+02 
3.256700e-01 2.448012e+02 
3.269200e-01 2.432024e+02 
3.280800e-01 2.417329e+02 
3.292500e-01 2.402686e+02 
3.304800e-01 2.387450e+02 
3.317100e-01 2.372360e+02 
3.328900e-01 2.358019e+02 
3.340700e-01 2.343808e+02 
3.353600e-01 2.328469e+02 
3.365300e-01 2.314707e+02 
3.377100e-01 2.300951e+02 
3.389200e-01 2.286974e+02 
3.401600e-01 2.272784e+02 
3.413700e-01 2.259118e+02 
3.425300e-01 2.246170e+02 
3.437700e-01 2.232454e+02 
3.449800e-01 2.219193e+02 
3.461800e-01 2.206159e+02 
3.473600e-01 2.193478e+02 
3.485800e-01 2.180539e+02 
3.498100e-01 2.167612e+02 
3.510200e-01 2.155008e+02 
3.522000e-01 2.142824e+02 
3.533900e-01 2.130644e+02 
3.546400e-01 2.118049e+02 
3.558400e-01 2.106070e+02 
3.570600e-01 2.093997e+02 
3.582700e-01 2.082127e+02 
3.595000e-01 2.070167e+02 
3.607100e-01 2.058552e+02 
3.618900e-01 2.047358e+02 
3.631200e-01 2.035790e+02 
3.643200e-01 2.024601e+02 
3.655500e-01 2.013229e+02 
3.667300e-01 2.002412e+02 
3.679500e-01 1.991405e+02 
3.691900e-01 1.980312e+02 
3.703600e-01 1.969933e+02 
3.715700e-01 1.959288e+02 
3.727700e-01 1.948817e+02 
3.739900e-01 1.938287e+02 
3.752000e-01 1.927978e+02 
3.763900e-01 1.917922e+02 
3.775800e-01 1.907947e+02 
3.788200e-01 1.897638e+02 
3.800300e-01 1.887662e+02 
3.812100e-01 1.878051e+02 
3.824200e-01 1.868302e+02 
3.836100e-01 1.858791e+02 
3.848600e-01 1.848881e+02 
3.860400e-01 1.839601e+02 
3.872400e-01 1.830238e+02 
3.884600e-01 1.820843e+02 
3.896500e-01 1.811770e+02 
3.908700e-01 1.802541e+02 
3.920600e-01 1.793609e+02 
3.933100e-01 1.784301e+02 
3.945300e-01 1.775290e+02 
3.957200e-01 1.766615e+02 
3.969300e-01 1.757875e+02 
3.981700e-01 1.748988e+02 
3.993500e-01 1.740597e+02 
4.094840e-01 1.671305e+02 
4.272360e-01 1.561132e+02 
4.454600e-01 1.460491e+02 
4.630560e-01 1.373482e+02 
4.804610e-01 1.295831e+02 
4.980690e-01 1.224659e+02 
5.159230e-01 1.159086e+02 
5.317440e-01 1.105866e+02 
5.489640e-01 1.052590e+02 
5.671990e-01 1.000895e+02 
5.838690e-01 9.573685e+01 
6.018840e-01 9.139616e+01 
6.202330e-01 8.732534e+01 
6.379250e-01 8.369295e+01 
6.545410e-01 8.052745e+01 
6.714560e-01 7.751935e+01 
6.892080e-01 7.457695e+01 
7.066010e-01 7.189028e+01 
7.240540e-01 6.936775e+01 
7.420450e-01 6.693848e+01 
7.593780e-01 6.474708e+01 
7.764720e-01 6.271436e+01 
7.942840e-01 6.072281e+01 
8.116170e-01 5.890011e+01 
8.288310e-01 5.719298e+01 
8.462240e-01 5.556321e+01 
8.631980e-01 5.405858e+01 
8.810700e-01 5.255901e+01 
8.989410e-01 5.113932e+01 
9.166330e-01 4.980706e+01 
9.345640e-01 4.852611e+01 
9.515980e-01 4.736835e+01 
9.688720e-01 4.624981e+01 
9.865640e-01 4.515870e+01 
1.031870e+00 4.258308e+01 
1.063490e+00 4.095336e+01 
1.097920e+00 3.931699e+01 
1.134370e+00 3.771921e+01 
1.167730e+00 3.636653e+01 
1.203830e+00 3.500725e+01 
1.240470e+00 3.372596e+01 
1.275790e+00 3.257501e+01 
1.309140e+00 3.155673e+01 
1.342970e+00 3.058454e+01 
1.378420e+00 2.962614e+01 
1.413200e+00 2.874032e+01 
1.448110e+00 2.790011e+01 
1.484090e+00 2.708149e+01 
1.518820e+00 2.633325e+01 
1.552880e+00 2.563570e+01 
1.588630e+00 2.493934e+01 
1.623230e+00 2.429787e+01 
1.657720e+00 2.368827e+01 
1.692450e+00 2.310190e+01 
1.726400e+00 2.255342e+01 
1.762200e+00 2.199947e+01 
1.797880e+00 2.147129e+01 
1.833270e+00 2.096950e+01 
1.869070e+00 2.048236e+01 
1.903200e+00 2.003628e+01 
1.937740e+00 1.960205e+01 
1.973190e+00 1.917278e+01 
2.007440e+00 1.877333e+01 
2.042160e+00 1.838278e+01 
2.077900e+00 1.799500e+01 
2.112390e+00 1.763403e+01 
2.146220e+00 1.729140e+01 
2.181600e+00 1.694500e+01 
2.216930e+00 1.661038e+01 
2.250760e+00 1.630020e+01 
2.286500e+00 1.598297e+01 
2.321770e+00 1.567993e+01 
2.355950e+00 1.539498e+01 
2.391280e+00 1.510899e+01 
2.426240e+00 1.483436e+01 
2.460670e+00 1.457188e+01 
2.495640e+00 1.431316e+01 
2.531080e+00 1.405780e+01 
2.566220e+00 1.381177e+01 
2.600830e+00 1.357621e+01 
2.635080e+00 1.334945e+01 
2.670340e+00 1.312171e+01 
2.705970e+00 1.289779e+01 
2.740040e+00 1.268937e+01 
2.774520e+00 1.248351e+01 
2.809730e+00 1.227840e+01 
2.844390e+00 1.208175e+01 
2.879960e+00 1.188486e+01 
2.914860e+00 1.169611e+01 
2.949410e+00 1.151394e+01 
2.984440e+00 1.133337e+01 
3.019760e+00 1.115563e+01 
3.054730e+00 1.098404e+01 
3.089030e+00 1.081887e+01 
3.124060e+00 1.065424e+01 
3.159560e+00 1.049118e+01 
3.194710e+00 1.033317e+01 
3.229010e+00 1.018267e+01 
3.263320e+00 1.003464e+01 
3.297930e+00 9.888804e+00 
3.332830e+00 9.744779e+00 
3.368040e+00 9.602470e+00 
3.403300e+00 9.463063e+00 
3.438450e+00 9.326716e+00 
3.473060e+00 9.195585e+00 
3.508440e+00 9.063610e+00 
3.543110e+00 8.937273e+00 
3.577470e+00 8.814147e+00 
3.613040e+00 8.689468e+00 
3.648120e+00 8.568684e+00 
3.682910e+00 8.451378e+00 
3.718050e+00 8.335014e+00 
3.753320e+00 8.220542e+00 
3.787980e+00 8.110043e+00 
3.822290e+00 8.002771e+00 
3.857020e+00 7.896073e+00 
3.891920e+00 7.790934e+00 
3.926650e+00 7.688059e+00 
3.961970e+00 7.585484e+00 
3.997360e+00 7.484340e+00 
4.031670e+00 7.388261e+00 
4.066330e+00 7.292651e+00 
4.101420e+00 7.197884e+00 
4.136200e+00 7.105148e+00 
4.170810e+00 7.014789e+00 
4.206250e+00 6.923600e+00 
4.241580e+00 6.834487e+00 
4.276300e+00 6.748298e+00 
4.310970e+00 6.663743e+00 
4.346120e+00 6.579498e+00 
4.380600e+00 6.498094e+00 
4.414730e+00 6.419080e+00 
4.450350e+00 6.337674e+00 
4.485320e+00 6.259342e+00 
4.519810e+00 6.183171e+00 
4.555430e+00 6.105849e+00 
4.590870e+00 6.030252e+00 
4.625480e+00 5.957482e+00 
4.659910e+00 5.886453e+00 
4.695230e+00 5.814531e+00 
4.729960e+00 5.745078e+00 
4.764450e+00 5.677209e+00 
4.799530e+00 5.609166e+00 
4.834910e+00 5.541816e+00 
4.869700e+00 5.476422e+00 
4.904370e+00 5.412369e+00 
4.939450e+00 5.348622e+00 
4.973940e+00 5.286793e+00 
5.008430e+00 5.226055e+00 
5.043810e+00 5.164615e+00 
5.078840e+00 5.104727e+00 
5.113500e+00 5.046510e+00 
5.148890e+00 4.987735e+00 
5.184210e+00 4.930091e+00 
5.219060e+00 4.874134e+00 
5.253660e+00 4.819334e+00 
5.288570e+00 4.764982e+00 
5.323420e+00 4.711492e+00 
5.358440e+00 4.658481e+00 
5.393590e+00 4.606169e+00 
5.428310e+00 4.555193e+00 
5.462800e+00 4.505300e+00 
5.497640e+00 4.455725e+00 
5.532670e+00 4.406521e+00 
5.567280e+00 4.358640e+00 
5.602000e+00 4.311381e+00 
5.637270e+00 4.263972e+00 
5.672410e+00 4.217462e+00 
5.707020e+00 4.172383e+00 
5.742040e+00 4.127343e+00 
5.777430e+00 4.082520e+00 
5.812210e+00 4.039166e+00 
5.846820e+00 3.996564e+00 
5.881610e+00 3.954368e+00 
5.916510e+00 3.912693e+00 
5.951600e+00 3.871337e+00 
5.986560e+00 3.830723e+00 
6.021830e+00 3.790376e+00 
6.056490e+00 3.751255e+00 
6.091160e+00 3.712645e+00 
6.125830e+00 3.674611e+00 
6.161090e+00 3.636479e+00 
6.195760e+00 3.599478e+00 
6.230420e+00 3.563031e+00 
6.265690e+00 3.526486e+00 
6.300950e+00 3.490396e+00 
6.335620e+00 3.455428e+00 
6.370880e+00 3.420382e+00 
6.405550e+00 3.386366e+00 
6.440220e+00 3.352813e+00 
6.475480e+00 3.319178e+00 
6.510150e+00 3.286562e+00 
6.544810e+00 3.254379e+00 
6.580080e+00 3.222092e+00 
6.614750e+00 3.190801e+00 
6.649410e+00 3.159908e+00 
6.684080e+00 3.129425e+00 
6.719340e+00 3.098853e+00 
6.754010e+00 3.069197e+00 
6.788680e+00 3.039922e+00 
6.823940e+00 3.010556e+00 
6.859800e+00 2.981103e+00 
6.894470e+00 2.953001e+00 
6.929140e+00 2.925268e+00 
6.963800e+00 2.897913e+00 
6.999070e+00 2.870448e+00 
7.033730e+00 2.843807e+00 
7.068400e+00 2.817509e+00 
7.103660e+00 2.791116e+00 
7.138330e+00 2.765503e+00 
7.173600e+00 2.739784e+00 
7.208260e+00 2.714838e+00 
7.243530e+00 2.689782e+00 
7.277600e+00 2.665892e+00 
7.312860e+00 2.641484e+00 
7.348120e+00 2.617391e+00 
7.382790e+00 2.594003e+00 
7.417460e+00 2.570910e+00 
7.452720e+00 2.547720e+00 
7.487390e+00 2.525206e+00 
7.522650e+00 2.502595e+00 
7.557320e+00 2.480662e+00 
7.591990e+00 2.459008e+00 
7.627250e+00 2.437257e+00 
7.662510e+00 2.415776e+00 
7.697180e+00 2.394935e+00 
7.731850e+00 2.374354e+00 
7.766510e+00 2.354027e+00 
7.801180e+00 2.333938e+00 
7.836440e+00 2.313765e+00 
7.871110e+00 2.294174e+00 
7.906380e+00 2.274483e+00 
7.941040e+00 2.255363e+00 
7.976310e+00 2.236152e+00 
8.011570e+00 2.217193e+00 
8.046240e+00 2.198771e+00 
8.080900e+00 2.180567e+00 
8.115570e+00 2.162579e+00 
8.150830e+00 2.144537e+00 
8.185500e+00 2.127002e+00 
8.220770e+00 2.109369e+00 
8.255430e+00 2.092239e+00 
8.290100e+00 2.075329e+00 
8.324770e+00 2.058613e+00 
8.359430e+00 2.042090e+00 
8.394700e+00 2.025465e+00 
8.429960e+00 2.009056e+00 
8.464630e+00 1.993125e+00 
8.499890e+00 1.977103e+00 
8.534560e+00 1.961524e+00 
8.569200e+00 1.946129e+00 
