# Parameters:
# omega_b = 0.021887, omega_m = 0.143710, n_s = 0.998387, h = 71.451613, w = -1.000000, sigma_8 = 0.767419
# z = 1.950000
#
# k[1/Mpc] # P(k):
8.694000e-04 1.969295e+03 
2.077466e-03 4.340590e+03 
3.285532e-03 6.253420e+03 
4.493598e-03 7.767002e+03 
5.701664e-03 8.926272e+03 
6.909730e-03 9.779931e+03 
8.117797e-03 1.038862e+04 
9.325863e-03 1.078380e+04 
1.053393e-02 1.099828e+04 
1.174199e-02 1.106366e+04 
1.295006e-02 1.099998e+04 
1.415813e-02 1.083485e+04 
1.536619e-02 1.059183e+04 
1.657426e-02 1.028687e+04 
1.778233e-02 9.935104e+03 
1.899039e-02 9.559181e+03 
2.019846e-02 9.171658e+03 
2.140652e-02 8.783846e+03 
2.261459e-02 8.402036e+03 
2.382266e-02 8.034346e+03 
2.503072e-02 7.686912e+03 
2.623879e-02 7.362528e+03 
2.744685e-02 7.062466e+03 
2.865492e-02 6.788328e+03 
2.986299e-02 6.539379e+03 
3.100100e-02 6.327891e+03 
3.220400e-02 6.126913e+03 
3.288100e-02 6.023880e+03 
3.424300e-02 5.835752e+03 
3.555100e-02 5.675791e+03 
3.686000e-02 5.533276e+03 
3.795000e-02 5.425441e+03 
3.929100e-02 5.303942e+03 
4.039800e-02 5.209834e+03 
4.164000e-02 5.108824e+03 
4.294400e-02 5.004020e+03 
4.415000e-02 4.907914e+03 
4.542900e-02 4.802398e+03 
4.660900e-02 4.703340e+03 
4.782300e-02 4.594684e+03 
4.892900e-02 4.492855e+03 
5.031200e-02 4.359911e+03 
5.155900e-02 4.234593e+03 
5.238100e-02 4.149927e+03 
5.378200e-02 4.002907e+03 
5.513400e-02 3.858120e+03 
5.627600e-02 3.734713e+03 
5.735300e-02 3.618476e+03 
5.870100e-02 3.474048e+03 
5.988700e-02 3.349399e+03 
6.113500e-02 3.221574e+03 
6.225900e-02 3.110630e+03 
6.340100e-02 3.003342e+03 
6.480200e-02 2.880261e+03 
6.601100e-02 2.783276e+03 
6.725500e-02 2.692753e+03 
6.829100e-02 2.625206e+03 
6.958600e-02 2.548868e+03 
7.071100e-02 2.490326e+03 
7.192300e-02 2.434105e+03 
7.307400e-02 2.386650e+03 
7.412300e-02 2.347809e+03 
7.550400e-02 2.302685e+03 
7.663100e-02 2.269535e+03 
7.791200e-02 2.235916e+03 
7.912700e-02 2.206721e+03 
8.027600e-02 2.180590e+03 
8.138400e-02 2.156243e+03 
8.272200e-02 2.127332e+03 
8.406100e-02 2.098198e+03 
8.534100e-02 2.069085e+03 
8.653800e-02 2.040204e+03 
8.759800e-02 2.013534e+03 
8.900300e-02 1.976166e+03 
9.009000e-02 1.945348e+03 
9.113300e-02 1.913917e+03 
9.239600e-02 1.874665e+03 
9.358000e-02 1.836203e+03 
9.496100e-02 1.789142e+03 
9.608400e-02 1.750315e+03 
9.727500e-02 1.709031e+03 
9.852600e-02 1.664511e+03 
9.973800e-02 1.622168e+03 
1.009000e-01 1.582356e+03 
1.020900e-01 1.542455e+03 
1.034000e-01 1.500266e+03 
1.046000e-01 1.463220e+03 
1.057200e-01 1.430880e+03 
1.069100e-01 1.398102e+03 
1.082500e-01 1.364191e+03 
1.093900e-01 1.337667e+03 
1.105400e-01 1.312478e+03 
1.116900e-01 1.290151e+03 
1.129600e-01 1.266951e+03 
1.142000e-01 1.247000e+03 
1.153300e-01 1.230084e+03 
1.166400e-01 1.212219e+03 
1.177800e-01 1.198054e+03 
1.190000e-01 1.183725e+03 
1.201200e-01 1.171525e+03 
1.213400e-01 1.158667e+03 
1.227100e-01 1.144797e+03 
1.238900e-01 1.133065e+03 
1.250700e-01 1.121255e+03 
1.263200e-01 1.108743e+03 
1.275500e-01 1.096062e+03 
1.287500e-01 1.083474e+03 
1.299900e-01 1.069967e+03 
1.311300e-01 1.057227e+03 
1.323500e-01 1.042992e+03 
1.335900e-01 1.028206e+03 
1.347100e-01 1.014290e+03 
1.359800e-01 9.983619e+02 
1.372100e-01 9.822972e+02 
1.384300e-01 9.664061e+02 
1.395700e-01 9.511101e+02 
1.407700e-01 9.353008e+02 
1.420300e-01 9.183675e+02 
1.432800e-01 9.019768e+02 
1.444500e-01 8.867424e+02 
1.456300e-01 8.717254e+02 
1.468900e-01 8.562936e+02 
1.480500e-01 8.424784e+02 
1.491700e-01 8.297133e+02 
1.503800e-01 8.165858e+02 
1.516400e-01 8.034044e+02 
1.528200e-01 7.921344e+02 
1.540200e-01 7.809071e+02 
1.551900e-01 7.710138e+02 
1.564300e-01 7.609379e+02 
1.576600e-01 7.515608e+02 
1.588700e-01 7.430170e+02 
1.600900e-01 7.345986e+02 
1.612700e-01 7.272164e+02 
1.625400e-01 7.194186e+02 
1.637600e-01 7.122207e+02 
1.649500e-01 7.054151e+02 
1.662200e-01 6.982654e+02 
1.674000e-01 6.916385e+02 
1.685000e-01 6.855635e+02 
1.697500e-01 6.785607e+02 
1.710300e-01 6.713045e+02 
1.722200e-01 6.646781e+02 
1.734400e-01 6.574259e+02 
1.746400e-01 6.503929e+02 
1.758700e-01 6.431186e+02 
1.770900e-01 6.356419e+02 
1.782700e-01 6.285356e+02 
1.794600e-01 6.212134e+02 
1.807000e-01 6.135308e+02 
1.819100e-01 6.061669e+02 
1.830100e-01 5.993804e+02 
1.842200e-01 5.920052e+02 
1.855000e-01 5.843407e+02 
1.867000e-01 5.772278e+02 
1.879200e-01 5.701214e+02 
1.890900e-01 5.634396e+02 
1.902800e-01 5.568489e+02 
1.915200e-01 5.500975e+02 
1.926900e-01 5.438844e+02 
1.939000e-01 5.377286e+02 
1.951700e-01 5.313758e+02 
1.963100e-01 5.258315e+02 
1.975100e-01 5.202618e+02 
1.987800e-01 5.144625e+02 
2.000100e-01 5.090045e+02 
2.012500e-01 5.037456e+02 
2.023400e-01 4.991912e+02 
2.036100e-01 4.939962e+02 
2.048900e-01 4.889693e+02 
2.060400e-01 4.845208e+02 
2.072200e-01 4.800272e+02 
2.084200e-01 4.755933e+02 
2.096900e-01 4.709707e+02 
2.109200e-01 4.665611e+02 
2.121100e-01 4.623598e+02 
2.132700e-01 4.583218e+02 
2.145200e-01 4.540325e+02 
2.157200e-01 4.499418e+02 
2.168800e-01 4.460274e+02 
2.180700e-01 4.420668e+02 
2.193400e-01 4.378747e+02 
2.206000e-01 4.337292e+02 
2.217500e-01 4.299982e+02 
2.229500e-01 4.261576e+02 
2.241400e-01 4.223282e+02 
2.253500e-01 4.184860e+02 
2.264900e-01 4.149144e+02 
2.277100e-01 4.111159e+02 
2.289900e-01 4.071565e+02 
2.301500e-01 4.036175e+02 
2.313600e-01 3.999747e+02 
2.325600e-01 3.963744e+02 
2.337700e-01 3.927928e+02 
2.350000e-01 3.892012e+02 
2.362000e-01 3.857399e+02 
2.374100e-01 3.822910e+02 
2.386500e-01 3.788038e+02 
2.399100e-01 3.753085e+02 
2.410400e-01 3.722250e+02 
2.422500e-01 3.689660e+02 
2.435000e-01 3.656437e+02 
2.447300e-01 3.624220e+02 
2.458700e-01 3.594905e+02 
2.470600e-01 3.564680e+02 
2.483300e-01 3.532839e+02 
2.495600e-01 3.502533e+02 
2.507600e-01 3.473514e+02 
2.519600e-01 3.444855e+02 
2.532200e-01 3.415142e+02 
2.543700e-01 3.388530e+02 
2.555500e-01 3.361664e+02 
2.568000e-01 3.333553e+02 
2.580100e-01 3.306677e+02 
2.592400e-01 3.279836e+02 
2.604100e-01 3.254672e+02 
2.616100e-01 3.229165e+02 
2.628400e-01 3.203333e+02 
2.640600e-01 3.178162e+02 
2.652200e-01 3.154564e+02 
2.664300e-01 3.130230e+02 
2.676500e-01 3.105982e+02 
2.688400e-01 3.082673e+02 
2.700700e-01 3.058903e+02 
2.712400e-01 3.036549e+02 
2.724800e-01 3.013128e+02 
2.736700e-01 2.990938e+02 
2.748800e-01 2.968660e+02 
2.761000e-01 2.946452e+02 
2.773200e-01 2.924496e+02 
2.785400e-01 2.902792e+02 
2.797000e-01 2.882394e+02 
2.808900e-01 2.861694e+02 
2.821400e-01 2.840192e+02 
2.833900e-01 2.818934e+02 
2.845500e-01 2.799397e+02 
2.857800e-01 2.778905e+02 
2.870300e-01 2.758312e+02 
2.882100e-01 2.739084e+02 
2.893900e-01 2.720047e+02 
2.906300e-01 2.700250e+02 
2.918900e-01 2.680357e+02 
2.930500e-01 2.662238e+02 
2.942500e-01 2.643678e+02 
2.954200e-01 2.625739e+02 
2.966500e-01 2.607078e+02 
2.978900e-01 2.588466e+02 
2.990400e-01 2.571384e+02 
3.002700e-01 2.553286e+02 
3.015100e-01 2.535229e+02 
3.026800e-01 2.518366e+02 
3.038500e-01 2.501672e+02 
3.050300e-01 2.485002e+02 
3.062600e-01 2.467776e+02 
3.075000e-01 2.450589e+02 
3.087000e-01 2.434128e+02 
3.099100e-01 2.417697e+02 
3.111200e-01 2.401432e+02 
3.123100e-01 2.385593e+02 
3.135300e-01 2.369518e+02 
3.147300e-01 2.353863e+02 
3.159900e-01 2.337593e+02 
3.171800e-01 2.322395e+02 
3.183700e-01 2.307354e+02 
3.196300e-01 2.291588e+02 
3.208400e-01 2.276598e+02 
3.220300e-01 2.261999e+02 
3.232000e-01 2.247807e+02 
3.244300e-01 2.233039e+02 
3.256700e-01 2.218299e+02 
3.269200e-01 2.203586e+02 
3.280800e-01 2.190063e+02 
3.292500e-01 2.176588e+02 
3.304800e-01 2.162569e+02 
3.317100e-01 2.148684e+02 
3.328900e-01 2.135488e+02 
3.340700e-01 2.122414e+02 
3.353600e-01 2.108301e+02 
3.365300e-01 2.095638e+02 
3.377100e-01 2.082983e+02 
3.389200e-01 2.070124e+02 
3.401600e-01 2.057070e+02 
3.413700e-01 2.044500e+02 
3.425300e-01 2.032592e+02 
3.437700e-01 2.019977e+02 
3.449800e-01 2.007782e+02 
3.461800e-01 1.995796e+02 
3.473600e-01 1.984135e+02 
3.485800e-01 1.972235e+02 
3.498100e-01 1.960346e+02 
3.510200e-01 1.948756e+02 
3.522000e-01 1.937553e+02 
3.533900e-01 1.926353e+02 
3.546400e-01 1.914774e+02 
3.558400e-01 1.903761e+02 
3.570600e-01 1.892663e+02 
3.582700e-01 1.881753e+02 
3.595000e-01 1.870759e+02 
3.607100e-01 1.860084e+02 
3.618900e-01 1.849799e+02 
3.631200e-01 1.839169e+02 
3.643200e-01 1.828887e+02 
3.655500e-01 1.818439e+02 
3.667300e-01 1.808500e+02 
3.679500e-01 1.798385e+02 
3.691900e-01 1.788193e+02 
3.703600e-01 1.778656e+02 
3.715700e-01 1.768875e+02 
3.727700e-01 1.759256e+02 
3.739900e-01 1.749581e+02 
3.752000e-01 1.740108e+02 
3.763900e-01 1.730869e+02 
3.775800e-01 1.721704e+02 
3.788200e-01 1.712233e+02 
3.800300e-01 1.703068e+02 
3.812100e-01 1.694239e+02 
3.824200e-01 1.685284e+02 
3.836100e-01 1.676547e+02 
3.848600e-01 1.667445e+02 
3.860400e-01 1.658921e+02 
3.872400e-01 1.650322e+02 
3.884600e-01 1.641693e+02 
3.896500e-01 1.633359e+02 
3.908700e-01 1.624883e+02 
3.920600e-01 1.616680e+02 
3.933100e-01 1.608132e+02 
3.945300e-01 1.599856e+02 
3.957200e-01 1.591889e+02 
3.969300e-01 1.583862e+02 
3.981700e-01 1.575701e+02 
3.993500e-01 1.567995e+02 
4.094840e-01 1.504370e+02 
4.272360e-01 1.403254e+02 
4.454600e-01 1.310944e+02 
4.630560e-01 1.231218e+02 
4.804610e-01 1.160139e+02 
4.980690e-01 1.095074e+02 
5.159230e-01 1.035205e+02 
5.317440e-01 9.866739e+01 
5.489640e-01 9.381497e+01 
5.671990e-01 8.911294e+01 
5.838690e-01 8.515707e+01 
6.018840e-01 8.121633e+01 
6.202330e-01 7.752367e+01 
6.379250e-01 7.423066e+01 
6.545410e-01 7.136267e+01 
6.714560e-01 6.863871e+01 
6.892080e-01 6.597522e+01 
7.066010e-01 6.354417e+01 
7.240540e-01 6.126293e+01 
7.420450e-01 5.906630e+01 
7.593780e-01 5.708550e+01 
7.764720e-01 5.524908e+01 
7.942840e-01 5.345049e+01 
8.116170e-01 5.180509e+01 
8.288310e-01 5.026446e+01 
8.462240e-01 4.879418e+01 
8.631980e-01 4.743773e+01 
8.810700e-01 4.608673e+01 
8.989410e-01 4.480841e+01 
9.166330e-01 4.360947e+01 
9.345640e-01 4.245761e+01 
9.515980e-01 4.141710e+01 
9.688720e-01 4.041281e+01 
9.865640e-01 3.943387e+01 
1.031870e+00 3.712625e+01 
1.063490e+00 3.566917e+01 
1.097920e+00 3.420862e+01 
1.134370e+00 3.278515e+01 
1.167730e+00 3.158224e+01 
1.203830e+00 3.037612e+01 
1.240470e+00 2.924126e+01 
1.275790e+00 2.822409e+01 
1.309140e+00 2.732550e+01 
1.342970e+00 2.646978e+01 
1.378420e+00 2.562743e+01 
1.413200e+00 2.485023e+01 
1.448110e+00 2.411452e+01 
1.484090e+00 2.339870e+01 
1.518820e+00 2.274571e+01 
1.552880e+00 2.213784e+01 
1.588630e+00 2.153201e+01 
1.623230e+00 2.097458e+01 
1.657720e+00 2.044572e+01 
1.692450e+00 1.993747e+01 
1.726400e+00 1.946296e+01 
1.762200e+00 1.898433e+01 
1.797880e+00 1.852833e+01 
1.833270e+00 1.809563e+01 
1.869070e+00 1.767608e+01 
1.903200e+00 1.729223e+01 
1.937740e+00 1.691902e+01 
1.973190e+00 1.655031e+01 
2.007440e+00 1.620753e+01 
2.042160e+00 1.587263e+01 
2.077900e+00 1.554040e+01 
2.112390e+00 1.523140e+01 
2.146220e+00 1.493835e+01 
2.181600e+00 1.464219e+01 
2.216930e+00 1.435628e+01 
2.250760e+00 1.409139e+01 
2.286500e+00 1.382065e+01 
2.321770e+00 1.356219e+01 
2.355950e+00 1.331917e+01 
2.391280e+00 1.307552e+01 
2.426240e+00 1.284159e+01 
2.460670e+00 1.261806e+01 
2.495640e+00 1.239779e+01 
2.531080e+00 1.218046e+01 
2.566220e+00 1.197115e+01 
2.600830e+00 1.177079e+01 
2.635080e+00 1.157792e+01 
2.670340e+00 1.138437e+01 
2.705970e+00 1.119401e+01 
2.740040e+00 1.101683e+01 
2.774520e+00 1.084190e+01 
2.809730e+00 1.066763e+01 
2.844390e+00 1.050055e+01 
2.879960e+00 1.033329e+01 
2.914860e+00 1.017292e+01 
2.949410e+00 1.001812e+01 
2.984440e+00 9.864716e+00 
3.019760e+00 9.713718e+00 
3.054730e+00 9.567948e+00 
3.089030e+00 9.427588e+00 
3.124060e+00 9.287671e+00 
3.159560e+00 9.149069e+00 
3.194710e+00 9.014737e+00 
3.229010e+00 8.886785e+00 
3.263320e+00 8.760912e+00 
3.297930e+00 8.636888e+00 
3.332830e+00 8.514388e+00 
3.368040e+00 8.393303e+00 
3.403300e+00 8.274651e+00 
3.438450e+00 8.158583e+00 
3.473060e+00 8.046943e+00 
3.508440e+00 7.934510e+00 
3.543110e+00 7.826865e+00 
3.577470e+00 7.721925e+00 
3.613040e+00 7.615634e+00 
3.648120e+00 7.512604e+00 
3.682910e+00 7.412530e+00 
3.718050e+00 7.313247e+00 
3.753320e+00 7.215532e+00 
3.787980e+00 7.121150e+00 
3.822290e+00 7.029496e+00 
3.857020e+00 6.938294e+00 
3.891920e+00 6.848409e+00 
3.926650e+00 6.760437e+00 
3.961970e+00 6.672689e+00 
3.997360e+00 6.586098e+00 
4.031670e+00 6.503820e+00 
4.066330e+00 6.421875e+00 
4.101420e+00 6.340643e+00 
4.136200e+00 6.261106e+00 
4.170810e+00 6.183599e+00 
4.206250e+00 6.105301e+00 
4.241580e+00 6.028765e+00 
4.276300e+00 5.954710e+00 
4.310970e+00 5.882039e+00 
4.346120e+00 5.809600e+00 
4.380600e+00 5.739550e+00 
4.414730e+00 5.671548e+00 
4.450350e+00 5.601422e+00 
4.485320e+00 5.533938e+00 
4.519810e+00 5.468267e+00 
4.555430e+00 5.401578e+00 
4.590870e+00 5.336347e+00 
4.625480e+00 5.273503e+00 
4.659910e+00 5.212155e+00 
4.695230e+00 5.149976e+00 
4.729960e+00 5.089916e+00 
4.764450e+00 5.031207e+00 
4.799530e+00 4.972322e+00 
4.834910e+00 4.914030e+00 
4.869700e+00 4.857361e+00 
4.904370e+00 4.801838e+00 
4.939450e+00 4.746559e+00 
4.973940e+00 4.692896e+00 
5.008430e+00 4.640174e+00 
5.043810e+00 4.586809e+00 
5.078840e+00 4.534770e+00 
5.113500e+00 4.484177e+00 
5.148890e+00 4.433044e+00 
5.184210e+00 4.382886e+00 
5.219060e+00 4.334179e+00 
5.253660e+00 4.286444e+00 
5.288570e+00 4.239093e+00 
5.323420e+00 4.192463e+00 
5.358440e+00 4.146216e+00 
5.393590e+00 4.100574e+00 
5.428310e+00 4.056068e+00 
5.462800e+00 4.012489e+00 
5.497640e+00 3.969183e+00 
5.532670e+00 3.926163e+00 
5.567280e+00 3.884286e+00 
5.602000e+00 3.842949e+00 
5.637270e+00 3.801442e+00 
5.672410e+00 3.760710e+00 
5.707020e+00 3.721229e+00 
5.742040e+00 3.681739e+00 
5.777430e+00 3.642429e+00 
5.812210e+00 3.604403e+00 
5.846820e+00 3.567010e+00 
5.881610e+00 3.529965e+00 
5.916510e+00 3.493374e+00 
5.951600e+00 3.457040e+00 
5.986560e+00 3.421346e+00 
6.021830e+00 3.385884e+00 
6.056490e+00 3.351474e+00 
6.091160e+00 3.317491e+00 
6.125830e+00 3.284013e+00 
6.161090e+00 3.250436e+00 
6.195760e+00 3.217834e+00 
6.230420e+00 3.185718e+00 
6.265690e+00 3.153512e+00 
6.300950e+00 3.121679e+00 
6.335620e+00 3.090834e+00 
6.370880e+00 3.059917e+00 
6.405550e+00 3.029885e+00 
6.440220e+00 3.000252e+00 
6.475480e+00 2.970544e+00 
6.510150e+00 2.941729e+00 
6.544810e+00 2.913282e+00 
6.580080e+00 2.884740e+00 
6.614750e+00 2.857077e+00 
6.649410e+00 2.829745e+00 
6.684080e+00 2.802768e+00 
6.719340e+00 2.775711e+00 
6.754010e+00 2.749457e+00 
6.788680e+00 2.723522e+00 
6.823940e+00 2.697504e+00 
6.859800e+00 2.671409e+00 
6.894470e+00 2.646498e+00 
6.929140e+00 2.621911e+00 
6.963800e+00 2.597656e+00 
6.999070e+00 2.573301e+00 
7.033730e+00 2.549657e+00 
7.068400e+00 2.526316e+00 
7.103660e+00 2.502889e+00 
7.138330e+00 2.480149e+00 
7.173600e+00 2.457303e+00 
7.208260e+00 2.435143e+00 
7.243530e+00 2.412885e+00 
7.277600e+00 2.391656e+00 
7.312860e+00 2.369964e+00 
7.348120e+00 2.348550e+00 
7.382790e+00 2.327761e+00 
7.417460e+00 2.307221e+00 
7.452720e+00 2.286588e+00 
7.487390e+00 2.266554e+00 
7.522650e+00 2.246433e+00 
7.557320e+00 2.226908e+00 
7.591990e+00 2.207629e+00 
7.627250e+00 2.188263e+00 
7.662510e+00 2.169136e+00 
7.697180e+00 2.150572e+00 
7.731850e+00 2.132237e+00 
7.766510e+00 2.114128e+00 
7.801180e+00 2.096229e+00 
7.836440e+00 2.078249e+00 
7.871110e+00 2.060783e+00 
7.906380e+00 2.043227e+00 
7.941040e+00 2.026179e+00 
7.976310e+00 2.009048e+00 
8.011570e+00 1.992139e+00 
8.046240e+00 1.975707e+00 
8.080900e+00 1.959471e+00 
8.115570e+00 1.943424e+00 
8.150830e+00 1.927323e+00 
8.185500e+00 1.911674e+00 
8.220770e+00 1.895937e+00 
8.255430e+00 1.880649e+00 
8.290100e+00 1.865551e+00 
8.324770e+00 1.850625e+00 
8.359430e+00 1.835871e+00 
8.394700e+00 1.821026e+00 
8.429960e+00 1.806370e+00 
8.464630e+00 1.792138e+00 
8.499890e+00 1.777824e+00 
8.534560e+00 1.763905e+00 
8.569200e+00 1.750151e+00 
