# Parameters:
# omega_b = 0.023500, omega_m = 0.143150, n_s = 0.895669, h = 82.637795, w = -1.000000, sigma_8 = 0.808661
# z = 0.100000
#
# k[1/Mpc] # P(k):
8.694000e-04 1.548081e+04 
2.077466e-03 3.115137e+04 
3.285532e-03 4.280895e+04 
4.493598e-03 5.143825e+04 
5.701664e-03 5.758995e+04 
6.909730e-03 6.174891e+04 
8.117797e-03 6.440055e+04 
9.325863e-03 6.579322e+04 
1.053393e-02 6.615451e+04 
1.174199e-02 6.568611e+04 
1.295006e-02 6.452206e+04 
1.415813e-02 6.283741e+04 
1.536619e-02 6.077684e+04 
1.657426e-02 5.852126e+04 
1.778233e-02 5.640447e+04 
1.899039e-02 5.433420e+04 
2.019846e-02 5.185779e+04 
2.140652e-02 4.912254e+04 
2.261459e-02 4.642284e+04 
2.382266e-02 4.388437e+04 
2.503072e-02 4.154258e+04 
2.623879e-02 3.940366e+04 
2.744685e-02 3.747013e+04 
2.865492e-02 3.573638e+04 
2.986299e-02 3.419106e+04 
3.100100e-02 3.290149e+04 
3.220400e-02 3.169738e+04 
3.288100e-02 3.108898e+04 
3.424300e-02 2.999471e+04 
3.555100e-02 2.908204e+04 
3.686000e-02 2.828344e+04 
3.795000e-02 2.769218e+04 
3.929100e-02 2.703309e+04 
4.039800e-02 2.652510e+04 
4.164000e-02 2.598808e+04 
4.294400e-02 2.542551e+04 
4.415000e-02 2.491154e+04 
4.542900e-02 2.433955e+04 
4.660900e-02 2.380070e+04 
4.782300e-02 2.319586e+04 
4.892900e-02 2.263052e+04 
5.031200e-02 2.188549e+04 
5.155900e-02 2.117867e+04 
5.238100e-02 2.070141e+04 
5.378200e-02 1.987681e+04 
5.513400e-02 1.907187e+04 
5.627600e-02 1.839330e+04 
5.735300e-02 1.776524e+04 
5.870100e-02 1.700398e+04 
5.988700e-02 1.636488e+04 
6.113500e-02 1.572572e+04 
6.225900e-02 1.518669e+04 
6.340100e-02 1.467549e+04 
6.480200e-02 1.409665e+04 
6.601100e-02 1.364805e+04 
6.725500e-02 1.323080e+04 
6.829100e-02 1.292078e+04 
6.958600e-02 1.256662e+04 
7.071100e-02 1.229523e+04 
7.192300e-02 1.203339e+04 
7.307400e-02 1.180915e+04 
7.412300e-02 1.162333e+04 
7.550400e-02 1.140527e+04 
7.663100e-02 1.124173e+04 
7.791200e-02 1.106917e+04 
7.912700e-02 1.091474e+04 
8.027600e-02 1.077314e+04 
8.138400e-02 1.063872e+04 
8.272200e-02 1.047601e+04 
8.406100e-02 1.030913e+04 
8.534100e-02 1.014341e+04 
8.653800e-02 9.981084e+03 
8.759800e-02 9.834173e+03 
8.900300e-02 9.633245e+03 
9.009000e-02 9.470250e+03 
9.113300e-02 9.309833e+03 
9.239600e-02 9.113758e+03 
9.358000e-02 8.925895e+03 
9.496100e-02 8.703086e+03 
9.608400e-02 8.522673e+03 
9.727500e-02 8.333317e+03 
9.852600e-02 8.134599e+03 
9.973800e-02 7.948458e+03 
1.009000e-01 7.775735e+03 
1.020900e-01 7.604987e+03 
1.034000e-01 7.425183e+03 
1.046000e-01 7.268133e+03 
1.057200e-01 7.131955e+03 
1.069100e-01 6.993852e+03 
1.082500e-01 6.850788e+03 
1.093900e-01 6.737983e+03 
1.105400e-01 6.630282e+03 
1.116900e-01 6.533401e+03 
1.129600e-01 6.431957e+03 
1.142000e-01 6.342404e+03 
1.153300e-01 6.264788e+03 
1.166400e-01 6.180115e+03 
1.177800e-01 6.110863e+03 
1.190000e-01 6.039750e+03 
1.201200e-01 5.975651e+03 
1.213400e-01 5.907412e+03 
1.227100e-01 5.830789e+03 
1.238900e-01 5.765579e+03 
1.250700e-01 5.698839e+03 
1.263200e-01 5.628532e+03 
1.275500e-01 5.558171e+03 
1.287500e-01 5.488998e+03 
1.299900e-01 5.415817e+03 
1.311300e-01 5.348721e+03 
1.323500e-01 5.276510e+03 
1.335900e-01 5.203447e+03 
1.347100e-01 5.137120e+03 
1.359800e-01 5.062968e+03 
1.372100e-01 4.991598e+03 
1.384300e-01 4.922002e+03 
1.395700e-01 4.857438e+03 
1.407700e-01 4.790935e+03 
1.420300e-01 4.722924e+03 
1.432800e-01 4.656951e+03 
1.444500e-01 4.596973e+03 
1.456300e-01 4.537717e+03 
1.468900e-01 4.477074e+03 
1.480500e-01 4.422778e+03 
1.491700e-01 4.371859e+03 
1.503800e-01 4.318555e+03 
1.516400e-01 4.264589e+03 
1.528200e-01 4.216850e+03 
1.540200e-01 4.169233e+03 
1.551900e-01 4.124998e+03 
1.564300e-01 4.079328e+03 
1.576600e-01 4.035404e+03 
1.588700e-01 3.993616e+03 
1.600900e-01 3.952306e+03 
1.612700e-01 3.913749e+03 
1.625400e-01 3.873020e+03 
1.637600e-01 3.834955e+03 
1.649500e-01 3.798684e+03 
1.662200e-01 3.760623e+03 
1.674000e-01 3.725587e+03 
1.685000e-01 3.693469e+03 
1.697500e-01 3.657376e+03 
1.710300e-01 3.620872e+03 
1.722200e-01 3.587532e+03 
1.734400e-01 3.553008e+03 
1.746400e-01 3.519590e+03 
1.758700e-01 3.485700e+03 
1.770900e-01 3.452215e+03 
1.782700e-01 3.420365e+03 
1.794600e-01 3.388403e+03 
1.807000e-01 3.355405e+03 
1.819100e-01 3.323742e+03 
1.830100e-01 3.295165e+03 
1.842200e-01 3.264176e+03 
1.855000e-01 3.231947e+03 
1.867000e-01 3.202405e+03 
1.879200e-01 3.172849e+03 
1.890900e-01 3.144933e+03 
1.902800e-01 3.116904e+03 
1.915200e-01 3.088155e+03 
1.926900e-01 3.061588e+03 
1.939000e-01 3.034981e+03 
1.951700e-01 3.007493e+03 
1.963100e-01 2.983232e+03 
1.975100e-01 2.958175e+03 
1.987800e-01 2.932063e+03 
2.000100e-01 2.907205e+03 
2.012500e-01 2.882624e+03 
2.023400e-01 2.861322e+03 
2.036100e-01 2.836931e+03 
2.048900e-01 2.813012e+03 
2.060400e-01 2.791834e+03 
2.072200e-01 2.770417e+03 
2.084200e-01 2.749104e+03 
2.096900e-01 2.726874e+03 
2.109200e-01 2.705657e+03 
2.121100e-01 2.685435e+03 
2.132700e-01 2.665990e+03 
2.145200e-01 2.645325e+03 
2.157200e-01 2.625812e+03 
2.168800e-01 2.607224e+03 
2.180700e-01 2.588407e+03 
2.193400e-01 2.568636e+03 
2.206000e-01 2.549359e+03 
2.217500e-01 2.531999e+03 
2.229500e-01 2.514118e+03 
2.241400e-01 2.496756e+03 
2.253500e-01 2.479335e+03 
2.264900e-01 2.463131e+03 
2.277100e-01 2.446152e+03 
2.289900e-01 2.428736e+03 
2.301500e-01 2.413157e+03 
2.313600e-01 2.397111e+03 
2.325600e-01 2.381502e+03 
2.337700e-01 2.365961e+03 
2.350000e-01 2.350364e+03 
2.362000e-01 2.335496e+03 
2.374100e-01 2.320875e+03 
2.386500e-01 2.306079e+03 
2.399100e-01 2.291237e+03 
2.410400e-01 2.278170e+03 
2.422500e-01 2.264354e+03 
2.435000e-01 2.250257e+03 
2.447300e-01 2.236573e+03 
2.458700e-01 2.224102e+03 
2.470600e-01 2.211233e+03 
2.483300e-01 2.197667e+03 
2.495600e-01 2.184687e+03 
2.507600e-01 2.172171e+03 
2.519600e-01 2.159801e+03 
2.532200e-01 2.146966e+03 
2.543700e-01 2.135376e+03 
2.555500e-01 2.123607e+03 
2.568000e-01 2.111285e+03 
2.580100e-01 2.099496e+03 
2.592400e-01 2.087560e+03 
2.604100e-01 2.076293e+03 
2.616100e-01 2.064867e+03 
2.628400e-01 2.053286e+03 
2.640600e-01 2.041989e+03 
2.652200e-01 2.031389e+03 
2.664300e-01 2.020453e+03 
2.676500e-01 2.009548e+03 
2.688400e-01 1.998896e+03 
2.700700e-01 1.987925e+03 
2.712400e-01 1.977601e+03 
2.724800e-01 1.966779e+03 
2.736700e-01 1.956465e+03 
2.748800e-01 1.946050e+03 
2.761000e-01 1.935662e+03 
2.773200e-01 1.925386e+03 
2.785400e-01 1.915223e+03 
2.797000e-01 1.905668e+03 
2.808900e-01 1.895966e+03 
2.821400e-01 1.885883e+03 
2.833900e-01 1.875903e+03 
2.845500e-01 1.866611e+03 
2.857800e-01 1.856858e+03 
2.870300e-01 1.847052e+03 
2.882100e-01 1.837890e+03 
2.893900e-01 1.828788e+03 
2.906300e-01 1.819304e+03 
2.918900e-01 1.809767e+03 
2.930500e-01 1.801077e+03 
2.942500e-01 1.792168e+03 
2.954200e-01 1.783544e+03 
2.966500e-01 1.774569e+03 
2.978900e-01 1.765612e+03 
2.990400e-01 1.757387e+03 
3.002700e-01 1.748648e+03 
3.015100e-01 1.739915e+03 
3.026800e-01 1.731754e+03 
3.038500e-01 1.723671e+03 
3.050300e-01 1.715595e+03 
3.062600e-01 1.707236e+03 
3.075000e-01 1.698891e+03 
3.087000e-01 1.690893e+03 
3.099100e-01 1.682906e+03 
3.111200e-01 1.674984e+03 
3.123100e-01 1.667246e+03 
3.135300e-01 1.659388e+03 
3.147300e-01 1.651732e+03 
3.159900e-01 1.643769e+03 
3.171800e-01 1.636386e+03 
3.183700e-01 1.629114e+03 
3.196300e-01 1.621486e+03 
3.208400e-01 1.614230e+03 
3.220300e-01 1.607159e+03 
3.232000e-01 1.600200e+03 
3.244300e-01 1.592923e+03 
3.256700e-01 1.585655e+03 
3.269200e-01 1.578397e+03 
3.280800e-01 1.571723e+03 
3.292500e-01 1.565129e+03 
3.304800e-01 1.558284e+03 
3.317100e-01 1.551501e+03 
3.328900e-01 1.545051e+03 
3.340700e-01 1.538658e+03 
3.353600e-01 1.531754e+03 
3.365300e-01 1.525558e+03 
3.377100e-01 1.519362e+03 
3.389200e-01 1.513064e+03 
3.401600e-01 1.506666e+03 
3.413700e-01 1.500493e+03 
3.425300e-01 1.494636e+03 
3.437700e-01 1.488428e+03 
3.449800e-01 1.482424e+03 
3.461800e-01 1.476519e+03 
3.473600e-01 1.470755e+03 
3.485800e-01 1.464825e+03 
3.498100e-01 1.458899e+03 
3.510200e-01 1.453119e+03 
3.522000e-01 1.447528e+03 
3.533900e-01 1.441937e+03 
3.546400e-01 1.436192e+03 
3.558400e-01 1.430727e+03 
3.570600e-01 1.425217e+03 
3.582700e-01 1.419798e+03 
3.595000e-01 1.414335e+03 
3.607100e-01 1.409017e+03 
3.618900e-01 1.403881e+03 
3.631200e-01 1.398571e+03 
3.643200e-01 1.393433e+03 
3.655500e-01 1.388210e+03 
3.667300e-01 1.383239e+03 
3.679500e-01 1.378155e+03 
3.691900e-01 1.373029e+03 
3.703600e-01 1.368232e+03 
3.715700e-01 1.363310e+03 
3.727700e-01 1.358467e+03 
3.739900e-01 1.353591e+03 
3.752000e-01 1.348810e+03 
3.763900e-01 1.344145e+03 
3.775800e-01 1.339516e+03 
3.788200e-01 1.334731e+03 
3.800300e-01 1.330098e+03 
3.812100e-01 1.325596e+03 
3.824200e-01 1.321001e+03 
3.836100e-01 1.316516e+03 
3.848600e-01 1.311843e+03 
3.860400e-01 1.307465e+03 
3.872400e-01 1.303047e+03 
3.884600e-01 1.298602e+03 
3.896500e-01 1.294303e+03 
3.908700e-01 1.289929e+03 
3.920600e-01 1.285696e+03 
3.933100e-01 1.281282e+03 
3.945300e-01 1.277008e+03 
3.957200e-01 1.272881e+03 
3.969300e-01 1.268719e+03 
3.981700e-01 1.264486e+03 
3.993500e-01 1.260488e+03 
4.094840e-01 1.227154e+03 
4.272360e-01 1.173250e+03 
4.454600e-01 1.122558e+03 
4.630560e-01 1.077809e+03 
4.804610e-01 1.036874e+03 
4.980690e-01 9.985278e+02 
5.159230e-01 9.625018e+02 
5.317440e-01 9.325698e+02 
5.489640e-01 9.022082e+02 
5.671990e-01 8.721204e+02 
5.838690e-01 8.463562e+02 
6.018840e-01 8.202691e+02 
6.202330e-01 7.953917e+02 
6.379250e-01 7.728546e+02 
6.545410e-01 7.527925e+02 
6.714560e-01 7.334330e+02 
6.892080e-01 7.141574e+02 
7.066010e-01 6.962467e+02 
7.240540e-01 6.791604e+02 
7.420450e-01 6.622598e+02 
7.593780e-01 6.468287e+02 
7.764720e-01 6.321978e+02 
7.942840e-01 6.176465e+02 
8.116170e-01 6.039865e+02 
8.288310e-01 5.909556e+02 
8.462240e-01 5.782450e+02 
8.631980e-01 5.663462e+02 
8.810700e-01 5.542032e+02 
8.989410e-01 5.425184e+02 
9.166330e-01 5.313105e+02 
9.345640e-01 5.203168e+02 
9.515980e-01 5.101994e+02 
9.688720e-01 5.002225e+02 
9.865640e-01 4.902858e+02 
1.031870e+00 4.662875e+02 
1.063490e+00 4.505140e+02 
1.097920e+00 4.341798e+02 
1.134370e+00 4.177986e+02 
1.167730e+00 4.036103e+02 
1.203830e+00 3.889941e+02 
1.240470e+00 3.749333e+02 
1.275790e+00 3.620081e+02 
1.309140e+00 3.503981e+02 
1.342970e+00 3.391439e+02 
1.378420e+00 3.278987e+02 
1.413200e+00 3.173577e+02 
1.448110e+00 3.072360e+02 
1.484090e+00 2.972763e+02 
1.518820e+00 2.880730e+02 
1.552880e+00 2.794427e+02 
1.588630e+00 2.707822e+02 
1.623230e+00 2.627530e+02 
1.657720e+00 2.550987e+02 
1.692450e+00 2.476983e+02 
1.726400e+00 2.407415e+02 
1.762200e+00 2.336948e+02 
1.797880e+00 2.269600e+02 
1.833270e+00 2.205662e+02 
1.869070e+00 2.143299e+02 
1.903200e+00 2.086347e+02 
1.937740e+00 2.030792e+02 
1.973190e+00 1.975862e+02 
2.007440e+00 1.924827e+02 
2.042160e+00 1.875109e+02 
2.077900e+00 1.825494e+02 
2.112390e+00 1.779587e+02 
2.146220e+00 1.736072e+02 
2.181600e+00 1.692070e+02 
2.216930e+00 1.649869e+02 
2.250760e+00 1.610743e+02 
2.286500e+00 1.570748e+02 
2.321770e+00 1.532753e+02 
2.355950e+00 1.497124e+02 
2.391280e+00 1.461668e+02 
2.426240e+00 1.427566e+02 
2.460670e+00 1.395058e+02 
2.495640e+00 1.363216e+02 
2.531080e+00 1.331894e+02 
2.566220e+00 1.301802e+02 
2.600830e+00 1.273163e+02 
2.635080e+00 1.245792e+02 
2.670340e+00 1.218374e+02 
2.705970e+00 1.191520e+02 
2.740040e+00 1.166609e+02 
2.774520e+00 1.142085e+02 
2.809730e+00 1.117877e+02 
2.844390e+00 1.094785e+02 
2.879960e+00 1.071735e+02 
2.914860e+00 1.049746e+02 
2.949410e+00 1.028618e+02 
2.984440e+00 1.007863e+02 
3.019760e+00 9.875128e+01 
3.054730e+00 9.679303e+01 
3.089030e+00 9.491994e+01 
3.124060e+00 9.305931e+01 
3.159560e+00 9.122432e+01 
3.194710e+00 8.946198e+01 
3.229010e+00 8.779060e+01 
3.263320e+00 8.615779e+01 
3.297930e+00 8.455705e+01 
3.332830e+00 8.298970e+01 
3.368040e+00 8.144779e+01 
3.403300e+00 7.994289e+01 
3.438450e+00 7.847873e+01 
3.473060e+00 7.707411e+01 
3.508440e+00 7.567894e+01 
3.543110e+00 7.434661e+01 
3.577470e+00 7.305561e+01 
3.613040e+00 7.175409e+01 
3.648120e+00 7.050574e+01 
3.682910e+00 6.929713e+01 
3.718050e+00 6.810376e+01 
3.753320e+00 6.693704e+01 
3.787980e+00 6.582048e+01 
3.822290e+00 6.474013e+01 
3.857020e+00 6.367025e+01 
3.891920e+00 6.261946e+01 
3.926650e+00 6.159628e+01 
3.961970e+00 6.058099e+01 
3.997360e+00 5.958959e+01 
4.031670e+00 5.865111e+01 
4.066330e+00 5.772702e+01 
4.101420e+00 5.681251e+01 
4.136200e+00 5.592398e+01 
4.170810e+00 5.505939e+01 
4.206250e+00 5.419585e+01 
4.241580e+00 5.335452e+01 
4.276300e+00 5.254410e+01 
4.310970e+00 5.175132e+01 
4.346120e+00 5.096585e+01 
4.380600e+00 5.021347e+01 
4.414730e+00 4.948415e+01 
4.450350e+00 4.873724e+01 
4.485320e+00 4.801943e+01 
4.519810e+00 4.732758e+01 
4.555430e+00 4.662849e+01 
4.590870e+00 4.594680e+01 
4.625480e+00 4.529345e+01 
4.659910e+00 4.465644e+01 
4.695230e+00 4.401827e+01 
4.729960e+00 4.340359e+01 
4.764450e+00 4.280577e+01 
4.799530e+00 4.221075e+01 
4.834910e+00 4.162239e+01 
4.869700e+00 4.105684e+01 
4.904370e+00 4.050427e+01 
4.939450e+00 3.995540e+01 
4.973940e+00 3.942490e+01 
5.008430e+00 3.890425e+01 
5.043810e+00 3.837954e+01 
5.078840e+00 3.786940e+01 
5.113500e+00 3.737394e+01 
5.148890e+00 3.688193e+01 
5.184210e+00 3.640012e+01 
5.219060e+00 3.593306e+01 
5.253660e+00 3.547680e+01 
5.288570e+00 3.502463e+01 
5.323420e+00 3.458089e+01 
5.358440e+00 3.414246e+01 
5.393590e+00 3.371017e+01 
5.428310e+00 3.329334e+01 
5.462800e+00 3.288780e+01 
5.497640e+00 3.248514e+01 
5.532670e+00 3.208644e+01 
5.567280e+00 3.169896e+01 
5.602000e+00 3.131678e+01 
5.637270e+00 3.093460e+01 
5.672410e+00 3.056015e+01 
5.707020e+00 3.019747e+01 
5.742040e+00 2.983784e+01 
5.777430e+00 2.948069e+01 
5.812210e+00 2.913546e+01 
5.846820e+00 2.879839e+01 
5.881610e+00 2.846525e+01 
5.916510e+00 2.813640e+01 
5.951600e+00 2.781065e+01 
5.986560e+00 2.749110e+01 
6.021830e+00 2.717384e+01 
6.056490e+00 2.686860e+01 
6.091160e+00 2.656937e+01 
6.125830e+00 2.627475e+01 
6.161090e+00 2.597908e+01 
6.195760e+00 2.569141e+01 
6.230420e+00 2.540820e+01 
6.265690e+00 2.512446e+01 
6.300950e+00 2.484624e+01 
6.335620e+00 2.457682e+01 
6.370880e+00 2.430692e+01 
6.405550e+00 2.404626e+01 
6.440220e+00 2.378974e+01 
6.475480e+00 2.353272e+01 
6.510150e+00 2.328359e+01 
6.544810e+00 2.303788e+01 
6.580080e+00 2.279148e+01 
6.614750e+00 2.255279e+01 
6.649410e+00 2.231849e+01 
6.684080e+00 2.208763e+01 
6.719340e+00 2.185620e+01 
6.754010e+00 2.163175e+01 
6.788680e+00 2.141017e+01 
6.823940e+00 2.118799e+01 
6.859800e+00 2.096526e+01 
6.894470e+00 2.075358e+01 
6.929140e+00 2.054505e+01 
6.963800e+00 2.033944e+01 
6.999070e+00 2.013307e+01 
7.033730e+00 1.993284e+01 
7.068400e+00 1.973527e+01 
7.103660e+00 1.953707e+01 
7.138330e+00 1.934508e+01 
7.173600e+00 1.915295e+01 
7.208260e+00 1.896667e+01 
7.243530e+00 1.877964e+01 
7.277600e+00 1.860126e+01 
7.312860e+00 1.841898e+01 
7.348120e+00 1.823913e+01 
7.382790e+00 1.806460e+01 
7.417460e+00 1.789280e+01 
7.452720e+00 1.772059e+01 
7.487390e+00 1.755345e+01 
7.522650e+00 1.738566e+01 
7.557320e+00 1.722264e+01 
7.591990e+00 1.706163e+01 
7.627250e+00 1.689997e+01 
7.662510e+00 1.674037e+01 
7.697180e+00 1.658529e+01 
7.731850e+00 1.643209e+01 
7.766510e+00 1.628084e+01 
7.801180e+00 1.613142e+01 
7.836440e+00 1.598181e+01 
7.871110e+00 1.583680e+01 
7.906380e+00 1.569109e+01 
7.941040e+00 1.554967e+01 
7.976310e+00 1.540705e+01 
8.011570e+00 1.526566e+01 
8.046240e+00 1.512833e+01 
8.080900e+00 1.499269e+01 
8.115570e+00 1.485893e+01 
8.150830e+00 1.472564e+01 
8.185500e+00 1.459614e+01 
8.220770e+00 1.446597e+01 
8.255430e+00 1.433957e+01 
8.290100e+00 1.421397e+01 
8.324770e+00 1.408976e+01 
8.359430e+00 1.396703e+01 
8.394700e+00 1.384361e+01 
8.429960e+00 1.372190e+01 
8.464630e+00 1.360387e+01 
8.499890e+00 1.348521e+01 
8.534560e+00 1.336989e+01 
8.569200e+00 1.325598e+01 
