# Parameters:
# omega_b = 0.023374, omega_m = 0.142323, n_s = 0.873622, h = 66.811024, w = -1.000000, sigma_8 = 0.728346
# z = 0.100000
#
# k[1/Mpc] # P(k):
8.694000e-04 1.786278e+04 
2.077466e-03 3.530726e+04 
3.285532e-03 4.803624e+04 
4.493598e-03 5.732182e+04 
5.701664e-03 6.385540e+04 
6.909730e-03 6.819225e+04 
8.117797e-03 7.087445e+04 
9.325863e-03 7.218213e+04 
1.053393e-02 7.237382e+04 
1.174199e-02 7.167981e+04 
1.295006e-02 7.024683e+04 
1.415813e-02 6.826415e+04 
1.536619e-02 6.588834e+04 
1.657426e-02 6.320972e+04 
1.778233e-02 6.027146e+04 
1.899039e-02 5.724651e+04 
2.019846e-02 5.430901e+04 
2.140652e-02 5.151423e+04 
2.261459e-02 4.884552e+04 
2.382266e-02 4.632221e+04 
2.503072e-02 4.396891e+04 
2.623879e-02 4.179309e+04 
2.744685e-02 3.979602e+04 
2.865492e-02 3.797888e+04 
2.986299e-02 3.633388e+04 
3.100100e-02 3.493558e+04 
3.220400e-02 3.360559e+04 
3.288100e-02 3.292122e+04 
3.424300e-02 3.166932e+04 
3.555100e-02 3.060313e+04 
3.686000e-02 2.965160e+04 
3.795000e-02 2.893691e+04 
3.929100e-02 2.813295e+04 
4.039800e-02 2.751479e+04 
4.164000e-02 2.686631e+04 
4.294400e-02 2.620582e+04 
4.415000e-02 2.561681e+04 
4.542900e-02 2.498738e+04 
4.660900e-02 2.441101e+04 
4.782300e-02 2.378936e+04 
4.892900e-02 2.322095e+04 
5.031200e-02 2.248895e+04 
5.155900e-02 2.180712e+04 
5.238100e-02 2.135093e+04 
5.378200e-02 2.056757e+04 
5.513400e-02 1.980491e+04 
5.627600e-02 1.916067e+04 
5.735300e-02 1.856146e+04 
5.870100e-02 1.782943e+04 
5.988700e-02 1.720847e+04 
6.113500e-02 1.657975e+04 
6.225900e-02 1.604167e+04 
6.340100e-02 1.552324e+04 
6.480200e-02 1.492680e+04 
6.601100e-02 1.445394e+04 
6.725500e-02 1.400498e+04 
6.829100e-02 1.366328e+04 
6.958600e-02 1.326609e+04 
7.071100e-02 1.295443e+04 
7.192300e-02 1.264780e+04 
7.307400e-02 1.238058e+04 
7.412300e-02 1.215603e+04 
7.550400e-02 1.188868e+04 
7.663100e-02 1.168706e+04 
7.791200e-02 1.147492e+04 
7.912700e-02 1.128765e+04 
8.027600e-02 1.111908e+04 
8.138400e-02 1.096236e+04 
8.272200e-02 1.077793e+04 
8.406100e-02 1.059476e+04 
8.534100e-02 1.041929e+04 
8.653800e-02 1.025210e+04 
8.759800e-02 1.010326e+04 
8.900300e-02 9.903038e+03 
9.009000e-02 9.742708e+03 
9.113300e-02 9.586284e+03 
9.239600e-02 9.395882e+03 
9.358000e-02 9.213939e+03 
9.496100e-02 8.998162e+03 
9.608400e-02 8.823085e+03 
9.727500e-02 8.638946e+03 
9.852600e-02 8.444296e+03 
9.973800e-02 8.261087e+03 
1.009000e-01 8.090347e+03 
1.020900e-01 7.919349e+03 
1.034000e-01 7.738044e+03 
1.046000e-01 7.578382e+03 
1.057200e-01 7.437624e+03 
1.069100e-01 7.293955e+03 
1.082500e-01 7.142380e+03 
1.093900e-01 7.021189e+03 
1.105400e-01 6.904477e+03 
1.116900e-01 6.797155e+03 
1.129600e-01 6.684022e+03 
1.142000e-01 6.582321e+03 
1.153300e-01 6.493773e+03 
1.166400e-01 6.396515e+03 
1.177800e-01 6.316879e+03 
1.190000e-01 6.235052e+03 
1.201200e-01 6.162431e+03 
1.213400e-01 6.085316e+03 
1.227100e-01 6.001159e+03 
1.238900e-01 5.930127e+03 
1.250700e-01 5.859359e+03 
1.263200e-01 5.785542e+03 
1.275500e-01 5.713271e+03 
1.287500e-01 5.642923e+03 
1.299900e-01 5.569578e+03 
1.311300e-01 5.502743e+03 
1.323500e-01 5.431418e+03 
1.335900e-01 5.359370e+03 
1.347100e-01 5.294119e+03 
1.359800e-01 5.221056e+03 
1.372100e-01 5.150519e+03 
1.384300e-01 5.081518e+03 
1.395700e-01 5.017008e+03 
1.407700e-01 4.950465e+03 
1.420300e-01 4.881533e+03 
1.432800e-01 4.814658e+03 
1.444500e-01 4.752921e+03 
1.456300e-01 4.691926e+03 
1.468900e-01 4.628871e+03 
1.480500e-01 4.572226e+03 
1.491700e-01 4.518849e+03 
1.503800e-01 4.462639e+03 
1.516400e-01 4.405658e+03 
1.528200e-01 4.354913e+03 
1.540200e-01 4.304302e+03 
1.551900e-01 4.257136e+03 
1.564300e-01 4.208404e+03 
1.576600e-01 4.161546e+03 
1.588700e-01 4.116977e+03 
1.600900e-01 4.072927e+03 
1.612700e-01 4.031933e+03 
1.625400e-01 3.988631e+03 
1.637600e-01 3.948299e+03 
1.649500e-01 3.909949e+03 
1.662200e-01 3.869744e+03 
1.674000e-01 3.832941e+03 
1.685000e-01 3.799203e+03 
1.697500e-01 3.761409e+03 
1.710300e-01 3.723304e+03 
1.722200e-01 3.688503e+03 
1.734400e-01 3.652664e+03 
1.746400e-01 3.617983e+03 
1.758700e-01 3.582859e+03 
1.770900e-01 3.548248e+03 
1.782700e-01 3.515328e+03 
1.794600e-01 3.482340e+03 
1.807000e-01 3.448316e+03 
1.819100e-01 3.415668e+03 
1.830100e-01 3.386233e+03 
1.842200e-01 3.354318e+03 
1.855000e-01 3.321128e+03 
1.867000e-01 3.290712e+03 
1.879200e-01 3.260282e+03 
1.890900e-01 3.231540e+03 
1.902800e-01 3.202671e+03 
1.915200e-01 3.173061e+03 
1.926900e-01 3.145691e+03 
1.939000e-01 3.118257e+03 
1.951700e-01 3.089915e+03 
1.963100e-01 3.064893e+03 
1.975100e-01 3.039029e+03 
1.987800e-01 3.012075e+03 
2.000100e-01 2.986411e+03 
2.012500e-01 2.961017e+03 
2.023400e-01 2.939011e+03 
2.036100e-01 2.913809e+03 
2.048900e-01 2.889071e+03 
2.060400e-01 2.867168e+03 
2.072200e-01 2.845016e+03 
2.084200e-01 2.822949e+03 
2.096900e-01 2.799932e+03 
2.109200e-01 2.777965e+03 
2.121100e-01 2.756998e+03 
2.132700e-01 2.736837e+03 
2.145200e-01 2.715411e+03 
2.157200e-01 2.695152e+03 
2.168800e-01 2.675842e+03 
2.180700e-01 2.656294e+03 
2.193400e-01 2.635740e+03 
2.206000e-01 2.615672e+03 
2.217500e-01 2.597600e+03 
2.229500e-01 2.578986e+03 
2.241400e-01 2.560857e+03 
2.253500e-01 2.542667e+03 
2.264900e-01 2.525747e+03 
2.277100e-01 2.508003e+03 
2.289900e-01 2.489781e+03 
2.301500e-01 2.473483e+03 
2.313600e-01 2.456696e+03 
2.325600e-01 2.440350e+03 
2.337700e-01 2.424077e+03 
2.350000e-01 2.407744e+03 
2.362000e-01 2.392178e+03 
2.374100e-01 2.376876e+03 
2.386500e-01 2.361392e+03 
2.399100e-01 2.345858e+03 
2.410400e-01 2.332220e+03 
2.422500e-01 2.317805e+03 
2.435000e-01 2.303098e+03 
2.447300e-01 2.288833e+03 
2.458700e-01 2.275881e+03 
2.470600e-01 2.262516e+03 
2.483300e-01 2.248426e+03 
2.495600e-01 2.234971e+03 
2.507600e-01 2.222032e+03 
2.519600e-01 2.209244e+03 
2.532200e-01 2.195976e+03 
2.543700e-01 2.184017e+03 
2.555500e-01 2.171891e+03 
2.568000e-01 2.159195e+03 
2.580100e-01 2.147048e+03 
2.592400e-01 2.134766e+03 
2.604100e-01 2.123181e+03 
2.616100e-01 2.111430e+03 
2.628400e-01 2.099522e+03 
2.640600e-01 2.087903e+03 
2.652200e-01 2.077000e+03 
2.664300e-01 2.065751e+03 
2.676500e-01 2.054534e+03 
2.688400e-01 2.043563e+03 
2.700700e-01 2.032253e+03 
2.712400e-01 2.021611e+03 
2.724800e-01 2.010454e+03 
2.736700e-01 1.999807e+03 
2.748800e-01 1.989039e+03 
2.761000e-01 1.978299e+03 
2.773200e-01 1.967674e+03 
2.785400e-01 1.957155e+03 
2.797000e-01 1.947243e+03 
2.808900e-01 1.937178e+03 
2.821400e-01 1.926717e+03 
2.833900e-01 1.916361e+03 
2.845500e-01 1.906682e+03 
2.857800e-01 1.896523e+03 
2.870300e-01 1.886308e+03 
2.882100e-01 1.876764e+03 
2.893900e-01 1.867264e+03 
2.906300e-01 1.857356e+03 
2.918900e-01 1.847392e+03 
2.930500e-01 1.838313e+03 
2.942500e-01 1.828999e+03 
2.954200e-01 1.819966e+03 
2.966500e-01 1.810564e+03 
2.978900e-01 1.801182e+03 
2.990400e-01 1.792566e+03 
3.002700e-01 1.783397e+03 
3.015100e-01 1.774225e+03 
3.026800e-01 1.765655e+03 
3.038500e-01 1.757166e+03 
3.050300e-01 1.748684e+03 
3.062600e-01 1.739898e+03 
3.075000e-01 1.731126e+03 
3.087000e-01 1.722720e+03 
3.099100e-01 1.714325e+03 
3.111200e-01 1.705996e+03 
3.123100e-01 1.697858e+03 
3.135300e-01 1.689593e+03 
3.147300e-01 1.681541e+03 
3.159900e-01 1.673166e+03 
3.171800e-01 1.665396e+03 
3.183700e-01 1.657738e+03 
3.196300e-01 1.649705e+03 
3.208400e-01 1.642064e+03 
3.220300e-01 1.634618e+03 
3.232000e-01 1.627304e+03 
3.244300e-01 1.619661e+03 
3.256700e-01 1.612028e+03 
3.269200e-01 1.604404e+03 
3.280800e-01 1.597393e+03 
3.292500e-01 1.590468e+03 
3.304800e-01 1.583280e+03 
3.317100e-01 1.576157e+03 
3.328900e-01 1.569384e+03 
3.340700e-01 1.562669e+03 
3.353600e-01 1.555429e+03 
3.365300e-01 1.548935e+03 
3.377100e-01 1.542441e+03 
3.389200e-01 1.535840e+03 
3.401600e-01 1.529134e+03 
3.413700e-01 1.522675e+03 
3.425300e-01 1.516554e+03 
3.437700e-01 1.510067e+03 
3.449800e-01 1.503792e+03 
3.461800e-01 1.497622e+03 
3.473600e-01 1.491601e+03 
3.485800e-01 1.485418e+03 
3.498100e-01 1.479238e+03 
3.510200e-01 1.473211e+03 
3.522000e-01 1.467381e+03 
3.533900e-01 1.461551e+03 
3.546400e-01 1.455577e+03 
3.558400e-01 1.449897e+03 
3.570600e-01 1.444170e+03 
3.582700e-01 1.438536e+03 
3.595000e-01 1.432858e+03 
3.607100e-01 1.427337e+03 
3.618900e-01 1.422011e+03 
3.631200e-01 1.416505e+03 
3.643200e-01 1.411177e+03 
3.655500e-01 1.405761e+03 
3.667300e-01 1.400606e+03 
3.679500e-01 1.395352e+03 
3.691900e-01 1.390055e+03 
3.703600e-01 1.385098e+03 
3.715700e-01 1.380011e+03 
3.727700e-01 1.375006e+03 
3.739900e-01 1.369970e+03 
3.752000e-01 1.365036e+03 
3.763900e-01 1.360221e+03 
3.775800e-01 1.355443e+03 
3.788200e-01 1.350504e+03 
3.800300e-01 1.345723e+03 
3.812100e-01 1.341083e+03 
3.824200e-01 1.336353e+03 
3.836100e-01 1.331738e+03 
3.848600e-01 1.326927e+03 
3.860400e-01 1.322421e+03 
3.872400e-01 1.317873e+03 
3.884600e-01 1.313304e+03 
3.896500e-01 1.308890e+03 
3.908700e-01 1.304399e+03 
3.920600e-01 1.300051e+03 
3.933100e-01 1.295519e+03 
3.945300e-01 1.291129e+03 
3.957200e-01 1.286894e+03 
3.969300e-01 1.282623e+03 
3.981700e-01 1.278279e+03 
3.993500e-01 1.274176e+03 
4.094840e-01 1.239998e+03 
4.272360e-01 1.184755e+03 
4.454600e-01 1.132773e+03 
4.630560e-01 1.086794e+03 
4.804610e-01 1.044657e+03 
4.980690e-01 1.005098e+03 
5.159230e-01 9.678748e+02 
5.317440e-01 9.369139e+02 
5.489640e-01 9.054750e+02 
5.671990e-01 8.743097e+02 
5.838690e-01 8.476306e+02 
6.018840e-01 8.205995e+02 
6.202330e-01 7.948359e+02 
6.379250e-01 7.714884e+02 
6.545410e-01 7.507167e+02 
6.714560e-01 7.306758e+02 
6.892080e-01 7.107242e+02 
7.066010e-01 6.921800e+02 
7.240540e-01 6.744929e+02 
7.420450e-01 6.570005e+02 
7.593780e-01 6.410230e+02 
7.764720e-01 6.258742e+02 
7.942840e-01 6.108103e+02 
8.116170e-01 5.966568e+02 
8.288310e-01 5.831630e+02 
8.462240e-01 5.699960e+02 
8.631980e-01 5.576707e+02 
8.810700e-01 5.450961e+02 
8.989410e-01 5.329898e+02 
9.166330e-01 5.213837e+02 
9.345640e-01 5.100063e+02 
9.515980e-01 4.995358e+02 
9.688720e-01 4.892135e+02 
9.865640e-01 4.789371e+02 
1.031870e+00 4.541417e+02 
1.063490e+00 4.378681e+02 
1.097920e+00 4.210398e+02 
1.134370e+00 4.041931e+02 
1.167730e+00 3.896241e+02 
1.203830e+00 3.746445e+02 
1.240470e+00 3.602656e+02 
1.275790e+00 3.470793e+02 
1.309140e+00 3.352580e+02 
1.342970e+00 3.238246e+02 
1.378420e+00 3.124233e+02 
1.413200e+00 3.017604e+02 
1.448110e+00 2.915494e+02 
1.484090e+00 2.815200e+02 
1.518820e+00 2.722786e+02 
1.552880e+00 2.636286e+02 
1.588630e+00 2.549686e+02 
1.623230e+00 2.469573e+02 
1.657720e+00 2.393343e+02 
1.692450e+00 2.319819e+02 
1.726400e+00 2.250849e+02 
1.762200e+00 2.181149e+02 
1.797880e+00 2.114663e+02 
1.833270e+00 2.051664e+02 
1.869070e+00 1.990357e+02 
1.903200e+00 1.934471e+02 
1.937740e+00 1.880058e+02 
1.973190e+00 1.826369e+02 
2.007440e+00 1.776580e+02 
2.042160e+00 1.728156e+02 
2.077900e+00 1.679939e+02 
2.112390e+00 1.635388e+02 
2.146220e+00 1.593244e+02 
2.181600e+00 1.550702e+02 
2.216930e+00 1.509965e+02 
2.250760e+00 1.472263e+02 
2.286500e+00 1.433789e+02 
2.321770e+00 1.397294e+02 
2.355950e+00 1.363124e+02 
2.391280e+00 1.329174e+02 
2.426240e+00 1.296579e+02 
2.460670e+00 1.265552e+02 
2.495640e+00 1.235198e+02 
2.531080e+00 1.205395e+02 
2.566220e+00 1.176807e+02 
2.600830e+00 1.149631e+02 
2.635080e+00 1.123686e+02 
2.670340e+00 1.097746e+02 
2.705970e+00 1.072374e+02 
2.740040e+00 1.048867e+02 
2.774520e+00 1.025758e+02 
2.809730e+00 1.002975e+02 
2.844390e+00 9.812657e+01 
2.879960e+00 9.596266e+01 
2.914860e+00 9.390132e+01 
2.949410e+00 9.192274e+01 
2.984440e+00 8.998154e+01 
3.019760e+00 8.808045e+01 
3.054730e+00 8.625282e+01 
3.089030e+00 8.450763e+01 
3.124060e+00 8.277572e+01 
3.159560e+00 8.106971e+01 
3.194710e+00 7.943307e+01 
3.229010e+00 7.788206e+01 
3.263320e+00 7.636913e+01 
3.297930e+00 7.488701e+01 
3.332830e+00 7.343733e+01 
3.368040e+00 7.201278e+01 
3.403300e+00 7.062373e+01 
3.438450e+00 6.927406e+01 
3.473060e+00 6.798011e+01 
3.508440e+00 6.669654e+01 
3.543110e+00 6.547153e+01 
3.577470e+00 6.428613e+01 
3.613040e+00 6.309182e+01 
3.648120e+00 6.194742e+01 
3.682910e+00 6.084035e+01 
3.718050e+00 5.974847e+01 
3.753320e+00 5.868173e+01 
3.787980e+00 5.766174e+01 
3.822290e+00 5.667564e+01 
3.857020e+00 5.570013e+01 
3.891920e+00 5.474273e+01 
3.926650e+00 5.381144e+01 
3.961970e+00 5.288788e+01 
3.997360e+00 5.198692e+01 
4.031670e+00 5.113450e+01 
4.066330e+00 5.029598e+01 
4.101420e+00 4.946650e+01 
4.136200e+00 4.866160e+01 
4.170810e+00 4.787869e+01 
4.206250e+00 4.709752e+01 
4.241580e+00 4.633682e+01 
4.276300e+00 4.560478e+01 
4.310970e+00 4.488916e+01 
4.346120e+00 4.418060e+01 
4.380600e+00 4.350242e+01 
4.414730e+00 4.284527e+01 
4.450350e+00 4.217313e+01 
4.485320e+00 4.152740e+01 
4.519810e+00 4.090555e+01 
4.555430e+00 4.027755e+01 
4.590870e+00 3.966555e+01 
4.625480e+00 3.907951e+01 
4.659910e+00 3.850831e+01 
4.695230e+00 3.793663e+01 
4.729960e+00 3.738623e+01 
4.764450e+00 3.685125e+01 
4.799530e+00 3.631917e+01 
4.834910e+00 3.579322e+01 
4.869700e+00 3.528810e+01 
4.904370e+00 3.479476e+01 
4.939450e+00 3.430501e+01 
4.973940e+00 3.383211e+01 
5.008430e+00 3.336815e+01 
5.043810e+00 3.290095e+01 
5.078840e+00 3.244702e+01 
5.113500e+00 3.200629e+01 
5.148890e+00 3.156896e+01 
5.184210e+00 3.114085e+01 
5.219060e+00 3.072604e+01 
5.253660e+00 3.032121e+01 
5.288570e+00 2.992012e+01 
5.323420e+00 2.952680e+01 
5.358440e+00 2.913850e+01 
5.393590e+00 2.875574e+01 
5.428310e+00 2.838689e+01 
5.462800e+00 2.802820e+01 
5.497640e+00 2.767215e+01 
5.532670e+00 2.731995e+01 
5.567280e+00 2.697784e+01 
5.602000e+00 2.664049e+01 
5.637270e+00 2.630348e+01 
5.672410e+00 2.597343e+01 
5.707020e+00 2.565385e+01 
5.742040e+00 2.533722e+01 
5.777430e+00 2.502291e+01 
5.812210e+00 2.471917e+01 
5.846820e+00 2.442287e+01 
5.881610e+00 2.413014e+01 
5.916510e+00 2.384126e+01 
5.951600e+00 2.355538e+01 
5.986560e+00 2.327510e+01 
6.021830e+00 2.299690e+01 
6.056490e+00 2.272939e+01 
6.091160e+00 2.246728e+01 
6.125830e+00 2.220927e+01 
6.161090e+00 2.195051e+01 
6.195760e+00 2.169901e+01 
6.230420e+00 2.145147e+01 
6.265690e+00 2.120353e+01 
6.300950e+00 2.096069e+01 
6.335620e+00 2.072558e+01 
6.370880e+00 2.049012e+01 
6.405550e+00 2.026291e+01 
6.440220e+00 2.003942e+01 
6.475480e+00 1.981554e+01 
6.510150e+00 1.959865e+01 
6.544810e+00 1.938494e+01 
6.580080e+00 1.917069e+01 
6.614750e+00 1.896319e+01 
6.649410e+00 1.875973e+01 
6.684080e+00 1.855933e+01 
6.719340e+00 1.835847e+01 
6.754010e+00 1.816379e+01 
6.788680e+00 1.797178e+01 
6.823940e+00 1.777929e+01 
6.859800e+00 1.758637e+01 
6.894470e+00 1.740319e+01 
6.929140e+00 1.722283e+01 
6.963800e+00 1.704502e+01 
6.999070e+00 1.686662e+01 
7.033730e+00 1.669376e+01 
7.068400e+00 1.652322e+01 
7.103660e+00 1.635217e+01 
7.138330e+00 1.618659e+01 
7.173600e+00 1.602103e+01 
7.208260e+00 1.586055e+01 
7.243530e+00 1.569946e+01 
7.277600e+00 1.554594e+01 
7.312860e+00 1.538918e+01 
7.348120e+00 1.523454e+01 
7.382790e+00 1.508451e+01 
7.417460e+00 1.493698e+01 
7.452720e+00 1.478918e+01 
7.487390e+00 1.464575e+01 
7.522650e+00 1.450180e+01 
7.557320e+00 1.436209e+01 
7.591990e+00 1.422419e+01 
7.627250e+00 1.408574e+01 
7.662510e+00 1.394909e+01 
7.697180e+00 1.381647e+01 
7.731850e+00 1.368552e+01 
7.766510e+00 1.355626e+01 
7.801180e+00 1.342859e+01 
7.836440e+00 1.330087e+01 
7.871110e+00 1.317716e+01 
7.906380e+00 1.305288e+01 
7.941040e+00 1.293227e+01 
7.976310e+00 1.281074e+01 
8.011570e+00 1.269039e+01 
8.046240e+00 1.257350e+01 
8.080900e+00 1.245808e+01 
8.115570e+00 1.234430e+01 
8.150830e+00 1.223105e+01 
8.185500e+00 1.212104e+01 
8.220770e+00 1.201047e+01 
8.255430e+00 1.190311e+01 
8.290100e+00 1.179660e+01 
8.324770e+00 1.169130e+01 
8.359430e+00 1.158727e+01 
8.394700e+00 1.148267e+01 
8.429960e+00 1.137961e+01 
8.464630e+00 1.127974e+01 
8.499890e+00 1.117936e+01 
8.534560e+00 1.108180e+01 
8.569200e+00 1.098546e+01 
