# Parameters:
# omega_b = 0.023169, omega_m = 0.126890, n_s = 0.964961, h = 72.716535, w = -1.000000, sigma_8 = 0.756693
# z = 0.100000
#
# k[1/Mpc] # P(k):
8.694000e-04 1.606038e+04 
2.077466e-03 3.393823e+04 
3.285532e-03 4.750366e+04 
4.493598e-03 5.757031e+04 
5.701664e-03 6.469353e+04 
6.909730e-03 6.942355e+04 
8.117797e-03 7.233684e+04 
9.325863e-03 7.372929e+04 
1.053393e-02 7.387740e+04 
1.174199e-02 7.303035e+04 
1.295006e-02 7.135378e+04 
1.415813e-02 6.906670e+04 
1.536619e-02 6.635071e+04 
1.657426e-02 6.331510e+04 
1.778233e-02 6.000935e+04 
1.899039e-02 5.662345e+04 
2.019846e-02 5.337087e+04 
2.140652e-02 5.032630e+04 
2.261459e-02 4.746976e+04 
2.382266e-02 4.481679e+04 
2.503072e-02 4.238663e+04 
2.623879e-02 4.018205e+04 
2.744685e-02 3.820443e+04 
2.865492e-02 3.644250e+04 
2.986299e-02 3.488108e+04 
3.100100e-02 3.358494e+04 
3.220400e-02 3.237875e+04 
3.288100e-02 3.177006e+04 
3.424300e-02 3.067402e+04 
3.555100e-02 2.975541e+04 
3.686000e-02 2.894415e+04 
3.795000e-02 2.833648e+04 
3.929100e-02 2.764672e+04 
4.039800e-02 2.710592e+04 
4.164000e-02 2.652592e+04 
4.294400e-02 2.590925e+04 
4.415000e-02 2.534250e+04 
4.542900e-02 2.471143e+04 
4.660900e-02 2.411904e+04 
4.782300e-02 2.346152e+04 
4.892900e-02 2.285232e+04 
5.031200e-02 2.205954e+04 
5.155900e-02 2.131798e+04 
5.238100e-02 2.082226e+04 
5.378200e-02 1.997391e+04 
5.513400e-02 1.915533e+04 
5.627600e-02 1.847149e+04 
5.735300e-02 1.784259e+04 
5.870100e-02 1.708475e+04 
5.988700e-02 1.645144e+04 
6.113500e-02 1.582029e+04 
6.225900e-02 1.528956e+04 
6.340100e-02 1.478717e+04 
6.480200e-02 1.421904e+04 
6.601100e-02 1.377944e+04 
6.725500e-02 1.337100e+04 
6.829100e-02 1.306796e+04 
6.958600e-02 1.272201e+04 
7.071100e-02 1.245741e+04 
7.192300e-02 1.220255e+04 
7.307400e-02 1.198454e+04 
7.412300e-02 1.180404e+04 
7.550400e-02 1.159229e+04 
7.663100e-02 1.143323e+04 
7.791200e-02 1.126439e+04 
7.912700e-02 1.111175e+04 
8.027600e-02 1.097014e+04 
8.138400e-02 1.083406e+04 
8.272200e-02 1.066677e+04 
8.406100e-02 1.049237e+04 
8.534100e-02 1.031601e+04 
8.653800e-02 1.014103e+04 
8.759800e-02 9.981530e+03 
8.900300e-02 9.762028e+03 
9.009000e-02 9.583474e+03 
9.113300e-02 9.407766e+03 
9.239600e-02 9.193469e+03 
9.358000e-02 8.989208e+03 
9.496100e-02 8.749388e+03 
9.608400e-02 8.557038e+03 
9.727500e-02 8.356700e+03 
9.852600e-02 8.150761e+03 
9.973800e-02 7.959897e+03 
1.009000e-01 7.784472e+03 
1.020900e-01 7.615165e+03 
1.034000e-01 7.438602e+03 
1.046000e-01 7.286175e+03 
1.057200e-01 7.156524e+03 
1.069100e-01 7.025774e+03 
1.082500e-01 6.892243e+03 
1.093900e-01 6.787658e+03 
1.105400e-01 6.688223e+03 
1.116900e-01 6.599097e+03 
1.129600e-01 6.505710e+03 
1.142000e-01 6.422752e+03 
1.153300e-01 6.350261e+03 
1.166400e-01 6.270245e+03 
1.177800e-01 6.203491e+03 
1.190000e-01 6.134311e+03 
1.201200e-01 6.069984e+03 
1.213400e-01 6.001152e+03 
1.227100e-01 5.921245e+03 
1.238900e-01 5.852799e+03 
1.250700e-01 5.781397e+03 
1.263200e-01 5.705843e+03 
1.275500e-01 5.629497e+03 
1.287500e-01 5.554374e+03 
1.299900e-01 5.474799e+03 
1.311300e-01 5.402041e+03 
1.323500e-01 5.324024e+03 
1.335900e-01 5.245571e+03 
1.347100e-01 5.174967e+03 
1.359800e-01 5.096544e+03 
1.372100e-01 5.022049e+03 
1.384300e-01 4.949873e+03 
1.395700e-01 4.883997e+03 
1.407700e-01 4.816287e+03 
1.420300e-01 4.748454e+03 
1.432800e-01 4.682649e+03 
1.444500e-01 4.624006e+03 
1.456300e-01 4.566060e+03 
1.468900e-01 4.507339e+03 
1.480500e-01 4.454933e+03 
1.491700e-01 4.405903e+03 
1.503800e-01 4.354726e+03 
1.516400e-01 4.302882e+03 
1.528200e-01 4.256921e+03 
1.540200e-01 4.211071e+03 
1.551900e-01 4.168110e+03 
1.564300e-01 4.123660e+03 
1.576600e-01 4.080615e+03 
1.588700e-01 4.039308e+03 
1.600900e-01 3.998434e+03 
1.612700e-01 3.959621e+03 
1.625400e-01 3.918619e+03 
1.637600e-01 3.879936e+03 
1.649500e-01 3.842862e+03 
1.662200e-01 3.803895e+03 
1.674000e-01 3.767677e+03 
1.685000e-01 3.734475e+03 
1.697500e-01 3.697065e+03 
1.710300e-01 3.659131e+03 
1.722200e-01 3.624487e+03 
1.734400e-01 3.588613e+03 
1.746400e-01 3.553891e+03 
1.758700e-01 3.518730e+03 
1.770900e-01 3.484089e+03 
1.782700e-01 3.451141e+03 
1.794600e-01 3.418211e+03 
1.807000e-01 3.384302e+03 
1.819100e-01 3.351766e+03 
1.830100e-01 3.322606e+03 
1.842200e-01 3.291020e+03 
1.855000e-01 3.258181e+03 
1.867000e-01 3.228316e+03 
1.879200e-01 3.198436e+03 
1.890900e-01 3.170249e+03 
1.902800e-01 3.142122e+03 
1.915200e-01 3.113272e+03 
1.926900e-01 3.086649e+03 
1.939000e-01 3.060107e+03 
1.951700e-01 3.032686e+03 
1.963100e-01 3.008509e+03 
1.975100e-01 2.983610e+03 
1.987800e-01 2.957660e+03 
2.000100e-01 2.932969e+03 
2.012500e-01 2.908580e+03 
2.023400e-01 2.887445e+03 
2.036100e-01 2.863240e+03 
2.048900e-01 2.839488e+03 
2.060400e-01 2.818458e+03 
2.072200e-01 2.797184e+03 
2.084200e-01 2.775954e+03 
2.096900e-01 2.753810e+03 
2.109200e-01 2.732675e+03 
2.121100e-01 2.712431e+03 
2.132700e-01 2.692959e+03 
2.145200e-01 2.672266e+03 
2.157200e-01 2.652645e+03 
2.168800e-01 2.633915e+03 
2.180700e-01 2.614955e+03 
2.193400e-01 2.594986e+03 
2.206000e-01 2.575432e+03 
2.217500e-01 2.557823e+03 
2.229500e-01 2.539686e+03 
2.241400e-01 2.521963e+03 
2.253500e-01 2.504179e+03 
2.264900e-01 2.487636e+03 
2.277100e-01 2.470268e+03 
2.289900e-01 2.452411e+03 
2.301500e-01 2.436439e+03 
2.313600e-01 2.419987e+03 
2.325600e-01 2.403958e+03 
2.337700e-01 2.388000e+03 
2.350000e-01 2.371984e+03 
2.362000e-01 2.356731e+03 
2.374100e-01 2.341749e+03 
2.386500e-01 2.326589e+03 
2.399100e-01 2.311381e+03 
2.410400e-01 2.298062e+03 
2.422500e-01 2.283988e+03 
2.435000e-01 2.269628e+03 
2.447300e-01 2.255710e+03 
2.458700e-01 2.243110e+03 
2.470600e-01 2.230108e+03 
2.483300e-01 2.216401e+03 
2.495600e-01 2.203330e+03 
2.507600e-01 2.190788e+03 
2.519600e-01 2.178392e+03 
2.532200e-01 2.165531e+03 
2.543700e-01 2.153958e+03 
2.555500e-01 2.142236e+03 
2.568000e-01 2.129962e+03 
2.580100e-01 2.118220e+03 
2.592400e-01 2.106352e+03 
2.604100e-01 2.095159e+03 
2.616100e-01 2.083807e+03 
2.628400e-01 2.072303e+03 
2.640600e-01 2.061076e+03 
2.652200e-01 2.050539e+03 
2.664300e-01 2.039668e+03 
2.676500e-01 2.028829e+03 
2.688400e-01 2.018218e+03 
2.700700e-01 2.007276e+03 
2.712400e-01 1.996980e+03 
2.724800e-01 1.986186e+03 
2.736700e-01 1.975879e+03 
2.748800e-01 1.965447e+03 
2.761000e-01 1.955043e+03 
2.773200e-01 1.944751e+03 
2.785400e-01 1.934561e+03 
2.797000e-01 1.924953e+03 
2.808900e-01 1.915198e+03 
2.821400e-01 1.905060e+03 
2.833900e-01 1.895024e+03 
2.845500e-01 1.885649e+03 
2.857800e-01 1.875810e+03 
2.870300e-01 1.865916e+03 
2.882100e-01 1.856673e+03 
2.893900e-01 1.847476e+03 
2.906300e-01 1.837886e+03 
2.918900e-01 1.828243e+03 
2.930500e-01 1.819456e+03 
2.942500e-01 1.810444e+03 
2.954200e-01 1.801712e+03 
2.966500e-01 1.792624e+03 
2.978900e-01 1.783554e+03 
2.990400e-01 1.775225e+03 
3.002700e-01 1.766371e+03 
3.015100e-01 1.757519e+03 
3.026800e-01 1.749249e+03 
3.038500e-01 1.741057e+03 
3.050300e-01 1.732872e+03 
3.062600e-01 1.724395e+03 
3.075000e-01 1.715934e+03 
3.087000e-01 1.707825e+03 
3.099100e-01 1.699726e+03 
3.111200e-01 1.691693e+03 
3.123100e-01 1.683847e+03 
3.135300e-01 1.675879e+03 
3.147300e-01 1.668115e+03 
3.159900e-01 1.660040e+03 
3.171800e-01 1.652553e+03 
3.183700e-01 1.645178e+03 
3.196300e-01 1.637442e+03 
3.208400e-01 1.630084e+03 
3.220300e-01 1.622913e+03 
3.232000e-01 1.615857e+03 
3.244300e-01 1.608479e+03 
3.256700e-01 1.601110e+03 
3.269200e-01 1.593751e+03 
3.280800e-01 1.586983e+03 
3.292500e-01 1.580298e+03 
3.304800e-01 1.573359e+03 
3.317100e-01 1.566483e+03 
3.328900e-01 1.559944e+03 
3.340700e-01 1.553462e+03 
3.353600e-01 1.546465e+03 
3.365300e-01 1.540185e+03 
3.377100e-01 1.533905e+03 
3.389200e-01 1.527521e+03 
3.401600e-01 1.521037e+03 
3.413700e-01 1.514782e+03 
3.425300e-01 1.508848e+03 
3.437700e-01 1.502558e+03 
3.449800e-01 1.496475e+03 
3.461800e-01 1.490493e+03 
3.473600e-01 1.484653e+03 
3.485800e-01 1.478647e+03 
3.498100e-01 1.472645e+03 
3.510200e-01 1.466790e+03 
3.522000e-01 1.461128e+03 
3.533900e-01 1.455465e+03 
3.546400e-01 1.449647e+03 
3.558400e-01 1.444113e+03 
3.570600e-01 1.438534e+03 
3.582700e-01 1.433047e+03 
3.595000e-01 1.427515e+03 
3.607100e-01 1.422131e+03 
3.618900e-01 1.416932e+03 
3.631200e-01 1.411556e+03 
3.643200e-01 1.406355e+03 
3.655500e-01 1.401068e+03 
3.667300e-01 1.396036e+03 
3.679500e-01 1.390890e+03 
3.691900e-01 1.385703e+03 
3.703600e-01 1.380848e+03 
3.715700e-01 1.375867e+03 
3.727700e-01 1.370965e+03 
3.739900e-01 1.366032e+03 
3.752000e-01 1.361194e+03 
3.763900e-01 1.356473e+03 
3.775800e-01 1.351789e+03 
3.788200e-01 1.346947e+03 
3.800300e-01 1.342260e+03 
3.812100e-01 1.337704e+03 
3.824200e-01 1.333056e+03 
3.836100e-01 1.328519e+03 
3.848600e-01 1.323791e+03 
3.860400e-01 1.319362e+03 
3.872400e-01 1.314892e+03 
3.884600e-01 1.310395e+03 
3.896500e-01 1.306047e+03 
3.908700e-01 1.301623e+03 
3.920600e-01 1.297340e+03 
3.933100e-01 1.292876e+03 
3.945300e-01 1.288552e+03 
3.957200e-01 1.284378e+03 
3.969300e-01 1.280168e+03 
3.981700e-01 1.275887e+03 
3.993500e-01 1.271843e+03 
4.094840e-01 1.238127e+03 
4.272360e-01 1.183598e+03 
4.454600e-01 1.132308e+03 
4.630560e-01 1.087017e+03 
4.804610e-01 1.045572e+03 
4.980690e-01 1.006738e+03 
5.159230e-01 9.702427e+02 
5.317440e-01 9.399162e+02 
5.489640e-01 9.091471e+02 
5.671990e-01 8.786503e+02 
5.838690e-01 8.525342e+02 
6.018840e-01 8.260865e+02 
6.202330e-01 8.008628e+02 
6.379250e-01 7.780096e+02 
6.545410e-01 7.576647e+02 
6.714560e-01 7.380315e+02 
6.892080e-01 7.184817e+02 
7.066010e-01 7.003148e+02 
7.240540e-01 6.829838e+02 
7.420450e-01 6.658407e+02 
7.593780e-01 6.501871e+02 
7.764720e-01 6.353457e+02 
7.942840e-01 6.205847e+02 
8.116170e-01 6.067279e+02 
8.288310e-01 5.935103e+02 
8.462240e-01 5.806178e+02 
8.631980e-01 5.685491e+02 
8.810700e-01 5.562344e+02 
8.989410e-01 5.443849e+02 
9.166330e-01 5.330206e+02 
9.345640e-01 5.218752e+02 
9.515980e-01 5.116198e+02 
9.688720e-01 5.015078e+02 
9.865640e-01 4.914388e+02 
1.031870e+00 4.671270e+02 
1.063490e+00 4.511549e+02 
1.097920e+00 4.346211e+02 
1.134370e+00 4.180477e+02 
1.167730e+00 4.036985e+02 
1.203830e+00 3.889235e+02 
1.240470e+00 3.747163e+02 
1.275790e+00 3.616635e+02 
1.309140e+00 3.499437e+02 
1.342970e+00 3.385884e+02 
1.378420e+00 3.272466e+02 
1.413200e+00 3.166201e+02 
1.448110e+00 3.064212e+02 
1.484090e+00 2.963895e+02 
1.518820e+00 2.871241e+02 
1.552880e+00 2.784390e+02 
1.588630e+00 2.697269e+02 
1.623230e+00 2.616531e+02 
1.657720e+00 2.539589e+02 
1.692450e+00 2.465228e+02 
1.726400e+00 2.395354e+02 
1.762200e+00 2.324602e+02 
1.797880e+00 2.257007e+02 
1.833270e+00 2.192854e+02 
1.869070e+00 2.130307e+02 
1.903200e+00 2.073204e+02 
1.937740e+00 2.017518e+02 
1.973190e+00 1.962479e+02 
2.007440e+00 1.911358e+02 
2.042160e+00 1.861569e+02 
2.077900e+00 1.811902e+02 
2.112390e+00 1.765957e+02 
2.146220e+00 1.722420e+02 
2.181600e+00 1.678409e+02 
2.216930e+00 1.636209e+02 
2.250760e+00 1.597095e+02 
2.286500e+00 1.557124e+02 
2.321770e+00 1.519161e+02 
2.355950e+00 1.483570e+02 
2.391280e+00 1.448161e+02 
2.426240e+00 1.414113e+02 
2.460670e+00 1.381665e+02 
2.495640e+00 1.349887e+02 
2.531080e+00 1.318637e+02 
2.566220e+00 1.288623e+02 
2.600830e+00 1.260062e+02 
2.635080e+00 1.232770e+02 
2.670340e+00 1.205439e+02 
2.705970e+00 1.178676e+02 
2.740040e+00 1.153855e+02 
2.774520e+00 1.129424e+02 
2.809730e+00 1.105312e+02 
2.844390e+00 1.082316e+02 
2.879960e+00 1.059367e+02 
2.914860e+00 1.037479e+02 
2.949410e+00 1.016451e+02 
2.984440e+00 9.957981e+01 
3.019760e+00 9.755520e+01 
3.054730e+00 9.560723e+01 
3.089030e+00 9.374445e+01 
3.124060e+00 9.189434e+01 
3.159560e+00 9.007003e+01 
3.194710e+00 8.831824e+01 
3.229010e+00 8.665706e+01 
3.263320e+00 8.503456e+01 
3.297930e+00 8.344411e+01 
3.332830e+00 8.188709e+01 
3.368040e+00 8.035559e+01 
3.403300e+00 7.886104e+01 
3.438450e+00 7.740725e+01 
3.473060e+00 7.601270e+01 
3.508440e+00 7.462781e+01 
3.543110e+00 7.330542e+01 
3.577470e+00 7.202428e+01 
3.613040e+00 7.073283e+01 
3.648120e+00 6.949432e+01 
3.682910e+00 6.829538e+01 
3.718050e+00 6.711174e+01 
3.753320e+00 6.595465e+01 
3.787980e+00 6.484748e+01 
3.822290e+00 6.377632e+01 
3.857020e+00 6.271571e+01 
3.891920e+00 6.167413e+01 
3.926650e+00 6.066006e+01 
3.961970e+00 5.965390e+01 
3.997360e+00 5.867155e+01 
4.031670e+00 5.774172e+01 
4.066330e+00 5.682627e+01 
4.101420e+00 5.592037e+01 
4.136200e+00 5.504037e+01 
4.170810e+00 5.418412e+01 
4.206250e+00 5.332904e+01 
4.241580e+00 5.249601e+01 
4.276300e+00 5.169369e+01 
4.310970e+00 5.090891e+01 
4.346120e+00 5.013145e+01 
4.380600e+00 4.938682e+01 
4.414730e+00 4.866505e+01 
4.450350e+00 4.792602e+01 
4.485320e+00 4.721581e+01 
4.519810e+00 4.653137e+01 
4.555430e+00 4.583983e+01 
4.590870e+00 4.516555e+01 
4.625480e+00 4.451938e+01 
4.659910e+00 4.388940e+01 
4.695230e+00 4.325837e+01 
4.729960e+00 4.265060e+01 
4.764450e+00 4.205956e+01 
4.799530e+00 4.147135e+01 
4.834910e+00 4.088976e+01 
4.869700e+00 4.033078e+01 
4.904370e+00 3.978466e+01 
4.939450e+00 3.924224e+01 
4.973940e+00 3.871805e+01 
5.008430e+00 3.820361e+01 
5.043810e+00 3.768523e+01 
5.078840e+00 3.718129e+01 
5.113500e+00 3.669188e+01 
5.148890e+00 3.620592e+01 
5.184210e+00 3.573006e+01 
5.219060e+00 3.526880e+01 
5.253660e+00 3.481827e+01 
5.288570e+00 3.437180e+01 
5.323420e+00 3.393370e+01 
5.358440e+00 3.350090e+01 
5.393590e+00 3.307417e+01 
5.428310e+00 3.266274e+01 
5.462800e+00 3.226249e+01 
5.497640e+00 3.186509e+01 
5.532670e+00 3.147166e+01 
5.567280e+00 3.108933e+01 
5.602000e+00 3.071224e+01 
5.637270e+00 3.033521e+01 
5.672410e+00 2.996583e+01 
5.707020e+00 2.960808e+01 
5.742040e+00 2.925337e+01 
5.777430e+00 2.890114e+01 
5.812210e+00 2.856067e+01 
5.846820e+00 2.822830e+01 
5.881610e+00 2.789982e+01 
5.916510e+00 2.757559e+01 
5.951600e+00 2.725446e+01 
5.986560e+00 2.693947e+01 
6.021830e+00 2.662676e+01 
6.056490e+00 2.632591e+01 
6.091160e+00 2.603101e+01 
6.125830e+00 2.574066e+01 
6.161090e+00 2.544931e+01 
6.195760e+00 2.516589e+01 
6.230420e+00 2.488687e+01 
6.265690e+00 2.460733e+01 
6.300950e+00 2.433329e+01 
6.335620e+00 2.406791e+01 
6.370880e+00 2.380209e+01 
6.405550e+00 2.354539e+01 
6.440220e+00 2.329280e+01 
6.475480e+00 2.303971e+01 
6.510150e+00 2.279442e+01 
6.544810e+00 2.255252e+01 
6.580080e+00 2.230997e+01 
6.614750e+00 2.207501e+01 
6.649410e+00 2.184440e+01 
6.684080e+00 2.161720e+01 
6.719340e+00 2.138945e+01 
6.754010e+00 2.116859e+01 
6.788680e+00 2.095057e+01 
6.823940e+00 2.073199e+01 
6.859800e+00 2.051286e+01 
6.894470e+00 2.030464e+01 
6.929140e+00 2.009953e+01 
6.963800e+00 1.989730e+01 
6.999070e+00 1.969433e+01 
7.033730e+00 1.949745e+01 
7.068400e+00 1.930318e+01 
7.103660e+00 1.910829e+01 
7.138330e+00 1.891954e+01 
7.173600e+00 1.873068e+01 
7.208260e+00 1.854758e+01 
7.243530e+00 1.836374e+01 
7.277600e+00 1.818843e+01 
7.312860e+00 1.800930e+01 
7.348120e+00 1.783256e+01 
7.382790e+00 1.766107e+01 
7.417460e+00 1.749228e+01 
7.452720e+00 1.732310e+01 
7.487390e+00 1.715891e+01 
7.522650e+00 1.699408e+01 
7.557320e+00 1.683398e+01 
7.591990e+00 1.667586e+01 
7.627250e+00 1.651710e+01 
7.662510e+00 1.636037e+01 
7.697180e+00 1.620811e+01 
7.731850e+00 1.605771e+01 
7.766510e+00 1.590923e+01 
7.801180e+00 1.576255e+01 
7.836440e+00 1.561570e+01 
7.871110e+00 1.547338e+01 
7.906380e+00 1.533039e+01 
7.941040e+00 1.519160e+01 
7.976310e+00 1.505166e+01 
8.011570e+00 1.491294e+01 
8.046240e+00 1.477822e+01 
8.080900e+00 1.464515e+01 
8.115570e+00 1.451394e+01 
8.150830e+00 1.438321e+01 
8.185500e+00 1.425621e+01 
8.220770e+00 1.412855e+01 
8.255430e+00 1.400459e+01 
8.290100e+00 1.388143e+01 
8.324770e+00 1.375966e+01 
8.359430e+00 1.363933e+01 
8.394700e+00 1.351833e+01 
8.429960e+00 1.339904e+01 
8.464630e+00 1.328335e+01 
8.499890e+00 1.316706e+01 
8.534560e+00 1.305403e+01 
8.569200e+00 1.294239e+01 
