# Parameters:
# omega_b = 0.022681, omega_m = 0.127717, n_s = 1.042126, h = 58.307087, w = -1.000000, sigma_8 = 0.803937
# z = 0.100000
#
# k[1/Mpc] # P(k):
8.694000e-04 1.620107e+04 
2.077466e-03 3.661665e+04 
3.285532e-03 5.315639e+04 
4.493598e-03 6.609159e+04 
5.701664e-03 7.579675e+04 
6.909730e-03 8.271705e+04 
8.117797e-03 8.741647e+04 
9.325863e-03 9.018900e+04 
1.053393e-02 9.134192e+04 
1.174199e-02 9.117275e+04 
1.295006e-02 8.987116e+04 
1.415813e-02 8.770119e+04 
1.536619e-02 8.489169e+04 
1.657426e-02 8.146016e+04 
1.778233e-02 7.712410e+04 
1.899039e-02 7.247155e+04 
2.019846e-02 6.849584e+04 
2.140652e-02 6.515844e+04 
2.261459e-02 6.208176e+04 
2.382266e-02 5.917586e+04 
2.503072e-02 5.646153e+04 
2.623879e-02 5.395154e+04 
2.744685e-02 5.165280e+04 
2.865492e-02 4.956543e+04 
2.986299e-02 4.767997e+04 
3.100100e-02 4.608067e+04 
3.220400e-02 4.455960e+04 
3.288100e-02 4.377523e+04 
3.424300e-02 4.233378e+04 
3.555100e-02 4.109304e+04 
3.686000e-02 3.996782e+04 
3.795000e-02 3.910763e+04 
3.929100e-02 3.811331e+04 
4.039800e-02 3.732848e+04 
4.164000e-02 3.648732e+04 
4.294400e-02 3.560662e+04 
4.415000e-02 3.481094e+04 
4.542900e-02 3.395178e+04 
4.660900e-02 3.316411e+04 
4.782300e-02 3.231980e+04 
4.892900e-02 3.155484e+04 
5.031200e-02 3.058244e+04 
5.155900e-02 2.969205e+04 
5.238100e-02 2.910392e+04 
5.378200e-02 2.810654e+04 
5.513400e-02 2.715027e+04 
5.627600e-02 2.635135e+04 
5.735300e-02 2.561367e+04 
5.870100e-02 2.471741e+04 
5.988700e-02 2.395903e+04 
6.113500e-02 2.319100e+04 
6.225900e-02 2.253266e+04 
6.340100e-02 2.189571e+04 
6.480200e-02 2.115850e+04 
6.601100e-02 2.056968e+04 
6.725500e-02 2.000610e+04 
6.829100e-02 1.957361e+04 
6.958600e-02 1.906704e+04 
7.071100e-02 1.866665e+04 
7.192300e-02 1.827032e+04 
7.307400e-02 1.792282e+04 
7.412300e-02 1.762953e+04 
7.550400e-02 1.727908e+04 
7.663100e-02 1.701391e+04 
7.791200e-02 1.673343e+04 
7.912700e-02 1.648442e+04 
8.027600e-02 1.625877e+04 
8.138400e-02 1.604734e+04 
8.272200e-02 1.579568e+04 
8.406100e-02 1.554197e+04 
8.534100e-02 1.529439e+04 
8.653800e-02 1.505456e+04 
8.759800e-02 1.483884e+04 
8.900300e-02 1.454557e+04 
9.009000e-02 1.430882e+04 
9.113300e-02 1.407712e+04 
9.239600e-02 1.379514e+04 
9.358000e-02 1.352659e+04 
9.496100e-02 1.321158e+04 
9.608400e-02 1.295879e+04 
9.727500e-02 1.269527e+04 
9.852600e-02 1.242443e+04 
9.973800e-02 1.217323e+04 
1.009000e-01 1.194219e+04 
1.020900e-01 1.171826e+04 
1.034000e-01 1.148378e+04 
1.046000e-01 1.128043e+04 
1.057200e-01 1.110527e+04 
1.069100e-01 1.092749e+04 
1.082500e-01 1.074246e+04 
1.093900e-01 1.059478e+04 
1.105400e-01 1.045268e+04 
1.116900e-01 1.032105e+04 
1.129600e-01 1.018156e+04 
1.142000e-01 1.005361e+04 
1.153300e-01 9.940453e+03 
1.166400e-01 9.813434e+03 
1.177800e-01 9.706452e+03 
1.190000e-01 9.595092e+03 
1.201200e-01 9.492224e+03 
1.213400e-01 9.382265e+03 
1.227100e-01 9.257566e+03 
1.238900e-01 9.151586e+03 
1.250700e-01 9.043765e+03 
1.263200e-01 8.930861e+03 
1.275500e-01 8.819350e+03 
1.287500e-01 8.710839e+03 
1.299900e-01 8.597751e+03 
1.311300e-01 8.495298e+03 
1.323500e-01 8.386848e+03 
1.335900e-01 8.278347e+03 
1.347100e-01 8.181442e+03 
1.359800e-01 8.073991e+03 
1.372100e-01 7.972365e+03 
1.384300e-01 7.873815e+03 
1.395700e-01 7.783764e+03 
1.407700e-01 7.691107e+03 
1.420300e-01 7.597841e+03 
1.432800e-01 7.507309e+03 
1.444500e-01 7.425770e+03 
1.456300e-01 7.345163e+03 
1.468900e-01 7.262708e+03 
1.480500e-01 7.188872e+03 
1.491700e-01 7.119314e+03 
1.503800e-01 7.046102e+03 
1.516400e-01 6.971739e+03 
1.528200e-01 6.905020e+03 
1.540200e-01 6.838451e+03 
1.551900e-01 6.775377e+03 
1.564300e-01 6.709939e+03 
1.576600e-01 6.646251e+03 
1.588700e-01 6.584749e+03 
1.600900e-01 6.523865e+03 
1.612700e-01 6.465611e+03 
1.625400e-01 6.404068e+03 
1.637600e-01 6.345883e+03 
1.649500e-01 6.290046e+03 
1.662200e-01 6.231363e+03 
1.674000e-01 6.176856e+03 
1.685000e-01 6.126885e+03 
1.697500e-01 6.070673e+03 
1.710300e-01 6.013765e+03 
1.722200e-01 5.961786e+03 
1.734400e-01 5.908253e+03 
1.746400e-01 5.856442e+03 
1.758700e-01 5.804078e+03 
1.770900e-01 5.752699e+03 
1.782700e-01 5.703824e+03 
1.794600e-01 5.655173e+03 
1.807000e-01 5.605204e+03 
1.819100e-01 5.557248e+03 
1.830100e-01 5.514472e+03 
1.842200e-01 5.468166e+03 
1.855000e-01 5.420024e+03 
1.867000e-01 5.376504e+03 
1.879200e-01 5.332956e+03 
1.890900e-01 5.291884e+03 
1.902800e-01 5.250985e+03 
1.915200e-01 5.209028e+03 
1.926900e-01 5.170332e+03 
1.939000e-01 5.131847e+03 
1.951700e-01 5.092082e+03 
1.963100e-01 5.057007e+03 
1.975100e-01 5.020844e+03 
1.987800e-01 4.983153e+03 
2.000100e-01 4.947255e+03 
2.012500e-01 4.911716e+03 
2.023400e-01 4.880918e+03 
2.036100e-01 4.845611e+03 
2.048900e-01 4.810837e+03 
2.060400e-01 4.780046e+03 
2.072200e-01 4.748881e+03 
2.084200e-01 4.717553e+03 
2.096900e-01 4.684877e+03 
2.109200e-01 4.653689e+03 
2.121100e-01 4.623467e+03 
2.132700e-01 4.594379e+03 
2.145200e-01 4.563467e+03 
2.157200e-01 4.533886e+03 
2.168800e-01 4.505525e+03 
2.180700e-01 4.476815e+03 
2.193400e-01 4.446404e+03 
2.206000e-01 4.416302e+03 
2.217500e-01 4.389193e+03 
2.229500e-01 4.361270e+03 
2.241400e-01 4.333503e+03 
2.253500e-01 4.305626e+03 
2.264900e-01 4.279695e+03 
2.277100e-01 4.252242e+03 
2.289900e-01 4.223763e+03 
2.301500e-01 4.198288e+03 
2.313600e-01 4.172047e+03 
2.325600e-01 4.146073e+03 
2.337700e-01 4.120213e+03 
2.350000e-01 4.094260e+03 
2.362000e-01 4.069428e+03 
2.374100e-01 4.044900e+03 
2.386500e-01 4.020080e+03 
2.399100e-01 3.995181e+03 
2.410400e-01 3.973291e+03 
2.422500e-01 3.950149e+03 
2.435000e-01 3.926538e+03 
2.447300e-01 3.903667e+03 
2.458700e-01 3.883012e+03 
2.470600e-01 3.861700e+03 
2.483300e-01 3.839233e+03 
2.495600e-01 3.817889e+03 
2.507600e-01 3.797519e+03 
2.519600e-01 3.777387e+03 
2.532200e-01 3.756501e+03 
2.543700e-01 3.737853e+03 
2.555500e-01 3.719065e+03 
2.568000e-01 3.699395e+03 
2.580100e-01 3.680578e+03 
2.592400e-01 3.661743e+03 
2.604100e-01 3.644061e+03 
2.616100e-01 3.626128e+03 
2.628400e-01 3.607957e+03 
2.640600e-01 3.590414e+03 
2.652200e-01 3.574028e+03 
2.664300e-01 3.557123e+03 
2.676500e-01 3.540271e+03 
2.688400e-01 3.523866e+03 
2.700700e-01 3.507005e+03 
2.712400e-01 3.491143e+03 
2.724800e-01 3.474515e+03 
2.736700e-01 3.458697e+03 
2.748800e-01 3.442749e+03 
2.761000e-01 3.426844e+03 
2.773200e-01 3.411113e+03 
2.785400e-01 3.395563e+03 
2.797000e-01 3.380956e+03 
2.808900e-01 3.366126e+03 
2.821400e-01 3.350717e+03 
2.833900e-01 3.335464e+03 
2.845500e-01 3.321210e+03 
2.857800e-01 3.306252e+03 
2.870300e-01 3.291214e+03 
2.882100e-01 3.277166e+03 
2.893900e-01 3.263185e+03 
2.906300e-01 3.248605e+03 
2.918900e-01 3.233948e+03 
2.930500e-01 3.220591e+03 
2.942500e-01 3.206888e+03 
2.954200e-01 3.193584e+03 
2.966500e-01 3.179738e+03 
2.978900e-01 3.165923e+03 
2.990400e-01 3.153238e+03 
3.002700e-01 3.139730e+03 
3.015100e-01 3.126214e+03 
3.026800e-01 3.113588e+03 
3.038500e-01 3.101082e+03 
3.050300e-01 3.088587e+03 
3.062600e-01 3.075575e+03 
3.075000e-01 3.062588e+03 
3.087000e-01 3.050143e+03 
3.099100e-01 3.037715e+03 
3.111200e-01 3.025377e+03 
3.123100e-01 3.013308e+03 
3.135300e-01 3.001052e+03 
3.147300e-01 2.989112e+03 
3.159900e-01 2.976696e+03 
3.171800e-01 2.965188e+03 
3.183700e-01 2.953856e+03 
3.196300e-01 2.941972e+03 
3.208400e-01 2.930668e+03 
3.220300e-01 2.919655e+03 
3.232000e-01 2.908745e+03 
3.244300e-01 2.897310e+03 
3.256700e-01 2.885890e+03 
3.269200e-01 2.874487e+03 
3.280800e-01 2.864002e+03 
3.292500e-01 2.853658e+03 
3.304800e-01 2.842925e+03 
3.317100e-01 2.832292e+03 
3.328900e-01 2.822183e+03 
3.340700e-01 2.812163e+03 
3.353600e-01 2.801313e+03 
3.365300e-01 2.791564e+03 
3.377100e-01 2.781817e+03 
3.389200e-01 2.771911e+03 
3.401600e-01 2.761850e+03 
3.413700e-01 2.752124e+03 
3.425300e-01 2.742882e+03 
3.437700e-01 2.733090e+03 
3.449800e-01 2.723619e+03 
3.461800e-01 2.714308e+03 
3.473600e-01 2.705210e+03 
3.485800e-01 2.695835e+03 
3.498100e-01 2.686466e+03 
3.510200e-01 2.677329e+03 
3.522000e-01 2.668494e+03 
3.533900e-01 2.659660e+03 
3.546400e-01 2.650546e+03 
3.558400e-01 2.641877e+03 
3.570600e-01 2.633138e+03 
3.582700e-01 2.624546e+03 
3.595000e-01 2.615885e+03 
3.607100e-01 2.607438e+03 
3.618900e-01 2.599269e+03 
3.631200e-01 2.590825e+03 
3.643200e-01 2.582656e+03 
3.655500e-01 2.574352e+03 
3.667300e-01 2.566453e+03 
3.679500e-01 2.558322e+03 
3.691900e-01 2.550126e+03 
3.703600e-01 2.542457e+03 
3.715700e-01 2.534590e+03 
3.727700e-01 2.526852e+03 
3.739900e-01 2.519060e+03 
3.752000e-01 2.511416e+03 
3.763900e-01 2.503959e+03 
3.775800e-01 2.496561e+03 
3.788200e-01 2.488916e+03 
3.800300e-01 2.481516e+03 
3.812100e-01 2.474287e+03 
3.824200e-01 2.466884e+03 
3.836100e-01 2.459662e+03 
3.848600e-01 2.452137e+03 
3.860400e-01 2.445089e+03 
3.872400e-01 2.437978e+03 
3.884600e-01 2.430793e+03 
3.896500e-01 2.423835e+03 
3.908700e-01 2.416757e+03 
3.920600e-01 2.409907e+03 
3.933100e-01 2.402768e+03 
3.945300e-01 2.395856e+03 
3.957200e-01 2.389170e+03 
3.969300e-01 2.382424e+03 
3.981700e-01 2.375565e+03 
3.993500e-01 2.369089e+03 
4.094840e-01 2.314796e+03 
4.272360e-01 2.226108e+03 
4.454600e-01 2.141659e+03 
4.630560e-01 2.066395e+03 
4.804610e-01 1.996696e+03 
4.980690e-01 1.930793e+03 
5.159230e-01 1.868221e+03 
5.317440e-01 1.815771e+03 
5.489640e-01 1.762015e+03 
5.671990e-01 1.708068e+03 
5.838690e-01 1.661383e+03 
6.018840e-01 1.613607e+03 
6.202330e-01 1.567382e+03 
6.379250e-01 1.525101e+03 
6.545410e-01 1.486868e+03 
6.714560e-01 1.449630e+03 
6.892080e-01 1.412024e+03 
7.066010e-01 1.376710e+03 
7.240540e-01 1.342685e+03 
7.420450e-01 1.308580e+03 
7.593780e-01 1.277142e+03 
7.764720e-01 1.247086e+03 
7.942840e-01 1.216925e+03 
8.116170e-01 1.188399e+03 
8.288310e-01 1.160966e+03 
8.462240e-01 1.134062e+03 
8.631980e-01 1.108726e+03 
8.810700e-01 1.082758e+03 
8.989410e-01 1.057674e+03 
9.166330e-01 1.033530e+03 
9.345640e-01 1.009779e+03 
9.515980e-01 9.878830e+02 
9.688720e-01 9.662464e+02 
9.865640e-01 9.446841e+02 
1.031870e+00 8.925509e+02 
1.063490e+00 8.583237e+02 
1.097920e+00 8.229247e+02 
1.134370e+00 7.875598e+02 
1.167730e+00 7.570324e+02 
1.203830e+00 7.257339e+02 
1.240470e+00 6.957607e+02 
1.275790e+00 6.683657e+02 
1.309140e+00 6.438943e+02 
1.342970e+00 6.203021e+02 
1.378420e+00 5.968531e+02 
1.413200e+00 5.750209e+02 
1.448110e+00 5.541760e+02 
1.484090e+00 5.337873e+02 
1.518820e+00 5.150601e+02 
1.552880e+00 4.976080e+02 
1.588630e+00 4.801842e+02 
1.623230e+00 4.641268e+02 
1.657720e+00 4.488953e+02 
1.692450e+00 4.342413e+02 
1.726400e+00 4.205557e+02 
1.762200e+00 4.067634e+02 
1.797880e+00 3.936557e+02 
1.833270e+00 3.812652e+02 
1.869070e+00 3.692541e+02 
1.903200e+00 3.583302e+02 
1.937740e+00 3.477237e+02 
1.973190e+00 3.372870e+02 
2.007440e+00 3.276332e+02 
2.042160e+00 3.182686e+02 
2.077900e+00 3.089690e+02 
2.112390e+00 3.003940e+02 
2.146220e+00 2.923054e+02 
2.181600e+00 2.841601e+02 
2.216930e+00 2.763760e+02 
2.250760e+00 2.691882e+02 
2.286500e+00 2.618687e+02 
2.321770e+00 2.549383e+02 
2.355950e+00 2.484641e+02 
2.391280e+00 2.420447e+02 
2.426240e+00 2.358947e+02 
2.460670e+00 2.300509e+02 
2.495640e+00 2.243429e+02 
2.531080e+00 2.187508e+02 
2.566220e+00 2.133957e+02 
2.600830e+00 2.083128e+02 
2.635080e+00 2.034670e+02 
2.670340e+00 1.986330e+02 
2.705970e+00 1.939114e+02 
2.740040e+00 1.895426e+02 
2.774520e+00 1.852557e+02 
2.809730e+00 1.810349e+02 
2.844390e+00 1.770175e+02 
2.879960e+00 1.730200e+02 
2.914860e+00 1.692178e+02 
2.949410e+00 1.655719e+02 
2.984440e+00 1.619997e+02 
3.019760e+00 1.585059e+02 
3.054730e+00 1.551502e+02 
3.089030e+00 1.519519e+02 
3.124060e+00 1.487804e+02 
3.159560e+00 1.456596e+02 
3.194710e+00 1.426696e+02 
3.229010e+00 1.398377e+02 
3.263320e+00 1.370800e+02 
3.297930e+00 1.343801e+02 
3.332830e+00 1.317419e+02 
3.368040e+00 1.291519e+02 
3.403300e+00 1.266284e+02 
3.438450e+00 1.241794e+02 
3.473060e+00 1.218325e+02 
3.508440e+00 1.195077e+02 
3.543110e+00 1.172897e+02 
3.577470e+00 1.151461e+02 
3.613040e+00 1.129872e+02 
3.648120e+00 1.109207e+02 
3.682910e+00 1.089225e+02 
3.718050e+00 1.069534e+02 
3.753320e+00 1.050305e+02 
3.787980e+00 1.031934e+02 
3.822290e+00 1.014181e+02 
3.857020e+00 9.966310e+01 
3.891920e+00 9.794141e+01 
3.926650e+00 9.626786e+01 
3.961970e+00 9.460879e+01 
3.997360e+00 9.299157e+01 
4.031670e+00 9.146179e+01 
4.066330e+00 8.995806e+01 
4.101420e+00 8.847062e+01 
4.136200e+00 8.702854e+01 
4.170810e+00 8.562586e+01 
4.206250e+00 8.422729e+01 
4.241580e+00 8.286555e+01 
4.276300e+00 8.155571e+01 
4.310970e+00 8.027561e+01 
4.346120e+00 7.900843e+01 
4.380600e+00 7.779610e+01 
4.414730e+00 7.662139e+01 
4.450350e+00 7.542053e+01 
4.485320e+00 7.426684e+01 
4.519810e+00 7.315621e+01 
4.555430e+00 7.203475e+01 
4.590870e+00 7.094206e+01 
4.625480e+00 6.989613e+01 
4.659910e+00 6.887669e+01 
4.695230e+00 6.785661e+01 
4.729960e+00 6.687453e+01 
4.764450e+00 6.592004e+01 
4.799530e+00 6.497087e+01 
4.834910e+00 6.403263e+01 
4.869700e+00 6.313179e+01 
4.904370e+00 6.225199e+01 
4.939450e+00 6.137857e+01 
4.973940e+00 6.053525e+01 
5.008430e+00 5.970782e+01 
5.043810e+00 5.887467e+01 
5.078840e+00 5.806518e+01 
5.113500e+00 5.727922e+01 
5.148890e+00 5.649921e+01 
5.184210e+00 5.573561e+01 
5.219060e+00 5.499576e+01 
5.253660e+00 5.427377e+01 
5.288570e+00 5.355844e+01 
5.323420e+00 5.285681e+01 
5.358440e+00 5.216399e+01 
5.393590e+00 5.148104e+01 
5.428310e+00 5.082280e+01 
5.462800e+00 5.018261e+01 
5.497640e+00 4.954712e+01 
5.532670e+00 4.891835e+01 
5.567280e+00 4.830752e+01 
5.602000e+00 4.770518e+01 
5.637270e+00 4.710326e+01 
5.672410e+00 4.651371e+01 
5.707020e+00 4.594285e+01 
5.742040e+00 4.537706e+01 
5.777430e+00 4.481536e+01 
5.812210e+00 4.427254e+01 
5.846820e+00 4.374276e+01 
5.881610e+00 4.321928e+01 
5.916510e+00 4.270270e+01 
5.951600e+00 4.219121e+01 
5.986560e+00 4.168962e+01 
6.021830e+00 4.119176e+01 
6.056490e+00 4.071285e+01 
6.091160e+00 4.024348e+01 
6.125830e+00 3.978145e+01 
6.161090e+00 3.931794e+01 
6.195760e+00 3.886718e+01 
6.230420e+00 3.842353e+01 
6.265690e+00 3.797914e+01 
6.300950e+00 3.754355e+01 
6.335620e+00 3.712183e+01 
6.370880e+00 3.669948e+01 
6.405550e+00 3.629162e+01 
6.440220e+00 3.589032e+01 
6.475480e+00 3.548833e+01 
6.510150e+00 3.509881e+01 
6.544810e+00 3.471479e+01 
6.580080e+00 3.432980e+01 
6.614750e+00 3.395694e+01 
6.649410e+00 3.359096e+01 
6.684080e+00 3.323043e+01 
6.719340e+00 3.286909e+01 
6.754010e+00 3.251876e+01 
6.788680e+00 3.217301e+01 
6.823940e+00 3.182642e+01 
6.859800e+00 3.147905e+01 
6.894470e+00 3.114897e+01 
6.929140e+00 3.082386e+01 
6.963800e+00 3.050338e+01 
6.999070e+00 3.018181e+01 
7.033730e+00 2.986986e+01 
7.068400e+00 2.956212e+01 
7.103660e+00 2.925348e+01 
7.138330e+00 2.895458e+01 
7.173600e+00 2.865549e+01 
7.208260e+00 2.836558e+01 
7.243530e+00 2.807458e+01 
7.277600e+00 2.779711e+01 
7.312860e+00 2.751365e+01 
7.348120e+00 2.723403e+01 
7.382790e+00 2.696277e+01 
7.417460e+00 2.669574e+01 
7.452720e+00 2.642811e+01 
7.487390e+00 2.616843e+01 
7.522650e+00 2.590781e+01 
7.557320e+00 2.565467e+01 
7.591990e+00 2.540473e+01 
7.627250e+00 2.515383e+01 
7.662510e+00 2.490622e+01 
7.697180e+00 2.466568e+01 
7.731850e+00 2.442812e+01 
7.766510e+00 2.419365e+01 
7.801180e+00 2.396208e+01 
7.836440e+00 2.373022e+01 
7.871110e+00 2.350553e+01 
7.906380e+00 2.327983e+01 
7.941040e+00 2.306081e+01 
7.976310e+00 2.284002e+01 
8.011570e+00 2.262124e+01 
8.046240e+00 2.240879e+01 
8.080900e+00 2.219902e+01 
8.115570e+00 2.199218e+01 
8.150830e+00 2.178604e+01 
8.185500e+00 2.158583e+01 
8.220770e+00 2.138462e+01 
8.255430e+00 2.118930e+01 
8.290100e+00 2.099531e+01 
8.324770e+00 2.080353e+01 
8.359430e+00 2.061410e+01 
8.394700e+00 2.042364e+01 
8.429960e+00 2.023588e+01 
8.464630e+00 2.005382e+01 
8.499890e+00 1.987084e+01 
8.534560e+00 1.969306e+01 
8.569200e+00 1.951750e+01 
