# Parameters:
# omega_b = 0.022539, omega_m = 0.135433, n_s = 0.947638, h = 78.149606, w = -1.000000, sigma_8 = 0.751969
# z = 0.100000
#
# k[1/Mpc] # P(k):
8.694000e-04 1.268123e+04 
2.077466e-03 2.655124e+04 
3.285532e-03 3.715166e+04 
4.493598e-03 4.511831e+04 
5.701664e-03 5.087796e+04 
6.909730e-03 5.482648e+04 
8.117797e-03 5.738363e+04 
9.325863e-03 5.876695e+04 
1.053393e-02 5.918314e+04 
1.174199e-02 5.882033e+04 
1.295006e-02 5.780166e+04 
1.415813e-02 5.629025e+04 
1.536619e-02 5.442327e+04 
1.657426e-02 5.233935e+04 
1.778233e-02 5.025872e+04 
1.899039e-02 4.818175e+04 
2.019846e-02 4.588501e+04 
2.140652e-02 4.347142e+04 
2.261459e-02 4.111593e+04 
2.382266e-02 3.890244e+04 
2.503072e-02 3.685982e+04 
2.623879e-02 3.499406e+04 
2.744685e-02 3.330821e+04 
2.865492e-02 3.179743e+04 
2.986299e-02 3.045186e+04 
3.100100e-02 2.933003e+04 
3.220400e-02 2.828357e+04 
3.288100e-02 2.775518e+04 
3.424300e-02 2.680529e+04 
3.555100e-02 2.601313e+04 
3.686000e-02 2.531962e+04 
3.795000e-02 2.480566e+04 
3.929100e-02 2.423126e+04 
4.039800e-02 2.378708e+04 
4.164000e-02 2.331613e+04 
4.294400e-02 2.282010e+04 
4.415000e-02 2.236551e+04 
4.542900e-02 2.185752e+04 
4.660900e-02 2.137787e+04 
4.782300e-02 2.083808e+04 
4.892900e-02 2.033291e+04 
5.031200e-02 1.966638e+04 
5.155900e-02 1.903334e+04 
5.238100e-02 1.860564e+04 
5.378200e-02 1.786627e+04 
5.513400e-02 1.714398e+04 
5.627600e-02 1.653472e+04 
5.735300e-02 1.597055e+04 
5.870100e-02 1.528642e+04 
5.988700e-02 1.471188e+04 
6.113500e-02 1.413717e+04 
6.225900e-02 1.365252e+04 
6.340100e-02 1.319306e+04 
6.480200e-02 1.267315e+04 
6.601100e-02 1.227079e+04 
6.725500e-02 1.189727e+04 
6.829100e-02 1.162055e+04 
6.958600e-02 1.130527e+04 
7.071100e-02 1.106472e+04 
7.192300e-02 1.083366e+04 
7.307400e-02 1.063668e+04 
7.412300e-02 1.047417e+04 
7.550400e-02 1.028449e+04 
7.663100e-02 1.014270e+04 
7.791200e-02 9.993372e+03 
7.912700e-02 9.859523e+03 
8.027600e-02 9.736301e+03 
8.138400e-02 9.618706e+03 
8.272200e-02 9.475253e+03 
8.406100e-02 9.326754e+03 
8.534100e-02 9.177686e+03 
8.653800e-02 9.030406e+03 
8.759800e-02 8.896419e+03 
8.900300e-02 8.712205e+03 
9.009000e-02 8.562148e+03 
9.113300e-02 8.414079e+03 
9.239600e-02 8.232894e+03 
9.358000e-02 8.059198e+03 
9.496100e-02 7.853306e+03 
9.608400e-02 7.686801e+03 
9.727500e-02 7.512245e+03 
9.852600e-02 7.329688e+03 
9.973800e-02 7.159033e+03 
1.009000e-01 7.000969e+03 
1.020900e-01 6.845495e+03 
1.034000e-01 6.682150e+03 
1.046000e-01 6.539864e+03 
1.057200e-01 6.417097e+03 
1.069100e-01 6.292810e+03 
1.082500e-01 6.164649e+03 
1.093900e-01 6.063921e+03 
1.105400e-01 5.967944e+03 
1.116900e-01 5.881976e+03 
1.129600e-01 5.792063e+03 
1.142000e-01 5.712908e+03 
1.153300e-01 5.644314e+03 
1.166400e-01 5.569502e+03 
1.177800e-01 5.508214e+03 
1.190000e-01 5.445230e+03 
1.201200e-01 5.388135e+03 
1.213400e-01 5.327295e+03 
1.227100e-01 5.258408e+03 
1.238900e-01 5.199656e+03 
1.250700e-01 5.139120e+03 
1.263200e-01 5.075202e+03 
1.275500e-01 5.010913e+03 
1.287500e-01 4.947583e+03 
1.299900e-01 4.880389e+03 
1.311300e-01 4.818707e+03 
1.323500e-01 4.752209e+03 
1.335900e-01 4.684914e+03 
1.347100e-01 4.623801e+03 
1.359800e-01 4.555506e+03 
1.372100e-01 4.489817e+03 
1.384300e-01 4.425811e+03 
1.395700e-01 4.366540e+03 
1.407700e-01 4.305514e+03 
1.420300e-01 4.243280e+03 
1.432800e-01 4.182917e+03 
1.444500e-01 4.128250e+03 
1.456300e-01 4.074245e+03 
1.468900e-01 4.019123e+03 
1.480500e-01 3.969816e+03 
1.491700e-01 3.923651e+03 
1.503800e-01 3.875416e+03 
1.516400e-01 3.826607e+03 
1.528200e-01 3.783532e+03 
1.540200e-01 3.740567e+03 
1.551900e-01 3.700719e+03 
1.564300e-01 3.659593e+03 
1.576600e-01 3.620052e+03 
1.588700e-01 3.582449e+03 
1.600900e-01 3.545275e+03 
1.612700e-01 3.510557e+03 
1.625400e-01 3.473882e+03 
1.637600e-01 3.439564e+03 
1.649500e-01 3.406840e+03 
1.662200e-01 3.372484e+03 
1.674000e-01 3.340773e+03 
1.685000e-01 3.311704e+03 
1.697500e-01 3.278977e+03 
1.710300e-01 3.245819e+03 
1.722200e-01 3.215535e+03 
1.734400e-01 3.184074e+03 
1.746400e-01 3.153617e+03 
1.758700e-01 3.122705e+03 
1.770900e-01 3.092107e+03 
1.782700e-01 3.063006e+03 
1.794600e-01 3.033771e+03 
1.807000e-01 3.003568e+03 
1.819100e-01 2.974589e+03 
1.830100e-01 2.948423e+03 
1.842200e-01 2.920049e+03 
1.855000e-01 2.890542e+03 
1.867000e-01 2.863505e+03 
1.879200e-01 2.836458e+03 
1.890900e-01 2.810920e+03 
1.902800e-01 2.785315e+03 
1.915200e-01 2.759055e+03 
1.926900e-01 2.734800e+03 
1.939000e-01 2.710548e+03 
1.951700e-01 2.685493e+03 
1.963100e-01 2.663397e+03 
1.975100e-01 2.640622e+03 
1.987800e-01 2.616889e+03 
2.000100e-01 2.594313e+03 
2.012500e-01 2.572027e+03 
2.023400e-01 2.552715e+03 
2.036100e-01 2.530611e+03 
2.048900e-01 2.508966e+03 
2.060400e-01 2.489802e+03 
2.072200e-01 2.470423e+03 
2.084200e-01 2.451157e+03 
2.096900e-01 2.431063e+03 
2.109200e-01 2.411885e+03 
2.121100e-01 2.393607e+03 
2.132700e-01 2.376031e+03 
2.145200e-01 2.357353e+03 
2.157200e-01 2.339705e+03 
2.168800e-01 2.322888e+03 
2.180700e-01 2.305865e+03 
2.193400e-01 2.287968e+03 
2.206000e-01 2.270498e+03 
2.217500e-01 2.254767e+03 
2.229500e-01 2.238564e+03 
2.241400e-01 2.222796e+03 
2.253500e-01 2.206976e+03 
2.264900e-01 2.192261e+03 
2.277100e-01 2.176828e+03 
2.289900e-01 2.160981e+03 
2.301500e-01 2.146806e+03 
2.313600e-01 2.132206e+03 
2.325600e-01 2.117985e+03 
2.337700e-01 2.103826e+03 
2.350000e-01 2.089616e+03 
2.362000e-01 2.076065e+03 
2.374100e-01 2.062735e+03 
2.386500e-01 2.049246e+03 
2.399100e-01 2.035714e+03 
2.410400e-01 2.023808e+03 
2.422500e-01 2.011220e+03 
2.435000e-01 1.998376e+03 
2.447300e-01 1.985912e+03 
2.458700e-01 1.974566e+03 
2.470600e-01 1.962858e+03 
2.483300e-01 1.950515e+03 
2.495600e-01 1.938713e+03 
2.507600e-01 1.927344e+03 
2.519600e-01 1.916108e+03 
2.532200e-01 1.904450e+03 
2.543700e-01 1.893930e+03 
2.555500e-01 1.883256e+03 
2.568000e-01 1.872078e+03 
2.580100e-01 1.861385e+03 
2.592400e-01 1.850565e+03 
2.604100e-01 1.840356e+03 
2.616100e-01 1.830001e+03 
2.628400e-01 1.819507e+03 
2.640600e-01 1.809270e+03 
2.652200e-01 1.799664e+03 
2.664300e-01 1.789753e+03 
2.676500e-01 1.779872e+03 
2.688400e-01 1.770221e+03 
2.700700e-01 1.760280e+03 
2.712400e-01 1.750927e+03 
2.724800e-01 1.741122e+03 
2.736700e-01 1.731778e+03 
2.748800e-01 1.722340e+03 
2.761000e-01 1.712927e+03 
2.773200e-01 1.703615e+03 
2.785400e-01 1.694406e+03 
2.797000e-01 1.685745e+03 
2.808900e-01 1.676951e+03 
2.821400e-01 1.667812e+03 
2.833900e-01 1.658766e+03 
2.845500e-01 1.650347e+03 
2.857800e-01 1.641510e+03 
2.870300e-01 1.632626e+03 
2.882100e-01 1.624325e+03 
2.893900e-01 1.616079e+03 
2.906300e-01 1.607488e+03 
2.918900e-01 1.598849e+03 
2.930500e-01 1.590977e+03 
2.942500e-01 1.582907e+03 
2.954200e-01 1.575099e+03 
2.966500e-01 1.566972e+03 
2.978900e-01 1.558861e+03 
2.990400e-01 1.551413e+03 
3.002700e-01 1.543502e+03 
3.015100e-01 1.535596e+03 
3.026800e-01 1.528209e+03 
3.038500e-01 1.520892e+03 
3.050300e-01 1.513582e+03 
3.062600e-01 1.506022e+03 
3.075000e-01 1.498476e+03 
3.087000e-01 1.491244e+03 
3.099100e-01 1.484021e+03 
3.111200e-01 1.476857e+03 
3.123100e-01 1.469861e+03 
3.135300e-01 1.462755e+03 
3.147300e-01 1.455832e+03 
3.159900e-01 1.448632e+03 
3.171800e-01 1.441954e+03 
3.183700e-01 1.435375e+03 
3.196300e-01 1.428474e+03 
3.208400e-01 1.421910e+03 
3.220300e-01 1.415513e+03 
3.232000e-01 1.409225e+03 
3.244300e-01 1.402654e+03 
3.256700e-01 1.396090e+03 
3.269200e-01 1.389536e+03 
3.280800e-01 1.383508e+03 
3.292500e-01 1.377550e+03 
3.304800e-01 1.371365e+03 
3.317100e-01 1.365236e+03 
3.328900e-01 1.359409e+03 
3.340700e-01 1.353631e+03 
3.353600e-01 1.347396e+03 
3.365300e-01 1.341801e+03 
3.377100e-01 1.336206e+03 
3.389200e-01 1.330519e+03 
3.401600e-01 1.324741e+03 
3.413700e-01 1.319170e+03 
3.425300e-01 1.313884e+03 
3.437700e-01 1.308283e+03 
3.449800e-01 1.302864e+03 
3.461800e-01 1.297537e+03 
3.473600e-01 1.292335e+03 
3.485800e-01 1.286987e+03 
3.498100e-01 1.281641e+03 
3.510200e-01 1.276427e+03 
3.522000e-01 1.271384e+03 
3.533900e-01 1.266340e+03 
3.546400e-01 1.261163e+03 
3.558400e-01 1.256240e+03 
3.570600e-01 1.251275e+03 
3.582700e-01 1.246393e+03 
3.595000e-01 1.241471e+03 
3.607100e-01 1.236681e+03 
3.618900e-01 1.232057e+03 
3.631200e-01 1.227276e+03 
3.643200e-01 1.222649e+03 
3.655500e-01 1.217946e+03 
3.667300e-01 1.213470e+03 
3.679500e-01 1.208899e+03 
3.691900e-01 1.204291e+03 
3.703600e-01 1.199978e+03 
3.715700e-01 1.195552e+03 
3.727700e-01 1.191198e+03 
3.739900e-01 1.186815e+03 
3.752000e-01 1.182517e+03 
3.763900e-01 1.178322e+03 
3.775800e-01 1.174161e+03 
3.788200e-01 1.169859e+03 
3.800300e-01 1.165694e+03 
3.812100e-01 1.161650e+03 
3.824200e-01 1.157527e+03 
3.836100e-01 1.153503e+03 
3.848600e-01 1.149309e+03 
3.860400e-01 1.145381e+03 
3.872400e-01 1.141416e+03 
3.884600e-01 1.137431e+03 
3.896500e-01 1.133579e+03 
3.908700e-01 1.129659e+03 
3.920600e-01 1.125865e+03 
3.933100e-01 1.121910e+03 
3.945300e-01 1.118079e+03 
3.957200e-01 1.114381e+03 
3.969300e-01 1.110652e+03 
3.981700e-01 1.106860e+03 
3.993500e-01 1.103278e+03 
4.094840e-01 1.073451e+03 
4.272360e-01 1.025320e+03 
4.454600e-01 9.801668e+02 
4.630560e-01 9.403718e+02 
4.804610e-01 9.040477e+02 
4.980690e-01 8.700717e+02 
5.159230e-01 8.382108e+02 
5.317440e-01 8.117775e+02 
5.489640e-01 7.850159e+02 
5.671990e-01 7.585599e+02 
5.838690e-01 7.359513e+02 
6.018840e-01 7.131043e+02 
6.202330e-01 6.913797e+02 
6.379250e-01 6.717338e+02 
6.545410e-01 6.542993e+02 
6.714560e-01 6.375055e+02 
6.892080e-01 6.208304e+02 
7.066010e-01 6.053664e+02 
7.240540e-01 5.906420e+02 
7.420450e-01 5.761149e+02 
7.593780e-01 5.628742e+02 
7.764720e-01 5.503389e+02 
7.942840e-01 5.378941e+02 
8.116170e-01 5.262239e+02 
8.288310e-01 5.151089e+02 
8.462240e-01 5.042761e+02 
8.631980e-01 4.941467e+02 
8.810700e-01 4.838155e+02 
8.989410e-01 4.738785e+02 
9.166330e-01 4.643523e+02 
9.345640e-01 4.550123e+02 
9.515980e-01 4.464163e+02 
9.688720e-01 4.379417e+02 
9.865640e-01 4.294990e+02 
1.031870e+00 4.091083e+02 
1.063490e+00 3.956945e+02 
1.097920e+00 3.817951e+02 
1.134370e+00 3.678377e+02 
1.167730e+00 3.557355e+02 
1.203830e+00 3.432503e+02 
1.240470e+00 3.312252e+02 
1.275790e+00 3.201536e+02 
1.309140e+00 3.101944e+02 
1.342970e+00 3.005266e+02 
1.378420e+00 2.908543e+02 
1.413200e+00 2.817717e+02 
1.448110e+00 2.730392e+02 
1.484090e+00 2.644334e+02 
1.518820e+00 2.564702e+02 
1.552880e+00 2.489914e+02 
1.588630e+00 2.414780e+02 
1.623230e+00 2.345027e+02 
1.657720e+00 2.278458e+02 
1.692450e+00 2.214026e+02 
1.726400e+00 2.153361e+02 
1.762200e+00 2.091849e+02 
1.797880e+00 2.032982e+02 
1.833270e+00 1.977044e+02 
1.869070e+00 1.922410e+02 
1.903200e+00 1.872470e+02 
1.937740e+00 1.823707e+02 
1.973190e+00 1.775443e+02 
2.007440e+00 1.730560e+02 
2.042160e+00 1.686795e+02 
2.077900e+00 1.643075e+02 
2.112390e+00 1.602593e+02 
2.146220e+00 1.564181e+02 
2.181600e+00 1.525306e+02 
2.216930e+00 1.487994e+02 
2.250760e+00 1.453371e+02 
2.286500e+00 1.417952e+02 
2.321770e+00 1.384280e+02 
2.355950e+00 1.352680e+02 
2.391280e+00 1.321210e+02 
2.426240e+00 1.290919e+02 
2.460670e+00 1.262024e+02 
2.495640e+00 1.233707e+02 
2.531080e+00 1.205826e+02 
2.566220e+00 1.179024e+02 
2.600830e+00 1.153501e+02 
2.635080e+00 1.129097e+02 
2.670340e+00 1.104631e+02 
2.705970e+00 1.080655e+02 
2.740040e+00 1.058402e+02 
2.774520e+00 1.036480e+02 
2.809730e+00 1.014830e+02 
2.844390e+00 9.941686e+01 
2.879960e+00 9.735324e+01 
2.914860e+00 9.538344e+01 
2.949410e+00 9.349009e+01 
2.984440e+00 9.162920e+01 
3.019760e+00 8.980370e+01 
3.054730e+00 8.804641e+01 
3.089030e+00 8.636432e+01 
3.124060e+00 8.469287e+01 
3.159560e+00 8.304374e+01 
3.194710e+00 8.145917e+01 
3.229010e+00 7.995599e+01 
3.263320e+00 7.848664e+01 
3.297930e+00 7.704575e+01 
3.332830e+00 7.563432e+01 
3.368040e+00 7.424528e+01 
3.403300e+00 7.288915e+01 
3.438450e+00 7.156909e+01 
3.473060e+00 7.030243e+01 
3.508440e+00 6.904365e+01 
3.543110e+00 6.784135e+01 
3.577470e+00 6.667579e+01 
3.613040e+00 6.550049e+01 
3.648120e+00 6.437277e+01 
3.682910e+00 6.328071e+01 
3.718050e+00 6.220205e+01 
3.753320e+00 6.114720e+01 
3.787980e+00 6.013736e+01 
3.822290e+00 5.916003e+01 
3.857020e+00 5.819188e+01 
3.891920e+00 5.724080e+01 
3.926650e+00 5.631445e+01 
3.961970e+00 5.539505e+01 
3.997360e+00 5.449699e+01 
4.031670e+00 5.364675e+01 
4.066330e+00 5.280927e+01 
4.101420e+00 5.198039e+01 
4.136200e+00 5.117474e+01 
4.170810e+00 5.039072e+01 
4.206250e+00 4.960745e+01 
4.241580e+00 4.884423e+01 
4.276300e+00 4.810885e+01 
4.310970e+00 4.738933e+01 
4.346120e+00 4.667634e+01 
4.380600e+00 4.599323e+01 
4.414730e+00 4.533100e+01 
4.450350e+00 4.465259e+01 
4.485320e+00 4.400055e+01 
4.519810e+00 4.337196e+01 
4.555430e+00 4.273670e+01 
4.590870e+00 4.211717e+01 
4.625480e+00 4.152328e+01 
4.659910e+00 4.094419e+01 
4.695230e+00 4.036391e+01 
4.729960e+00 3.980494e+01 
4.764450e+00 3.926123e+01 
4.799530e+00 3.871996e+01 
4.834910e+00 3.818472e+01 
4.869700e+00 3.767013e+01 
4.904370e+00 3.716730e+01 
4.939450e+00 3.666779e+01 
4.973940e+00 3.618492e+01 
5.008430e+00 3.571099e+01 
5.043810e+00 3.523327e+01 
5.078840e+00 3.476875e+01 
5.113500e+00 3.431758e+01 
5.148890e+00 3.386951e+01 
5.184210e+00 3.343070e+01 
5.219060e+00 3.300527e+01 
5.253660e+00 3.258961e+01 
5.288570e+00 3.217765e+01 
5.323420e+00 3.177333e+01 
5.358440e+00 3.137379e+01 
5.393590e+00 3.097983e+01 
5.428310e+00 3.059992e+01 
5.462800e+00 3.023027e+01 
5.497640e+00 2.986322e+01 
5.532670e+00 2.949974e+01 
5.567280e+00 2.914646e+01 
5.602000e+00 2.879799e+01 
5.637270e+00 2.844947e+01 
5.672410e+00 2.810797e+01 
5.707020e+00 2.777719e+01 
5.742040e+00 2.744916e+01 
5.777430e+00 2.712338e+01 
5.812210e+00 2.680846e+01 
5.846820e+00 2.650095e+01 
5.881610e+00 2.619699e+01 
5.916510e+00 2.589695e+01 
5.951600e+00 2.559969e+01 
5.986560e+00 2.530806e+01 
6.021830e+00 2.501850e+01 
6.056490e+00 2.473991e+01 
6.091160e+00 2.446680e+01 
6.125830e+00 2.419788e+01 
6.161090e+00 2.392797e+01 
6.195760e+00 2.366534e+01 
6.230420e+00 2.340677e+01 
6.265690e+00 2.314769e+01 
6.300950e+00 2.289364e+01 
6.335620e+00 2.264760e+01 
6.370880e+00 2.240112e+01 
6.405550e+00 2.216306e+01 
6.440220e+00 2.192878e+01 
6.475480e+00 2.169402e+01 
6.510150e+00 2.146645e+01 
6.544810e+00 2.124198e+01 
6.580080e+00 2.101687e+01 
6.614750e+00 2.079880e+01 
6.649410e+00 2.058471e+01 
6.684080e+00 2.037377e+01 
6.719340e+00 2.016228e+01 
6.754010e+00 1.995717e+01 
6.788680e+00 1.975465e+01 
6.823940e+00 1.955157e+01 
6.859800e+00 1.934798e+01 
6.894470e+00 1.915448e+01 
6.929140e+00 1.896385e+01 
6.963800e+00 1.877588e+01 
6.999070e+00 1.858720e+01 
7.033730e+00 1.840413e+01 
7.068400e+00 1.822347e+01 
7.103660e+00 1.804222e+01 
7.138330e+00 1.786665e+01 
7.173600e+00 1.769093e+01 
7.208260e+00 1.752056e+01 
7.243530e+00 1.734948e+01 
7.277600e+00 1.718631e+01 
7.312860e+00 1.701956e+01 
7.348120e+00 1.685502e+01 
7.382790e+00 1.669534e+01 
7.417460e+00 1.653815e+01 
7.452720e+00 1.638057e+01 
7.487390e+00 1.622763e+01 
7.522650e+00 1.607408e+01 
7.557320e+00 1.592488e+01 
7.591990e+00 1.577751e+01 
7.627250e+00 1.562953e+01 
7.662510e+00 1.548344e+01 
7.697180e+00 1.534147e+01 
7.731850e+00 1.520120e+01 
7.766510e+00 1.506271e+01 
7.801180e+00 1.492590e+01 
7.836440e+00 1.478889e+01 
7.871110e+00 1.465609e+01 
7.906380e+00 1.452265e+01 
7.941040e+00 1.439312e+01 
7.976310e+00 1.426247e+01 
8.011570e+00 1.413295e+01 
8.046240e+00 1.400713e+01 
8.080900e+00 1.388285e+01 
8.115570e+00 1.376029e+01 
8.150830e+00 1.363815e+01 
8.185500e+00 1.351949e+01 
8.220770e+00 1.340019e+01 
8.255430e+00 1.328435e+01 
8.290100e+00 1.316921e+01 
8.324770e+00 1.305535e+01 
8.359430e+00 1.294284e+01 
8.394700e+00 1.282968e+01 
8.429960e+00 1.271810e+01 
8.464630e+00 1.260986e+01 
8.499890e+00 1.250106e+01 
8.534560e+00 1.239530e+01 
8.569200e+00 1.229083e+01 
