# Parameters:
# omega_b = 0.022728, omega_m = 0.120827, n_s = 1.012205, h = 59.251969, w = -1.000000, sigma_8 = 0.742520
# z = 0.100000
#
# k[1/Mpc] # P(k):
8.694000e-04 1.877482e+04 
2.077466e-03 4.105134e+04 
3.285532e-03 5.842055e+04 
4.493598e-03 7.149514e+04 
5.701664e-03 8.090783e+04 
6.909730e-03 8.726057e+04 
8.117797e-03 9.123282e+04 
9.325863e-03 9.318478e+04 
1.053393e-02 9.347834e+04 
1.174199e-02 9.245446e+04 
1.295006e-02 9.032881e+04 
1.415813e-02 8.738830e+04 
1.536619e-02 8.387734e+04 
1.657426e-02 7.980977e+04 
1.778233e-02 7.488085e+04 
1.899039e-02 6.973044e+04 
2.019846e-02 6.540093e+04 
2.140652e-02 6.181364e+04 
2.261459e-02 5.855433e+04 
2.382266e-02 5.551797e+04 
2.503072e-02 5.271633e+04 
2.623879e-02 5.015529e+04 
2.744685e-02 4.783770e+04 
2.865492e-02 4.575468e+04 
2.986299e-02 4.389099e+04 
3.100100e-02 4.232540e+04 
3.220400e-02 4.084890e+04 
3.288100e-02 4.009303e+04 
3.424300e-02 3.871154e+04 
3.555100e-02 3.752934e+04 
3.686000e-02 3.646160e+04 
3.795000e-02 3.564648e+04 
3.929100e-02 3.470358e+04 
4.039800e-02 3.395722e+04 
4.164000e-02 3.315398e+04 
4.294400e-02 3.230739e+04 
4.415000e-02 3.153844e+04 
4.542900e-02 3.070290e+04 
4.660900e-02 2.993389e+04 
4.782300e-02 2.910677e+04 
4.892900e-02 2.835582e+04 
5.031200e-02 2.740115e+04 
5.155900e-02 2.652814e+04 
5.238100e-02 2.595264e+04 
5.378200e-02 2.497932e+04 
5.513400e-02 2.405090e+04 
5.627600e-02 2.327992e+04 
5.735300e-02 2.257212e+04 
5.870100e-02 2.171816e+04 
5.988700e-02 2.100118e+04 
6.113500e-02 2.028117e+04 
6.225900e-02 1.966945e+04 
6.340100e-02 1.908295e+04 
6.480200e-02 1.841024e+04 
6.601100e-02 1.787908e+04 
6.725500e-02 1.737580e+04 
6.829100e-02 1.699372e+04 
6.958600e-02 1.654967e+04 
7.071100e-02 1.620201e+04 
7.192300e-02 1.586037e+04 
7.307400e-02 1.556264e+04 
7.412300e-02 1.531238e+04 
7.550400e-02 1.501412e+04 
7.663100e-02 1.478833e+04 
7.791200e-02 1.454825e+04 
7.912700e-02 1.433288e+04 
8.027600e-02 1.413546e+04 
8.138400e-02 1.394830e+04 
8.272200e-02 1.372228e+04 
8.406100e-02 1.349111e+04 
8.534100e-02 1.326198e+04 
8.653800e-02 1.303782e+04 
8.759800e-02 1.283513e+04 
8.900300e-02 1.255840e+04 
9.009000e-02 1.233475e+04 
9.113300e-02 1.211588e+04 
9.239600e-02 1.184987e+04 
9.358000e-02 1.159736e+04 
9.496100e-02 1.130267e+04 
9.608400e-02 1.106734e+04 
9.727500e-02 1.082300e+04 
9.852600e-02 1.057422e+04 
9.973800e-02 1.034460e+04 
1.009000e-01 1.013435e+04 
1.020900e-01 9.933037e+03 
1.034000e-01 9.723428e+03 
1.046000e-01 9.542856e+03 
1.057200e-01 9.389248e+03 
1.069100e-01 9.234038e+03 
1.082500e-01 9.074399e+03 
1.093900e-01 8.948049e+03 
1.105400e-01 8.827119e+03 
1.116900e-01 8.716238e+03 
1.129600e-01 8.599049e+03 
1.142000e-01 8.492149e+03 
1.153300e-01 8.397595e+03 
1.166400e-01 8.291424e+03 
1.177800e-01 8.201519e+03 
1.190000e-01 8.107707e+03 
1.201200e-01 8.019959e+03 
1.213400e-01 7.925971e+03 
1.227100e-01 7.817465e+03 
1.238900e-01 7.724844e+03 
1.250700e-01 7.629330e+03 
1.263200e-01 7.528846e+03 
1.275500e-01 7.428576e+03 
1.287500e-01 7.330639e+03 
1.299900e-01 7.228011e+03 
1.311300e-01 7.134824e+03 
1.323500e-01 7.035864e+03 
1.335900e-01 6.936881e+03 
1.347100e-01 6.848496e+03 
1.359800e-01 6.750635e+03 
1.372100e-01 6.658325e+03 
1.384300e-01 6.569031e+03 
1.395700e-01 6.487925e+03 
1.407700e-01 6.404564e+03 
1.420300e-01 6.321391e+03 
1.432800e-01 6.240673e+03 
1.444500e-01 6.168791e+03 
1.456300e-01 6.097741e+03 
1.468900e-01 6.025611e+03 
1.480500e-01 5.961189e+03 
1.491700e-01 5.900742e+03 
1.503800e-01 5.837428e+03 
1.516400e-01 5.773186e+03 
1.528200e-01 5.715827e+03 
1.540200e-01 5.658600e+03 
1.551900e-01 5.604505e+03 
1.564300e-01 5.548415e+03 
1.576600e-01 5.493829e+03 
1.588700e-01 5.441123e+03 
1.600900e-01 5.388941e+03 
1.612700e-01 5.338885e+03 
1.625400e-01 5.286006e+03 
1.637600e-01 5.235883e+03 
1.649500e-01 5.187707e+03 
1.662200e-01 5.137038e+03 
1.674000e-01 5.089762e+03 
1.685000e-01 5.046421e+03 
1.697500e-01 4.997555e+03 
1.710300e-01 4.947973e+03 
1.722200e-01 4.902689e+03 
1.734400e-01 4.855873e+03 
1.746400e-01 4.810561e+03 
1.758700e-01 4.764732e+03 
1.770900e-01 4.719700e+03 
1.782700e-01 4.676865e+03 
1.794600e-01 4.634199e+03 
1.807000e-01 4.590362e+03 
1.819100e-01 4.548295e+03 
1.830100e-01 4.510801e+03 
1.842200e-01 4.470221e+03 
1.855000e-01 4.428038e+03 
1.867000e-01 4.389956e+03 
1.879200e-01 4.351851e+03 
1.890900e-01 4.315935e+03 
1.902800e-01 4.280278e+03 
1.915200e-01 4.243701e+03 
1.926900e-01 4.209989e+03 
1.939000e-01 4.176532e+03 
1.951700e-01 4.141961e+03 
1.963100e-01 4.111501e+03 
1.975100e-01 4.080183e+03 
1.987800e-01 4.047541e+03 
2.000100e-01 4.016480e+03 
2.012500e-01 3.985796e+03 
2.023400e-01 3.959203e+03 
2.036100e-01 3.928728e+03 
2.048900e-01 3.898748e+03 
2.060400e-01 3.872202e+03 
2.072200e-01 3.845334e+03 
2.084200e-01 3.818347e+03 
2.096900e-01 3.790198e+03 
2.109200e-01 3.763330e+03 
2.121100e-01 3.737315e+03 
2.132700e-01 3.712277e+03 
2.145200e-01 3.685667e+03 
2.157200e-01 3.660199e+03 
2.168800e-01 3.635779e+03 
2.180700e-01 3.611057e+03 
2.193400e-01 3.584872e+03 
2.206000e-01 3.558952e+03 
2.217500e-01 3.535610e+03 
2.229500e-01 3.511567e+03 
2.241400e-01 3.487650e+03 
2.253500e-01 3.463638e+03 
2.264900e-01 3.441302e+03 
2.277100e-01 3.417653e+03 
2.289900e-01 3.393116e+03 
2.301500e-01 3.371168e+03 
2.313600e-01 3.348559e+03 
2.325600e-01 3.326189e+03 
2.337700e-01 3.303918e+03 
2.350000e-01 3.281566e+03 
2.362000e-01 3.260175e+03 
2.374100e-01 3.239041e+03 
2.386500e-01 3.217655e+03 
2.399100e-01 3.196201e+03 
2.410400e-01 3.177349e+03 
2.422500e-01 3.157420e+03 
2.435000e-01 3.137087e+03 
2.447300e-01 3.117392e+03 
2.458700e-01 3.099611e+03 
2.470600e-01 3.081265e+03 
2.483300e-01 3.061922e+03 
2.495600e-01 3.043553e+03 
2.507600e-01 3.026030e+03 
2.519600e-01 3.008711e+03 
2.532200e-01 2.990742e+03 
2.543700e-01 2.974708e+03 
2.555500e-01 2.958559e+03 
2.568000e-01 2.941651e+03 
2.580100e-01 2.925475e+03 
2.592400e-01 2.909302e+03 
2.604100e-01 2.894126e+03 
2.616100e-01 2.878734e+03 
2.628400e-01 2.863137e+03 
2.640600e-01 2.848079e+03 
2.652200e-01 2.834014e+03 
2.664300e-01 2.819503e+03 
2.676500e-01 2.805034e+03 
2.688400e-01 2.790973e+03 
2.700700e-01 2.776534e+03 
2.712400e-01 2.762948e+03 
2.724800e-01 2.748706e+03 
2.736700e-01 2.735165e+03 
2.748800e-01 2.721523e+03 
2.761000e-01 2.707916e+03 
2.773200e-01 2.694456e+03 
2.785400e-01 2.681153e+03 
2.797000e-01 2.668662e+03 
2.808900e-01 2.655980e+03 
2.821400e-01 2.642800e+03 
2.833900e-01 2.629754e+03 
2.845500e-01 2.617582e+03 
2.857800e-01 2.604808e+03 
2.870300e-01 2.591964e+03 
2.882100e-01 2.579965e+03 
2.893900e-01 2.568031e+03 
2.906300e-01 2.555588e+03 
2.918900e-01 2.543077e+03 
2.930500e-01 2.531676e+03 
2.942500e-01 2.519982e+03 
2.954200e-01 2.508641e+03 
2.966500e-01 2.496836e+03 
2.978900e-01 2.485056e+03 
2.990400e-01 2.474239e+03 
3.002700e-01 2.462727e+03 
3.015100e-01 2.451212e+03 
3.026800e-01 2.440454e+03 
3.038500e-01 2.429797e+03 
3.050300e-01 2.419149e+03 
3.062600e-01 2.408089e+03 
3.075000e-01 2.397049e+03 
3.087000e-01 2.386469e+03 
3.099100e-01 2.375903e+03 
3.111200e-01 2.365417e+03 
3.123100e-01 2.355168e+03 
3.135300e-01 2.344760e+03 
3.147300e-01 2.334620e+03 
3.159900e-01 2.324073e+03 
3.171800e-01 2.314296e+03 
3.183700e-01 2.304665e+03 
3.196300e-01 2.294564e+03 
3.208400e-01 2.284956e+03 
3.220300e-01 2.275593e+03 
3.232000e-01 2.266353e+03 
3.244300e-01 2.256682e+03 
3.256700e-01 2.247022e+03 
3.269200e-01 2.237376e+03 
3.280800e-01 2.228506e+03 
3.292500e-01 2.219751e+03 
3.304800e-01 2.210665e+03 
3.317100e-01 2.201662e+03 
3.328900e-01 2.193102e+03 
3.340700e-01 2.184616e+03 
3.353600e-01 2.175446e+03 
3.365300e-01 2.167213e+03 
3.377100e-01 2.158980e+03 
3.389200e-01 2.150612e+03 
3.401600e-01 2.142112e+03 
3.413700e-01 2.133908e+03 
3.425300e-01 2.126121e+03 
3.437700e-01 2.117869e+03 
3.449800e-01 2.109888e+03 
3.461800e-01 2.102040e+03 
3.473600e-01 2.094377e+03 
3.485800e-01 2.086493e+03 
3.498100e-01 2.078613e+03 
3.510200e-01 2.070927e+03 
3.522000e-01 2.063495e+03 
3.533900e-01 2.056062e+03 
3.546400e-01 2.048415e+03 
3.558400e-01 2.041141e+03 
3.570600e-01 2.033808e+03 
3.582700e-01 2.026597e+03 
3.595000e-01 2.019327e+03 
3.607100e-01 2.012247e+03 
3.618900e-01 2.005407e+03 
3.631200e-01 1.998336e+03 
3.643200e-01 1.991494e+03 
3.655500e-01 1.984539e+03 
3.667300e-01 1.977922e+03 
3.679500e-01 1.971137e+03 
3.691900e-01 1.964299e+03 
3.703600e-01 1.957899e+03 
3.715700e-01 1.951332e+03 
3.727700e-01 1.944872e+03 
3.739900e-01 1.938369e+03 
3.752000e-01 1.931993e+03 
3.763900e-01 1.925772e+03 
3.775800e-01 1.919600e+03 
3.788200e-01 1.913219e+03 
3.800300e-01 1.907043e+03 
3.812100e-01 1.901027e+03 
3.824200e-01 1.894878e+03 
3.836100e-01 1.888878e+03 
3.848600e-01 1.882626e+03 
3.860400e-01 1.876769e+03 
3.872400e-01 1.870859e+03 
3.884600e-01 1.864902e+03 
3.896500e-01 1.859138e+03 
3.908700e-01 1.853275e+03 
3.920600e-01 1.847599e+03 
3.933100e-01 1.841683e+03 
3.945300e-01 1.835955e+03 
3.957200e-01 1.830419e+03 
3.969300e-01 1.824836e+03 
3.981700e-01 1.819159e+03 
3.993500e-01 1.813797e+03 
4.094840e-01 1.768964e+03 
4.272360e-01 1.696062e+03 
4.454600e-01 1.627016e+03 
4.630560e-01 1.565701e+03 
4.804610e-01 1.509201e+03 
4.980690e-01 1.455967e+03 
5.159230e-01 1.405637e+03 
5.317440e-01 1.363608e+03 
5.489640e-01 1.320718e+03 
5.671990e-01 1.277916e+03 
5.838690e-01 1.241058e+03 
6.018840e-01 1.203513e+03 
6.202330e-01 1.167432e+03 
6.379250e-01 1.134571e+03 
6.545410e-01 1.105075e+03 
6.714560e-01 1.076469e+03 
6.892080e-01 1.047770e+03 
7.066010e-01 1.020948e+03 
7.240540e-01 9.952251e+02 
7.420450e-01 9.696005e+02 
7.593780e-01 9.460809e+02 
7.764720e-01 9.236831e+02 
7.942840e-01 9.012996e+02 
8.116170e-01 8.802015e+02 
8.288310e-01 8.599916e+02 
8.462240e-01 8.402215e+02 
8.631980e-01 8.216555e+02 
8.810700e-01 8.026704e+02 
8.989410e-01 7.843651e+02 
9.166330e-01 7.667796e+02 
9.345640e-01 7.495099e+02 
9.515980e-01 7.336069e+02 
9.688720e-01 7.179113e+02 
9.865640e-01 7.022819e+02 
1.031870e+00 6.645358e+02 
1.063490e+00 6.397699e+02 
1.097920e+00 6.141652e+02 
1.134370e+00 5.885710e+02 
1.167730e+00 5.664661e+02 
1.203830e+00 5.437814e+02 
1.240470e+00 5.220379e+02 
1.275790e+00 5.021400e+02 
1.309140e+00 4.843404e+02 
1.342970e+00 4.671584e+02 
1.378420e+00 4.500575e+02 
1.413200e+00 4.341070e+02 
1.448110e+00 4.188577e+02 
1.484090e+00 4.039170e+02 
1.518820e+00 3.901742e+02 
1.552880e+00 3.773439e+02 
1.588630e+00 3.645184e+02 
1.623230e+00 3.526791e+02 
1.657720e+00 3.414333e+02 
1.692450e+00 3.306013e+02 
1.726400e+00 3.204663e+02 
1.762200e+00 3.102387e+02 
1.797880e+00 3.005034e+02 
1.833270e+00 2.912907e+02 
1.869070e+00 2.823445e+02 
1.903200e+00 2.741996e+02 
1.937740e+00 2.662813e+02 
1.973190e+00 2.584800e+02 
2.007440e+00 2.512552e+02 
2.042160e+00 2.442385e+02 
2.077900e+00 2.372619e+02 
2.112390e+00 2.308227e+02 
2.146220e+00 2.247408e+02 
2.181600e+00 2.186093e+02 
2.216930e+00 2.127442e+02 
2.250760e+00 2.073226e+02 
2.286500e+00 2.017962e+02 
2.321770e+00 1.965592e+02 
2.355950e+00 1.916616e+02 
2.391280e+00 1.868008e+02 
2.426240e+00 1.821392e+02 
2.460670e+00 1.777059e+02 
2.495640e+00 1.733723e+02 
2.531080e+00 1.691224e+02 
2.566220e+00 1.650493e+02 
2.600830e+00 1.611804e+02 
2.635080e+00 1.574895e+02 
2.670340e+00 1.538034e+02 
2.705970e+00 1.502007e+02 
2.740040e+00 1.468651e+02 
2.774520e+00 1.435890e+02 
2.809730e+00 1.403614e+02 
2.844390e+00 1.372877e+02 
2.879960e+00 1.342266e+02 
2.914860e+00 1.313128e+02 
2.949410e+00 1.285173e+02 
2.984440e+00 1.257766e+02 
3.019760e+00 1.230943e+02 
3.054730e+00 1.205169e+02 
3.089030e+00 1.180580e+02 
3.124060e+00 1.156188e+02 
3.159560e+00 1.132174e+02 
3.194710e+00 1.109150e+02 
3.229010e+00 1.087338e+02 
3.263320e+00 1.066079e+02 
3.297930e+00 1.045258e+02 
3.332830e+00 1.024905e+02 
3.368040e+00 1.004913e+02 
3.403300e+00 9.854254e+01 
3.438450e+00 9.665026e+01 
3.473060e+00 9.483644e+01 
3.508440e+00 9.303844e+01 
3.543110e+00 9.132271e+01 
3.577470e+00 8.966344e+01 
3.613040e+00 8.799202e+01 
3.648120e+00 8.639128e+01 
3.682910e+00 8.484305e+01 
3.718050e+00 8.331662e+01 
3.753320e+00 8.182574e+01 
3.787980e+00 8.040074e+01 
3.822290e+00 7.902337e+01 
3.857020e+00 7.766123e+01 
3.891920e+00 7.632461e+01 
3.926650e+00 7.502483e+01 
3.961970e+00 7.373606e+01 
3.997360e+00 7.247929e+01 
4.031670e+00 7.129035e+01 
4.066330e+00 7.012119e+01 
4.101420e+00 6.896465e+01 
4.136200e+00 6.784285e+01 
4.170810e+00 6.675167e+01 
4.206250e+00 6.566325e+01 
4.241580e+00 6.460340e+01 
4.276300e+00 6.358367e+01 
4.310970e+00 6.258694e+01 
4.346120e+00 6.160013e+01 
4.380600e+00 6.065580e+01 
4.414730e+00 5.974075e+01 
4.450350e+00 5.880503e+01 
4.485320e+00 5.790606e+01 
4.519810e+00 5.704045e+01 
4.555430e+00 5.616633e+01 
4.590870e+00 5.531452e+01 
4.625480e+00 5.449896e+01 
4.659910e+00 5.370404e+01 
4.695230e+00 5.290852e+01 
4.729960e+00 5.214260e+01 
4.764450e+00 5.139815e+01 
4.799530e+00 5.065778e+01 
4.834910e+00 4.992593e+01 
4.869700e+00 4.922312e+01 
4.904370e+00 4.853671e+01 
4.939450e+00 4.785525e+01 
4.973940e+00 4.719722e+01 
5.008430e+00 4.655159e+01 
5.043810e+00 4.590146e+01 
5.078840e+00 4.526977e+01 
5.113500e+00 4.465645e+01 
5.148890e+00 4.404777e+01 
5.184210e+00 4.345189e+01 
5.219060e+00 4.287453e+01 
5.253660e+00 4.231104e+01 
5.288570e+00 4.175276e+01 
5.323420e+00 4.120521e+01 
5.358440e+00 4.066457e+01 
5.393590e+00 4.013163e+01 
5.428310e+00 3.961801e+01 
5.462800e+00 3.911848e+01 
5.497640e+00 3.862263e+01 
5.532670e+00 3.813204e+01 
5.567280e+00 3.765546e+01 
5.602000e+00 3.718552e+01 
5.637270e+00 3.671595e+01 
5.672410e+00 3.625603e+01 
5.707020e+00 3.581071e+01 
5.742040e+00 3.536938e+01 
5.777430e+00 3.493125e+01 
5.812210e+00 3.450784e+01 
5.846820e+00 3.409469e+01 
5.881610e+00 3.368648e+01 
5.916510e+00 3.328365e+01 
5.951600e+00 3.288486e+01 
5.986560e+00 3.249384e+01 
6.021830e+00 3.210572e+01 
6.056490e+00 3.173242e+01 
6.091160e+00 3.136658e+01 
6.125830e+00 3.100648e+01 
6.161090e+00 3.064525e+01 
6.195760e+00 3.029404e+01 
6.230420e+00 2.994837e+01 
6.265690e+00 2.960212e+01 
6.300950e+00 2.926284e+01 
6.335620e+00 2.893436e+01 
6.370880e+00 2.860538e+01 
6.405550e+00 2.828779e+01 
6.440220e+00 2.797536e+01 
6.475480e+00 2.766237e+01 
6.510150e+00 2.735913e+01 
6.544810e+00 2.706022e+01 
6.580080e+00 2.676056e+01 
6.614750e+00 2.647034e+01 
6.649410e+00 2.618560e+01 
6.684080e+00 2.590512e+01 
6.719340e+00 2.562401e+01 
6.754010e+00 2.535149e+01 
6.788680e+00 2.508261e+01 
6.823940e+00 2.481307e+01 
6.859800e+00 2.454292e+01 
6.894470e+00 2.428630e+01 
6.929140e+00 2.403358e+01 
6.963800e+00 2.378444e+01 
6.999070e+00 2.353446e+01 
7.033730e+00 2.329208e+01 
7.068400e+00 2.305297e+01 
7.103660e+00 2.281315e+01 
7.138330e+00 2.258094e+01 
7.173600e+00 2.234866e+01 
7.208260e+00 2.212351e+01 
7.243530e+00 2.189751e+01 
7.277600e+00 2.168206e+01 
7.312860e+00 2.146200e+01 
7.348120e+00 2.124492e+01 
7.382790e+00 2.103432e+01 
7.417460e+00 2.082710e+01 
7.452720e+00 2.061946e+01 
7.487390e+00 2.041797e+01 
7.522650e+00 2.021575e+01 
7.557320e+00 2.001940e+01 
7.591990e+00 1.982555e+01 
7.627250e+00 1.963095e+01 
7.662510e+00 1.943889e+01 
7.697180e+00 1.925239e+01 
7.731850e+00 1.906822e+01 
7.766510e+00 1.888643e+01 
7.801180e+00 1.870689e+01 
7.836440e+00 1.852719e+01 
7.871110e+00 1.835308e+01 
7.906380e+00 1.817818e+01 
7.941040e+00 1.800846e+01 
7.976310e+00 1.783740e+01 
8.011570e+00 1.766793e+01 
8.046240e+00 1.750336e+01 
8.080900e+00 1.734085e+01 
8.115570e+00 1.718064e+01 
8.150830e+00 1.702105e+01 
8.185500e+00 1.686605e+01 
8.220770e+00 1.671027e+01 
8.255430e+00 1.655903e+01 
8.290100e+00 1.640888e+01 
8.324770e+00 1.626045e+01 
8.359430e+00 1.611383e+01 
8.394700e+00 1.596640e+01 
8.429960e+00 1.582109e+01 
8.464630e+00 1.568024e+01 
8.499890e+00 1.553867e+01 
8.534560e+00 1.540110e+01 
8.569200e+00 1.526525e+01 
