# Parameters:
# omega_b = 0.021642, omega_m = 0.127992, n_s = 1.018504, h = 68.937008, w = -1.000000, sigma_8 = 0.750394
# z = 0.100000
#
# k[1/Mpc] # P(k):
8.694000e-04 1.210082e+04 
2.077466e-03 2.677723e+04 
3.285532e-03 3.844065e+04 
4.493598e-03 4.741509e+04 
5.701664e-03 5.406168e+04 
6.909730e-03 5.873284e+04 
8.117797e-03 6.184460e+04 
9.325863e-03 6.361752e+04 
1.053393e-02 6.427713e+04 
1.174199e-02 6.403813e+04 
1.295006e-02 6.303650e+04 
1.415813e-02 6.145595e+04 
1.536619e-02 5.945550e+04 
1.657426e-02 5.713422e+04 
1.778233e-02 5.457066e+04 
1.899039e-02 5.193794e+04 
2.019846e-02 4.935175e+04 
2.140652e-02 4.685722e+04 
2.261459e-02 4.446747e+04 
2.382266e-02 4.221786e+04 
2.503072e-02 4.013480e+04 
2.623879e-02 3.822633e+04 
2.744685e-02 3.649726e+04 
2.865492e-02 3.494362e+04 
2.986299e-02 3.355593e+04 
3.100100e-02 3.239466e+04 
3.220400e-02 3.130615e+04 
3.288100e-02 3.075315e+04 
3.424300e-02 2.975179e+04 
3.555100e-02 2.890668e+04 
3.686000e-02 2.815559e+04 
3.795000e-02 2.759065e+04 
3.929100e-02 2.694700e+04 
4.039800e-02 2.644175e+04 
4.164000e-02 2.590039e+04 
4.294400e-02 2.532626e+04 
4.415000e-02 2.480039e+04 
4.542900e-02 2.421737e+04 
4.660900e-02 2.367173e+04 
4.782300e-02 2.306784e+04 
4.892900e-02 2.250934e+04 
5.031200e-02 2.178279e+04 
5.155900e-02 2.110256e+04 
5.238100e-02 2.064715e+04 
5.378200e-02 1.986606e+04 
5.513400e-02 1.910917e+04 
5.627600e-02 1.847373e+04 
5.735300e-02 1.788654e+04 
5.870100e-02 1.717485e+04 
5.988700e-02 1.657626e+04 
6.113500e-02 1.597564e+04 
6.225900e-02 1.546697e+04 
6.340100e-02 1.498204e+04 
6.480200e-02 1.442978e+04 
6.601100e-02 1.399873e+04 
6.725500e-02 1.359524e+04 
6.829100e-02 1.329357e+04 
6.958600e-02 1.294732e+04 
7.071100e-02 1.268084e+04 
7.192300e-02 1.242299e+04 
7.307400e-02 1.220167e+04 
7.412300e-02 1.201811e+04 
7.550400e-02 1.180273e+04 
7.663100e-02 1.164125e+04 
7.791200e-02 1.147077e+04 
7.912700e-02 1.131790e+04 
8.027600e-02 1.117716e+04 
8.138400e-02 1.104281e+04 
8.272200e-02 1.087883e+04 
8.406100e-02 1.070884e+04 
8.534100e-02 1.053778e+04 
8.653800e-02 1.036833e+04 
8.759800e-02 1.021394e+04 
8.900300e-02 1.000136e+04 
9.009000e-02 9.828096e+03 
9.113300e-02 9.657298e+03 
9.239600e-02 9.448620e+03 
9.358000e-02 9.249173e+03 
9.496100e-02 9.014262e+03 
9.608400e-02 8.825372e+03 
9.727500e-02 8.628235e+03 
9.852600e-02 8.424779e+03 
9.973800e-02 8.235827e+03 
1.009000e-01 8.061831e+03 
1.020900e-01 7.893089e+03 
1.034000e-01 7.716674e+03 
1.046000e-01 7.563928e+03 
1.057200e-01 7.433255e+03 
1.069100e-01 7.301167e+03 
1.082500e-01 7.165433e+03 
1.093900e-01 7.058581e+03 
1.105400e-01 6.956663e+03 
1.116900e-01 6.864644e+03 
1.129600e-01 6.768016e+03 
1.142000e-01 6.681727e+03 
1.153300e-01 6.606265e+03 
1.166400e-01 6.522873e+03 
1.177800e-01 6.453483e+03 
1.190000e-01 6.381657e+03 
1.201200e-01 6.315394e+03 
1.213400e-01 6.244582e+03 
1.227100e-01 6.163372e+03 
1.238900e-01 6.094013e+03 
1.250700e-01 6.022291e+03 
1.263200e-01 5.946603e+03 
1.275500e-01 5.870569e+03 
1.287500e-01 5.795858e+03 
1.299900e-01 5.716880e+03 
1.311300e-01 5.644659e+03 
1.323500e-01 5.567209e+03 
1.335900e-01 5.489167e+03 
1.347100e-01 5.418732e+03 
1.359800e-01 5.340299e+03 
1.372100e-01 5.265423e+03 
1.384300e-01 5.192673e+03 
1.395700e-01 5.125814e+03 
1.407700e-01 5.057024e+03 
1.420300e-01 4.987510e+03 
1.432800e-01 4.920065e+03 
1.444500e-01 4.859463e+03 
1.456300e-01 4.799577e+03 
1.468900e-01 4.738664e+03 
1.480500e-01 4.684234e+03 
1.491700e-01 4.633286e+03 
1.503800e-01 4.580079e+03 
1.516400e-01 4.526205e+03 
1.528200e-01 4.478570e+03 
1.540200e-01 4.431048e+03 
1.551900e-01 4.386753e+03 
1.564300e-01 4.340978e+03 
1.576600e-01 4.296788e+03 
1.588700e-01 4.254550e+03 
1.600900e-01 4.212767e+03 
1.612700e-01 4.173343e+03 
1.625400e-01 4.131695e+03 
1.637600e-01 4.092482e+03 
1.649500e-01 4.054947e+03 
1.662200e-01 4.015493e+03 
1.674000e-01 3.978814e+03 
1.685000e-01 3.945188e+03 
1.697500e-01 3.907224e+03 
1.710300e-01 3.868652e+03 
1.722200e-01 3.833423e+03 
1.734400e-01 3.796730e+03 
1.746400e-01 3.761205e+03 
1.758700e-01 3.725152e+03 
1.770900e-01 3.689475e+03 
1.782700e-01 3.655540e+03 
1.794600e-01 3.621507e+03 
1.807000e-01 3.586385e+03 
1.819100e-01 3.552683e+03 
1.830100e-01 3.522373e+03 
1.842200e-01 3.489523e+03 
1.855000e-01 3.455367e+03 
1.867000e-01 3.424258e+03 
1.879200e-01 3.393134e+03 
1.890900e-01 3.363772e+03 
1.902800e-01 3.334481e+03 
1.915200e-01 3.304437e+03 
1.926900e-01 3.276726e+03 
1.939000e-01 3.249151e+03 
1.951700e-01 3.220660e+03 
1.963100e-01 3.195562e+03 
1.975100e-01 3.169768e+03 
1.987800e-01 3.142886e+03 
2.000100e-01 3.117329e+03 
2.012500e-01 3.092134e+03 
2.023400e-01 3.070299e+03 
2.036100e-01 3.045302e+03 
2.048900e-01 3.020810e+03 
2.060400e-01 2.999123e+03 
2.072200e-01 2.977186e+03 
2.084200e-01 2.955288e+03 
2.096900e-01 2.932447e+03 
2.109200e-01 2.910646e+03 
2.121100e-01 2.889693e+03 
2.132700e-01 2.869536e+03 
2.145200e-01 2.848114e+03 
2.157200e-01 2.827714e+03 
2.168800e-01 2.808200e+03 
2.180700e-01 2.788447e+03 
2.193400e-01 2.767572e+03 
2.206000e-01 2.747000e+03 
2.217500e-01 2.728473e+03 
2.229500e-01 2.709391e+03 
2.241400e-01 2.690516e+03 
2.253500e-01 2.671568e+03 
2.264900e-01 2.653944e+03 
2.277100e-01 2.635312e+03 
2.289900e-01 2.616013e+03 
2.301500e-01 2.598751e+03 
2.313600e-01 2.580969e+03 
2.325600e-01 2.563389e+03 
2.337700e-01 2.545886e+03 
2.350000e-01 2.528321e+03 
2.362000e-01 2.511487e+03 
2.374100e-01 2.494829e+03 
2.386500e-01 2.477972e+03 
2.399100e-01 2.461062e+03 
2.410400e-01 2.446127e+03 
2.422500e-01 2.430329e+03 
2.435000e-01 2.414211e+03 
2.447300e-01 2.398575e+03 
2.458700e-01 2.384369e+03 
2.470600e-01 2.369710e+03 
2.483300e-01 2.354256e+03 
2.495600e-01 2.339531e+03 
2.507600e-01 2.325415e+03 
2.519600e-01 2.311463e+03 
2.532200e-01 2.296988e+03 
2.543700e-01 2.284024e+03 
2.555500e-01 2.270933e+03 
2.568000e-01 2.257226e+03 
2.580100e-01 2.244112e+03 
2.592400e-01 2.230971e+03 
2.604100e-01 2.218627e+03 
2.616100e-01 2.206107e+03 
2.628400e-01 2.193419e+03 
2.640600e-01 2.181162e+03 
2.652200e-01 2.169709e+03 
2.664300e-01 2.157892e+03 
2.676500e-01 2.146110e+03 
2.688400e-01 2.134684e+03 
2.700700e-01 2.122967e+03 
2.712400e-01 2.111942e+03 
2.724800e-01 2.100385e+03 
2.736700e-01 2.089419e+03 
2.748800e-01 2.078395e+03 
2.761000e-01 2.067400e+03 
2.773200e-01 2.056523e+03 
2.785400e-01 2.045787e+03 
2.797000e-01 2.035736e+03 
2.808900e-01 2.025530e+03 
2.821400e-01 2.014924e+03 
2.833900e-01 2.004428e+03 
2.845500e-01 1.994690e+03 
2.857800e-01 1.984470e+03 
2.870300e-01 1.974194e+03 
2.882100e-01 1.964593e+03 
2.893900e-01 1.955069e+03 
2.906300e-01 1.945151e+03 
2.918900e-01 1.935179e+03 
2.930500e-01 1.926092e+03 
2.942500e-01 1.916778e+03 
2.954200e-01 1.907768e+03 
2.966500e-01 1.898390e+03 
2.978900e-01 1.889032e+03 
2.990400e-01 1.880438e+03 
3.002700e-01 1.871308e+03 
3.015100e-01 1.862184e+03 
3.026800e-01 1.853659e+03 
3.038500e-01 1.845214e+03 
3.050300e-01 1.836777e+03 
3.062600e-01 1.828041e+03 
3.075000e-01 1.819320e+03 
3.087000e-01 1.810962e+03 
3.099100e-01 1.802615e+03 
3.111200e-01 1.794333e+03 
3.123100e-01 1.786242e+03 
3.135300e-01 1.778024e+03 
3.147300e-01 1.770018e+03 
3.159900e-01 1.761691e+03 
3.171800e-01 1.753969e+03 
3.183700e-01 1.746361e+03 
3.196300e-01 1.738382e+03 
3.208400e-01 1.730792e+03 
3.220300e-01 1.723395e+03 
3.232000e-01 1.716110e+03 
3.244300e-01 1.708491e+03 
3.256700e-01 1.700880e+03 
3.269200e-01 1.693281e+03 
3.280800e-01 1.686291e+03 
3.292500e-01 1.679386e+03 
3.304800e-01 1.672217e+03 
3.317100e-01 1.665114e+03 
3.328900e-01 1.658360e+03 
3.340700e-01 1.651664e+03 
3.353600e-01 1.644431e+03 
3.365300e-01 1.637938e+03 
3.377100e-01 1.631444e+03 
3.389200e-01 1.624844e+03 
3.401600e-01 1.618139e+03 
3.413700e-01 1.611669e+03 
3.425300e-01 1.605527e+03 
3.437700e-01 1.599019e+03 
3.449800e-01 1.592723e+03 
3.461800e-01 1.586533e+03 
3.473600e-01 1.580487e+03 
3.485800e-01 1.574267e+03 
3.498100e-01 1.568049e+03 
3.510200e-01 1.561984e+03 
3.522000e-01 1.556120e+03 
3.533900e-01 1.550254e+03 
3.546400e-01 1.544225e+03 
3.558400e-01 1.538491e+03 
3.570600e-01 1.532710e+03 
3.582700e-01 1.527025e+03 
3.595000e-01 1.521293e+03 
3.607100e-01 1.515712e+03 
3.618900e-01 1.510321e+03 
3.631200e-01 1.504747e+03 
3.643200e-01 1.499354e+03 
3.655500e-01 1.493871e+03 
3.667300e-01 1.488654e+03 
3.679500e-01 1.483315e+03 
3.691900e-01 1.477933e+03 
3.703600e-01 1.472895e+03 
3.715700e-01 1.467727e+03 
3.727700e-01 1.462642e+03 
3.739900e-01 1.457522e+03 
3.752000e-01 1.452501e+03 
3.763900e-01 1.447602e+03 
3.775800e-01 1.442740e+03 
3.788200e-01 1.437715e+03 
3.800300e-01 1.432850e+03 
3.812100e-01 1.428120e+03 
3.824200e-01 1.423291e+03 
3.836100e-01 1.418579e+03 
3.848600e-01 1.413669e+03 
3.860400e-01 1.409069e+03 
3.872400e-01 1.404427e+03 
3.884600e-01 1.399755e+03 
3.896500e-01 1.395236e+03 
3.908700e-01 1.390639e+03 
3.920600e-01 1.386189e+03 
3.933100e-01 1.381550e+03 
3.945300e-01 1.377058e+03 
3.957200e-01 1.372719e+03 
3.969300e-01 1.368343e+03 
3.981700e-01 1.363892e+03 
3.993500e-01 1.359688e+03 
4.094840e-01 1.324629e+03 
4.272360e-01 1.267881e+03 
4.454600e-01 1.214441e+03 
4.630560e-01 1.167208e+03 
4.804610e-01 1.123938e+03 
4.980690e-01 1.083351e+03 
5.159230e-01 1.045170e+03 
5.317440e-01 1.013407e+03 
5.489640e-01 9.811485e+02 
5.671990e-01 9.491345e+02 
5.838690e-01 9.216846e+02 
6.018840e-01 8.938533e+02 
6.202330e-01 8.672673e+02 
6.379250e-01 8.431508e+02 
6.545410e-01 8.216393e+02 
6.714560e-01 8.008544e+02 
6.892080e-01 7.801189e+02 
7.066010e-01 7.608210e+02 
7.240540e-01 7.423829e+02 
7.420450e-01 7.241075e+02 
7.593780e-01 7.073947e+02 
7.764720e-01 6.915243e+02 
7.942840e-01 6.757175e+02 
8.116170e-01 6.608531e+02 
8.288310e-01 6.466526e+02 
8.462240e-01 6.327836e+02 
8.631980e-01 6.197849e+02 
8.810700e-01 6.065035e+02 
8.989410e-01 5.937087e+02 
9.166330e-01 5.814241e+02 
9.345640e-01 5.693639e+02 
9.515980e-01 5.582545e+02 
9.688720e-01 5.472910e+02 
9.865640e-01 5.363635e+02 
1.031870e+00 5.099494e+02 
1.063490e+00 4.925701e+02 
1.097920e+00 4.745613e+02 
1.134370e+00 4.564937e+02 
1.167730e+00 4.408399e+02 
1.203830e+00 4.247112e+02 
1.240470e+00 4.091955e+02 
1.275790e+00 3.949332e+02 
1.309140e+00 3.821249e+02 
1.342970e+00 3.697113e+02 
1.378420e+00 3.573111e+02 
1.413200e+00 3.456914e+02 
1.448110e+00 3.345381e+02 
1.484090e+00 3.235671e+02 
1.518820e+00 3.134337e+02 
1.552880e+00 3.039354e+02 
1.588630e+00 2.944077e+02 
1.623230e+00 2.855788e+02 
1.657720e+00 2.771656e+02 
1.692450e+00 2.690346e+02 
1.726400e+00 2.613950e+02 
1.762200e+00 2.536606e+02 
1.797880e+00 2.462719e+02 
1.833270e+00 2.392599e+02 
1.869070e+00 2.324247e+02 
1.903200e+00 2.261846e+02 
1.937740e+00 2.201002e+02 
1.973190e+00 2.140871e+02 
2.007440e+00 2.085028e+02 
2.042160e+00 2.030648e+02 
2.077900e+00 1.976405e+02 
2.112390e+00 1.926234e+02 
2.146220e+00 1.878699e+02 
2.181600e+00 1.830654e+02 
2.216930e+00 1.784590e+02 
2.250760e+00 1.741900e+02 
2.286500e+00 1.698278e+02 
2.321770e+00 1.656850e+02 
2.355950e+00 1.618018e+02 
2.391280e+00 1.579388e+02 
2.426240e+00 1.542250e+02 
2.460670e+00 1.506859e+02 
2.495640e+00 1.472204e+02 
2.531080e+00 1.438126e+02 
2.566220e+00 1.405399e+02 
2.600830e+00 1.374260e+02 
2.635080e+00 1.344508e+02 
2.670340e+00 1.314719e+02 
2.705970e+00 1.285550e+02 
2.740040e+00 1.258499e+02 
2.774520e+00 1.231877e+02 
2.809730e+00 1.205605e+02 
2.844390e+00 1.180549e+02 
2.879960e+00 1.155548e+02 
2.914860e+00 1.131706e+02 
2.949410e+00 1.108802e+02 
2.984440e+00 1.086310e+02 
3.019760e+00 1.064261e+02 
3.054730e+00 1.043048e+02 
3.089030e+00 1.022765e+02 
3.124060e+00 1.002621e+02 
3.159560e+00 9.827594e+01 
3.194710e+00 9.636889e+01 
3.229010e+00 9.456053e+01 
3.263320e+00 9.279459e+01 
3.297930e+00 9.106353e+01 
3.332830e+00 8.936890e+01 
3.368040e+00 8.770218e+01 
3.403300e+00 8.607577e+01 
3.438450e+00 8.449382e+01 
3.473060e+00 8.297633e+01 
3.508440e+00 8.146952e+01 
3.543110e+00 8.003069e+01 
3.577470e+00 7.863693e+01 
3.613040e+00 7.723194e+01 
3.648120e+00 7.588464e+01 
3.682910e+00 7.458042e+01 
3.718050e+00 7.329294e+01 
3.753320e+00 7.203433e+01 
3.787980e+00 7.082999e+01 
3.822290e+00 6.966485e+01 
3.857020e+00 6.851126e+01 
3.891920e+00 6.737839e+01 
3.926650e+00 6.627553e+01 
3.961970e+00 6.518124e+01 
3.997360e+00 6.411289e+01 
4.031670e+00 6.310163e+01 
4.066330e+00 6.210605e+01 
4.101420e+00 6.112082e+01 
4.136200e+00 6.016379e+01 
4.170810e+00 5.923255e+01 
4.206250e+00 5.830266e+01 
4.241580e+00 5.739674e+01 
4.276300e+00 5.652421e+01 
4.310970e+00 5.567072e+01 
4.346120e+00 5.482519e+01 
4.380600e+00 5.401537e+01 
4.414730e+00 5.323037e+01 
4.450350e+00 5.242661e+01 
4.485320e+00 5.165415e+01 
4.519810e+00 5.090972e+01 
4.555430e+00 5.015754e+01 
4.590870e+00 4.942413e+01 
4.625480e+00 4.872133e+01 
4.659910e+00 4.803610e+01 
4.695230e+00 4.734969e+01 
4.729960e+00 4.668854e+01 
4.764450e+00 4.604556e+01 
4.799530e+00 4.540563e+01 
4.834910e+00 4.477286e+01 
4.869700e+00 4.416469e+01 
4.904370e+00 4.357049e+01 
4.939450e+00 4.298029e+01 
4.973940e+00 4.240990e+01 
5.008430e+00 4.185011e+01 
5.043810e+00 4.128597e+01 
5.078840e+00 4.073750e+01 
5.113500e+00 4.020482e+01 
5.148890e+00 3.967588e+01 
5.184210e+00 3.915791e+01 
5.219060e+00 3.865580e+01 
5.253660e+00 3.816535e+01 
5.288570e+00 3.767929e+01 
5.323420e+00 3.720229e+01 
5.358440e+00 3.673100e+01 
5.393590e+00 3.626630e+01 
5.428310e+00 3.581822e+01 
5.462800e+00 3.538228e+01 
5.497640e+00 3.494942e+01 
5.532670e+00 3.452084e+01 
5.567280e+00 3.410432e+01 
5.602000e+00 3.369349e+01 
5.637270e+00 3.328266e+01 
5.672410e+00 3.288013e+01 
5.707020e+00 3.249026e+01 
5.742040e+00 3.210367e+01 
5.777430e+00 3.171975e+01 
5.812210e+00 3.134865e+01 
5.846820e+00 3.098629e+01 
5.881610e+00 3.062815e+01 
5.916510e+00 3.027462e+01 
5.951600e+00 2.992440e+01 
5.986560e+00 2.958083e+01 
6.021830e+00 2.923972e+01 
6.056490e+00 2.891154e+01 
6.091160e+00 2.858981e+01 
6.125830e+00 2.827304e+01 
6.161090e+00 2.795513e+01 
6.195760e+00 2.764580e+01 
6.230420e+00 2.734127e+01 
6.265690e+00 2.703615e+01 
6.300950e+00 2.673697e+01 
6.335620e+00 2.644723e+01 
6.370880e+00 2.615698e+01 
6.405550e+00 2.587664e+01 
6.440220e+00 2.560074e+01 
6.475480e+00 2.532430e+01 
6.510150e+00 2.505634e+01 
6.544810e+00 2.479204e+01 
6.580080e+00 2.452700e+01 
6.614750e+00 2.427026e+01 
6.649410e+00 2.401819e+01 
6.684080e+00 2.376982e+01 
6.719340e+00 2.352083e+01 
6.754010e+00 2.327935e+01 
6.788680e+00 2.304092e+01 
6.823940e+00 2.280185e+01 
6.859800e+00 2.256219e+01 
6.894470e+00 2.233441e+01 
6.929140e+00 2.210999e+01 
6.963800e+00 2.188872e+01 
6.999070e+00 2.166664e+01 
7.033730e+00 2.145113e+01 
7.068400e+00 2.123848e+01 
7.103660e+00 2.102514e+01 
7.138330e+00 2.081849e+01 
7.173600e+00 2.061164e+01 
7.208260e+00 2.041110e+01 
7.243530e+00 2.020975e+01 
7.277600e+00 2.001770e+01 
7.312860e+00 1.982144e+01 
7.348120e+00 1.962780e+01 
7.382790e+00 1.943989e+01 
7.417460e+00 1.925488e+01 
7.452720e+00 1.906941e+01 
7.487390e+00 1.888941e+01 
7.522650e+00 1.870871e+01 
7.557320e+00 1.853312e+01 
7.591990e+00 1.835970e+01 
7.627250e+00 1.818557e+01 
7.662510e+00 1.801367e+01 
7.697180e+00 1.784661e+01 
7.731850e+00 1.768157e+01 
7.766510e+00 1.751862e+01 
7.801180e+00 1.735766e+01 
7.836440e+00 1.719645e+01 
7.871110e+00 1.704020e+01 
7.906380e+00 1.688320e+01 
7.941040e+00 1.673081e+01 
7.976310e+00 1.657712e+01 
8.011570e+00 1.642475e+01 
8.046240e+00 1.627675e+01 
8.080900e+00 1.613057e+01 
8.115570e+00 1.598641e+01 
8.150830e+00 1.584273e+01 
8.185500e+00 1.570313e+01 
8.220770e+00 1.556281e+01 
8.255430e+00 1.542656e+01 
8.290100e+00 1.529115e+01 
8.324770e+00 1.515723e+01 
8.359430e+00 1.502492e+01 
8.394700e+00 1.489186e+01 
8.429960e+00 1.476065e+01 
8.464630e+00 1.463337e+01 
8.499890e+00 1.450543e+01 
8.534560e+00 1.438108e+01 
8.569200e+00 1.425826e+01 
