# Parameters:
# omega_b = 0.022004, omega_m = 0.135157, n_s = 0.980709, h = 84.763780, w = -1.000000, sigma_8 = 0.840157
# z = 0.100000
#
# k[1/Mpc] # P(k):
8.694000e-04 1.203364e+04 
2.077466e-03 2.585919e+04 
3.285532e-03 3.670732e+04 
4.493598e-03 4.501500e+04 
5.701664e-03 5.114322e+04 
6.909730e-03 5.544762e+04 
8.117797e-03 5.832844e+04 
9.325863e-03 5.999411e+04 
1.053393e-02 6.064904e+04 
1.174199e-02 6.048291e+04 
1.295006e-02 5.962015e+04 
1.415813e-02 5.822843e+04 
1.536619e-02 5.645091e+04 
1.657426e-02 5.447471e+04 
1.778233e-02 5.266794e+04 
1.899039e-02 5.093072e+04 
2.019846e-02 4.873757e+04 
2.140652e-02 4.622418e+04 
2.261459e-02 4.371816e+04 
2.382266e-02 4.136169e+04 
2.503072e-02 3.919296e+04 
2.623879e-02 3.721938e+04 
2.744685e-02 3.544579e+04 
2.865492e-02 3.386535e+04 
2.986299e-02 3.246679e+04 
3.100100e-02 3.131041e+04 
3.220400e-02 3.024104e+04 
3.288100e-02 2.970588e+04 
3.424300e-02 2.875204e+04 
3.555100e-02 2.796506e+04 
3.686000e-02 2.728303e+04 
3.795000e-02 2.678123e+04 
3.929100e-02 2.622214e+04 
4.039800e-02 2.578811e+04 
4.164000e-02 2.532492e+04 
4.294400e-02 2.482757e+04 
4.415000e-02 2.436511e+04 
4.542900e-02 2.383660e+04 
4.660900e-02 2.333044e+04 
4.782300e-02 2.275016e+04 
4.892900e-02 2.220215e+04 
5.031200e-02 2.147241e+04 
5.155900e-02 2.077475e+04 
5.238100e-02 2.030198e+04 
5.378200e-02 1.948325e+04 
5.513400e-02 1.868325e+04 
5.627600e-02 1.800929e+04 
5.735300e-02 1.738655e+04 
5.870100e-02 1.663374e+04 
5.988700e-02 1.600392e+04 
6.113500e-02 1.537663e+04 
6.225900e-02 1.485040e+04 
6.340100e-02 1.435422e+04 
6.480200e-02 1.379571e+04 
6.601100e-02 1.336695e+04 
6.725500e-02 1.297174e+04 
6.829100e-02 1.268155e+04 
6.958600e-02 1.235299e+04 
7.071100e-02 1.210463e+04 
7.192300e-02 1.186796e+04 
7.307400e-02 1.166768e+04 
7.412300e-02 1.150348e+04 
7.550400e-02 1.131318e+04 
7.663100e-02 1.117136e+04 
7.791200e-02 1.102180e+04 
7.912700e-02 1.088689e+04 
8.027600e-02 1.076162e+04 
8.138400e-02 1.064092e+04 
8.272200e-02 1.049176e+04 
8.406100e-02 1.033509e+04 
8.534100e-02 1.017536e+04 
8.653800e-02 1.001566e+04 
8.759800e-02 9.869364e+03 
8.900300e-02 9.666799e+03 
9.009000e-02 9.500815e+03 
9.113300e-02 9.336387e+03 
9.239600e-02 9.134771e+03 
9.358000e-02 8.941167e+03 
9.496100e-02 8.711590e+03 
9.608400e-02 8.526034e+03 
9.727500e-02 8.331625e+03 
9.852600e-02 8.128957e+03 
9.973800e-02 7.939911e+03 
1.009000e-01 7.765151e+03 
1.020900e-01 7.594261e+03 
1.034000e-01 7.415247e+03 
1.046000e-01 7.259877e+03 
1.057200e-01 7.126805e+03 
1.069100e-01 6.992441e+03 
1.082500e-01 6.854998e+03 
1.093900e-01 6.747578e+03 
1.105400e-01 6.645589e+03 
1.116900e-01 6.555069e+03 
1.129600e-01 6.460651e+03 
1.142000e-01 6.378117e+03 
1.153300e-01 6.306676e+03 
1.166400e-01 6.228891e+03 
1.177800e-01 6.165104e+03 
1.190000e-01 6.099531e+03 
1.201200e-01 6.039481e+03 
1.213400e-01 5.975394e+03 
1.227100e-01 5.901735e+03 
1.238900e-01 5.838669e+03 
1.250700e-01 5.772880e+03 
1.263200e-01 5.703133e+03 
1.275500e-01 5.632360e+03 
1.287500e-01 5.562373e+03 
1.299900e-01 5.487705e+03 
1.311300e-01 5.419032e+03 
1.323500e-01 5.344809e+03 
1.335900e-01 5.269679e+03 
1.347100e-01 5.201432e+03 
1.359800e-01 5.125236e+03 
1.372100e-01 5.052095e+03 
1.384300e-01 4.980926e+03 
1.395700e-01 4.915260e+03 
1.407700e-01 4.847684e+03 
1.420300e-01 4.779192e+03 
1.432800e-01 4.712748e+03 
1.444500e-01 4.652987e+03 
1.456300e-01 4.593940e+03 
1.468900e-01 4.533940e+03 
1.480500e-01 4.480346e+03 
1.491700e-01 4.430260e+03 
1.503800e-01 4.378053e+03 
1.516400e-01 4.325243e+03 
1.528200e-01 4.278761e+03 
1.540200e-01 4.232392e+03 
1.551900e-01 4.189412e+03 
1.564300e-01 4.145058e+03 
1.576600e-01 4.102376e+03 
1.588700e-01 4.061744e+03 
1.600900e-01 4.021565e+03 
1.612700e-01 3.983925e+03 
1.625400e-01 3.944162e+03 
1.637600e-01 3.906854e+03 
1.649500e-01 3.871218e+03 
1.662200e-01 3.833781e+03 
1.674000e-01 3.799094e+03 
1.685000e-01 3.767295e+03 
1.697500e-01 3.731421e+03 
1.710300e-01 3.695002e+03 
1.722200e-01 3.661739e+03 
1.734400e-01 3.627071e+03 
1.746400e-01 3.593505e+03 
1.758700e-01 3.559413e+03 
1.770900e-01 3.525625e+03 
1.782700e-01 3.493486e+03 
1.794600e-01 3.461190e+03 
1.807000e-01 3.427817e+03 
1.819100e-01 3.395793e+03 
1.830100e-01 3.366885e+03 
1.842200e-01 3.335536e+03 
1.855000e-01 3.302934e+03 
1.867000e-01 3.273100e+03 
1.879200e-01 3.243252e+03 
1.890900e-01 3.215072e+03 
1.902800e-01 3.186844e+03 
1.915200e-01 3.157890e+03 
1.926900e-01 3.131157e+03 
1.939000e-01 3.104463e+03 
1.951700e-01 3.076884e+03 
1.963100e-01 3.052566e+03 
1.975100e-01 3.027511e+03 
1.987800e-01 3.001401e+03 
2.000100e-01 2.976562e+03 
2.012500e-01 2.952040e+03 
2.023400e-01 2.930790e+03 
2.036100e-01 2.906464e+03 
2.048900e-01 2.882635e+03 
2.060400e-01 2.861536e+03 
2.072200e-01 2.840198e+03 
2.084200e-01 2.818957e+03 
2.096900e-01 2.796802e+03 
2.109200e-01 2.775656e+03 
2.121100e-01 2.755455e+03 
2.132700e-01 2.736029e+03 
2.145200e-01 2.715383e+03 
2.157200e-01 2.695843e+03 
2.168800e-01 2.677208e+03 
2.180700e-01 2.658343e+03 
2.193400e-01 2.638488e+03 
2.206000e-01 2.619067e+03 
2.217500e-01 2.601577e+03 
2.229500e-01 2.583563e+03 
2.241400e-01 2.565982e+03 
2.253500e-01 2.548341e+03 
2.264900e-01 2.531931e+03 
2.277100e-01 2.514691e+03 
2.289900e-01 2.496954e+03 
2.301500e-01 2.481088e+03 
2.313600e-01 2.464746e+03 
2.325600e-01 2.448765e+03 
2.337700e-01 2.432853e+03 
2.350000e-01 2.416884e+03 
2.362000e-01 2.401631e+03 
2.374100e-01 2.386596e+03 
2.386500e-01 2.371382e+03 
2.399100e-01 2.356120e+03 
2.410400e-01 2.342647e+03 
2.422500e-01 2.328397e+03 
2.435000e-01 2.313858e+03 
2.447300e-01 2.299741e+03 
2.458700e-01 2.286863e+03 
2.470600e-01 2.273574e+03 
2.483300e-01 2.259565e+03 
2.495600e-01 2.246165e+03 
2.507600e-01 2.233251e+03 
2.519600e-01 2.220487e+03 
2.532200e-01 2.207244e+03 
2.543700e-01 2.195304e+03 
2.555500e-01 2.183194e+03 
2.568000e-01 2.170515e+03 
2.580100e-01 2.158384e+03 
2.592400e-01 2.146133e+03 
2.604100e-01 2.134584e+03 
2.616100e-01 2.122870e+03 
2.628400e-01 2.110999e+03 
2.640600e-01 2.099458e+03 
2.652200e-01 2.088644e+03 
2.664300e-01 2.077487e+03 
2.676500e-01 2.066363e+03 
2.688400e-01 2.055530e+03 
2.700700e-01 2.044393e+03 
2.712400e-01 2.033914e+03 
2.724800e-01 2.022928e+03 
2.736700e-01 2.012484e+03 
2.748800e-01 2.001961e+03 
2.761000e-01 1.991466e+03 
2.773200e-01 1.981084e+03 
2.785400e-01 1.970830e+03 
2.797000e-01 1.961217e+03 
2.808900e-01 1.951456e+03 
2.821400e-01 1.941312e+03 
2.833900e-01 1.931273e+03 
2.845500e-01 1.921959e+03 
2.857800e-01 1.912184e+03 
2.870300e-01 1.902355e+03 
2.882100e-01 1.893173e+03 
2.893900e-01 1.884066e+03 
2.906300e-01 1.874584e+03 
2.918900e-01 1.865051e+03 
2.930500e-01 1.856363e+03 
2.942500e-01 1.847460e+03 
2.954200e-01 1.838856e+03 
2.966500e-01 1.829899e+03 
2.978900e-01 1.820962e+03 
2.990400e-01 1.812754e+03 
3.002700e-01 1.804044e+03 
3.015100e-01 1.795344e+03 
3.026800e-01 1.787214e+03 
3.038500e-01 1.779162e+03 
3.050300e-01 1.771117e+03 
3.062600e-01 1.762791e+03 
3.075000e-01 1.754480e+03 
3.087000e-01 1.746516e+03 
3.099100e-01 1.738561e+03 
3.111200e-01 1.730671e+03 
3.123100e-01 1.722965e+03 
3.135300e-01 1.715139e+03 
3.147300e-01 1.707514e+03 
3.159900e-01 1.699584e+03 
3.171800e-01 1.692233e+03 
3.183700e-01 1.684995e+03 
3.196300e-01 1.677403e+03 
3.208400e-01 1.670181e+03 
3.220300e-01 1.663143e+03 
3.232000e-01 1.656205e+03 
3.244300e-01 1.648946e+03 
3.256700e-01 1.641695e+03 
3.269200e-01 1.634455e+03 
3.280800e-01 1.627796e+03 
3.292500e-01 1.621217e+03 
3.304800e-01 1.614387e+03 
3.317100e-01 1.607619e+03 
3.328900e-01 1.601184e+03 
3.340700e-01 1.594804e+03 
3.353600e-01 1.587908e+03 
3.365300e-01 1.581714e+03 
3.377100e-01 1.575521e+03 
3.389200e-01 1.569225e+03 
3.401600e-01 1.562831e+03 
3.413700e-01 1.556653e+03 
3.425300e-01 1.550785e+03 
3.437700e-01 1.544566e+03 
3.449800e-01 1.538551e+03 
3.461800e-01 1.532636e+03 
3.473600e-01 1.526858e+03 
3.485800e-01 1.520907e+03 
3.498100e-01 1.514958e+03 
3.510200e-01 1.509157e+03 
3.522000e-01 1.503546e+03 
3.533900e-01 1.497935e+03 
3.546400e-01 1.492157e+03 
3.558400e-01 1.486660e+03 
3.570600e-01 1.481118e+03 
3.582700e-01 1.475668e+03 
3.595000e-01 1.470174e+03 
3.607100e-01 1.464819e+03 
3.618900e-01 1.459643e+03 
3.631200e-01 1.454292e+03 
3.643200e-01 1.449115e+03 
3.655500e-01 1.443852e+03 
3.667300e-01 1.438843e+03 
3.679500e-01 1.433707e+03 
3.691900e-01 1.428529e+03 
3.703600e-01 1.423682e+03 
3.715700e-01 1.418710e+03 
3.727700e-01 1.413818e+03 
3.739900e-01 1.408891e+03 
3.752000e-01 1.404056e+03 
3.763900e-01 1.399339e+03 
3.775800e-01 1.394658e+03 
3.788200e-01 1.389820e+03 
3.800300e-01 1.385136e+03 
3.812100e-01 1.380577e+03 
3.824200e-01 1.375921e+03 
3.836100e-01 1.371377e+03 
3.848600e-01 1.366642e+03 
3.860400e-01 1.362206e+03 
3.872400e-01 1.357730e+03 
3.884600e-01 1.353219e+03 
3.896500e-01 1.348856e+03 
3.908700e-01 1.344416e+03 
3.920600e-01 1.340119e+03 
3.933100e-01 1.335640e+03 
3.945300e-01 1.331302e+03 
3.957200e-01 1.327110e+03 
3.969300e-01 1.322882e+03 
3.981700e-01 1.318582e+03 
3.993500e-01 1.314521e+03 
4.094840e-01 1.280639e+03 
4.272360e-01 1.225796e+03 
4.454600e-01 1.174198e+03 
4.630560e-01 1.128673e+03 
4.804610e-01 1.087039e+03 
4.980690e-01 1.048065e+03 
5.159230e-01 1.011458e+03 
5.317440e-01 9.810404e+02 
5.489640e-01 9.501859e+02 
5.671990e-01 9.195888e+02 
5.838690e-01 8.933619e+02 
6.018840e-01 8.667961e+02 
6.202330e-01 8.414260e+02 
6.379250e-01 8.184292e+02 
6.545410e-01 7.979238e+02 
6.714560e-01 7.781186e+02 
6.892080e-01 7.583731e+02 
7.066010e-01 7.400110e+02 
7.240540e-01 7.224749e+02 
7.420450e-01 7.051048e+02 
7.593780e-01 6.892334e+02 
7.764720e-01 6.741705e+02 
7.942840e-01 6.591743e+02 
8.116170e-01 6.450894e+02 
8.288310e-01 6.316355e+02 
8.462240e-01 6.185052e+02 
8.631980e-01 6.062040e+02 
8.810700e-01 5.936383e+02 
8.989410e-01 5.815426e+02 
9.166330e-01 5.699294e+02 
9.345640e-01 5.585274e+02 
9.515980e-01 5.480283e+02 
9.688720e-01 5.376683e+02 
9.865640e-01 5.273423e+02 
1.031870e+00 5.023759e+02 
1.063490e+00 4.859400e+02 
1.097920e+00 4.688977e+02 
1.134370e+00 4.517828e+02 
1.167730e+00 4.369419e+02 
1.203830e+00 4.216328e+02 
1.240470e+00 4.068851e+02 
1.275790e+00 3.933079e+02 
1.309140e+00 3.810988e+02 
1.342970e+00 3.692480e+02 
1.378420e+00 3.573938e+02 
1.413200e+00 3.462680e+02 
1.448110e+00 3.355686e+02 
1.484090e+00 3.250307e+02 
1.518820e+00 3.152777e+02 
1.552880e+00 3.061240e+02 
1.588630e+00 2.969267e+02 
1.623230e+00 2.883906e+02 
1.657720e+00 2.802457e+02 
1.692450e+00 2.723606e+02 
1.726400e+00 2.649403e+02 
1.762200e+00 2.574156e+02 
1.797880e+00 2.502171e+02 
1.833270e+00 2.433762e+02 
1.869070e+00 2.366968e+02 
1.903200e+00 2.305909e+02 
1.937740e+00 2.246294e+02 
1.973190e+00 2.187289e+02 
2.007440e+00 2.132417e+02 
2.042160e+00 2.078919e+02 
2.077900e+00 2.025470e+02 
2.112390e+00 1.975983e+02 
2.146220e+00 1.929028e+02 
2.181600e+00 1.881509e+02 
2.216930e+00 1.835898e+02 
2.250760e+00 1.793574e+02 
2.286500e+00 1.750273e+02 
2.321770e+00 1.709105e+02 
2.355950e+00 1.670473e+02 
2.391280e+00 1.631998e+02 
2.426240e+00 1.594961e+02 
2.460670e+00 1.559631e+02 
2.495640e+00 1.525004e+02 
2.531080e+00 1.490909e+02 
2.566220e+00 1.458128e+02 
2.600830e+00 1.426911e+02 
2.635080e+00 1.397062e+02 
2.670340e+00 1.367135e+02 
2.705970e+00 1.337801e+02 
2.740040e+00 1.310574e+02 
2.774520e+00 1.283750e+02 
2.809730e+00 1.257256e+02 
2.844390e+00 1.231969e+02 
2.879960e+00 1.206712e+02 
2.914860e+00 1.182599e+02 
2.949410e+00 1.159419e+02 
2.984440e+00 1.136635e+02 
3.019760e+00 1.114281e+02 
3.054730e+00 1.092761e+02 
3.089030e+00 1.072158e+02 
3.124060e+00 1.051682e+02 
3.159560e+00 1.031477e+02 
3.194710e+00 1.012060e+02 
3.229010e+00 9.936392e+01 
3.263320e+00 9.756303e+01 
3.297930e+00 9.579680e+01 
3.332830e+00 9.406647e+01 
3.368040e+00 9.236327e+01 
3.403300e+00 9.070014e+01 
3.438450e+00 8.908097e+01 
3.473060e+00 8.752708e+01 
3.508440e+00 8.598268e+01 
3.543110e+00 8.450735e+01 
3.577470e+00 8.307681e+01 
3.613040e+00 8.163414e+01 
3.648120e+00 8.024972e+01 
3.682910e+00 7.890884e+01 
3.718050e+00 7.758409e+01 
3.753320e+00 7.628842e+01 
3.787980e+00 7.504787e+01 
3.822290e+00 7.384702e+01 
3.857020e+00 7.265716e+01 
3.891920e+00 7.148809e+01 
3.926650e+00 7.034915e+01 
3.961970e+00 6.921861e+01 
3.997360e+00 6.811413e+01 
4.031670e+00 6.706830e+01 
4.066330e+00 6.603796e+01 
4.101420e+00 6.501806e+01 
4.136200e+00 6.402647e+01 
4.170810e+00 6.306137e+01 
4.206250e+00 6.209697e+01 
4.241580e+00 6.115711e+01 
4.276300e+00 6.025129e+01 
4.310970e+00 5.936482e+01 
4.346120e+00 5.848625e+01 
4.380600e+00 5.764431e+01 
4.414730e+00 5.682800e+01 
4.450350e+00 5.599143e+01 
4.485320e+00 5.518726e+01 
4.519810e+00 5.441182e+01 
4.555430e+00 5.362801e+01 
4.590870e+00 5.286346e+01 
4.625480e+00 5.213035e+01 
4.659910e+00 5.141542e+01 
4.695230e+00 5.069879e+01 
4.729960e+00 5.000835e+01 
4.764450e+00 4.933662e+01 
4.799530e+00 4.866773e+01 
4.834910e+00 4.800620e+01 
4.869700e+00 4.737002e+01 
4.904370e+00 4.674828e+01 
4.939450e+00 4.613049e+01 
4.973940e+00 4.553305e+01 
5.008430e+00 4.494658e+01 
5.043810e+00 4.435524e+01 
5.078840e+00 4.378008e+01 
5.113500e+00 4.322138e+01 
5.148890e+00 4.266631e+01 
5.184210e+00 4.212264e+01 
5.219060e+00 4.159544e+01 
5.253660e+00 4.108016e+01 
5.288570e+00 4.056941e+01 
5.323420e+00 4.006794e+01 
5.358440e+00 3.957221e+01 
5.393590e+00 3.908334e+01 
5.428310e+00 3.861176e+01 
5.462800e+00 3.815283e+01 
5.497640e+00 3.769706e+01 
5.532670e+00 3.724552e+01 
5.567280e+00 3.680653e+01 
5.602000e+00 3.637347e+01 
5.637270e+00 3.594014e+01 
5.672410e+00 3.551544e+01 
5.707020e+00 3.510402e+01 
5.742040e+00 3.469584e+01 
5.777430e+00 3.429037e+01 
5.812210e+00 3.389837e+01 
5.846820e+00 3.351541e+01 
5.881610e+00 3.313679e+01 
5.916510e+00 3.276301e+01 
5.951600e+00 3.239248e+01 
5.986560e+00 3.202887e+01 
6.021830e+00 3.166781e+01 
6.056490e+00 3.132030e+01 
6.091160e+00 3.097951e+01 
6.125830e+00 3.064393e+01 
6.161090e+00 3.030701e+01 
6.195760e+00 2.997897e+01 
6.230420e+00 2.965596e+01 
6.265690e+00 2.933228e+01 
6.300950e+00 2.901467e+01 
6.335620e+00 2.870704e+01 
6.370880e+00 2.839883e+01 
6.405550e+00 2.810097e+01 
6.440220e+00 2.780776e+01 
6.475480e+00 2.751392e+01 
6.510150e+00 2.722900e+01 
6.544810e+00 2.694780e+01 
6.580080e+00 2.666578e+01 
6.614750e+00 2.639254e+01 
6.649410e+00 2.612411e+01 
6.684080e+00 2.585955e+01 
6.719340e+00 2.559429e+01 
6.754010e+00 2.533695e+01 
6.788680e+00 2.508270e+01 
6.823940e+00 2.482774e+01 
6.859800e+00 2.457211e+01 
6.894470e+00 2.432900e+01 
6.929140e+00 2.408942e+01 
6.963800e+00 2.385317e+01 
6.999070e+00 2.361601e+01 
7.033730e+00 2.338567e+01 
7.068400e+00 2.315835e+01 
7.103660e+00 2.293028e+01 
7.138330e+00 2.270928e+01 
7.173600e+00 2.248795e+01 
7.208260e+00 2.227334e+01 
7.243530e+00 2.205783e+01 
7.277600e+00 2.185217e+01 
7.312860e+00 2.164190e+01 
7.348120e+00 2.143441e+01 
7.382790e+00 2.123304e+01 
7.417460e+00 2.103466e+01 
7.452720e+00 2.083571e+01 
7.487390e+00 2.064261e+01 
7.522650e+00 2.044873e+01 
7.557320e+00 2.026021e+01 
7.591990e+00 2.007394e+01 
7.627250e+00 1.988690e+01 
7.662510e+00 1.970224e+01 
7.697180e+00 1.952264e+01 
7.731850e+00 1.934515e+01 
7.766510e+00 1.916991e+01 
7.801180e+00 1.899677e+01 
7.836440e+00 1.882327e+01 
7.871110e+00 1.865504e+01 
7.906380e+00 1.848599e+01 
7.941040e+00 1.832189e+01 
7.976310e+00 1.815629e+01 
8.011570e+00 1.799200e+01 
8.046240e+00 1.783242e+01 
8.080900e+00 1.767479e+01 
8.115570e+00 1.751930e+01 
8.150830e+00 1.736421e+01 
8.185500e+00 1.721353e+01 
8.220770e+00 1.706205e+01 
8.255430e+00 1.691495e+01 
8.290100e+00 1.676861e+01 
8.324770e+00 1.662387e+01 
8.359430e+00 1.648084e+01 
8.394700e+00 1.633700e+01 
8.429960e+00 1.619507e+01 
8.464630e+00 1.605734e+01 
8.499890e+00 1.591887e+01 
8.534560e+00 1.578428e+01 
8.569200e+00 1.565133e+01 
