# Parameters:
# omega_b = 0.021799, omega_m = 0.154449, n_s = 0.912992, h = 63.976378, w = -1.000000, sigma_8 = 0.775591
# z = 0.100000
#
# k[1/Mpc] # P(k):
8.694000e-04 1.347540e+04 
2.077466e-03 2.776323e+04 
3.285532e-03 3.873779e+04 
4.493598e-03 4.715307e+04 
5.701664e-03 5.345261e+04 
6.909730e-03 5.798794e+04 
8.117797e-03 6.113884e+04 
9.325863e-03 6.310579e+04 
1.053393e-02 6.408795e+04 
1.174199e-02 6.427157e+04 
1.295006e-02 6.377088e+04 
1.415813e-02 6.273799e+04 
1.536619e-02 6.130418e+04 
1.657426e-02 5.957014e+04 
1.778233e-02 5.767078e+04 
1.899039e-02 5.569606e+04 
2.019846e-02 5.358566e+04 
2.140652e-02 5.139316e+04 
2.261459e-02 4.920249e+04 
2.382266e-02 4.707587e+04 
2.503072e-02 4.504934e+04 
2.623879e-02 4.313695e+04 
2.744685e-02 4.134308e+04 
2.865492e-02 3.967974e+04 
2.986299e-02 3.814694e+04 
3.100100e-02 3.681978e+04 
3.220400e-02 3.553660e+04 
3.288100e-02 3.486661e+04 
3.424300e-02 3.362642e+04 
3.555100e-02 3.255561e+04 
3.686000e-02 3.158887e+04 
3.795000e-02 3.085763e+04 
3.929100e-02 3.003135e+04 
4.039800e-02 2.939649e+04 
4.164000e-02 2.873333e+04 
4.294400e-02 2.806522e+04 
4.415000e-02 2.747582e+04 
4.542900e-02 2.685599e+04 
4.660900e-02 2.629496e+04 
4.782300e-02 2.569824e+04 
4.892900e-02 2.515741e+04 
5.031200e-02 2.446522e+04 
5.155900e-02 2.382245e+04 
5.238100e-02 2.339228e+04 
5.378200e-02 2.265206e+04 
5.513400e-02 2.192664e+04 
5.627600e-02 2.130825e+04 
5.735300e-02 2.072770e+04 
5.870100e-02 2.001006e+04 
5.988700e-02 1.939316e+04 
6.113500e-02 1.875947e+04 
6.225900e-02 1.820886e+04 
6.340100e-02 1.767019e+04 
6.480200e-02 1.704115e+04 
6.601100e-02 1.653311e+04 
6.725500e-02 1.604310e+04 
6.829100e-02 1.566405e+04 
6.958600e-02 1.521840e+04 
7.071100e-02 1.486406e+04 
7.192300e-02 1.451196e+04 
7.307400e-02 1.420263e+04 
7.412300e-02 1.394132e+04 
7.550400e-02 1.362909e+04 
7.663100e-02 1.339365e+04 
7.791200e-02 1.314716e+04 
7.912700e-02 1.293179e+04 
8.027600e-02 1.274017e+04 
8.138400e-02 1.256418e+04 
8.272200e-02 1.236023e+04 
8.406100e-02 1.216093e+04 
8.534100e-02 1.197357e+04 
8.653800e-02 1.179742e+04 
8.759800e-02 1.164185e+04 
8.900300e-02 1.143415e+04 
9.009000e-02 1.126851e+04 
9.113300e-02 1.110741e+04 
9.239600e-02 1.091144e+04 
9.358000e-02 1.072393e+04 
9.496100e-02 1.050091e+04 
9.608400e-02 1.031929e+04 
9.727500e-02 1.012766e+04 
9.852600e-02 9.923438e+03 
9.973800e-02 9.730326e+03 
1.009000e-01 9.549593e+03 
1.020900e-01 9.366250e+03 
1.034000e-01 9.170565e+03 
1.046000e-01 8.996911e+03 
1.057200e-01 8.841486e+03 
1.069100e-01 8.681888e+03 
1.082500e-01 8.510852e+03 
1.093900e-01 8.372373e+03 
1.105400e-01 8.237974e+03 
1.116900e-01 8.112174e+03 
1.129600e-01 7.978825e+03 
1.142000e-01 7.857221e+03 
1.153300e-01 7.750897e+03 
1.166400e-01 7.633414e+03 
1.177800e-01 7.537139e+03 
1.190000e-01 7.438178e+03 
1.201200e-01 7.351126e+03 
1.213400e-01 7.258829e+03 
1.227100e-01 7.160114e+03 
1.238900e-01 7.077296e+03 
1.250700e-01 6.996428e+03 
1.263200e-01 6.912741e+03 
1.275500e-01 6.832270e+03 
1.287500e-01 6.754544e+03 
1.299900e-01 6.674437e+03 
1.311300e-01 6.601821e+03 
1.323500e-01 6.524894e+03 
1.335900e-01 6.447245e+03 
1.347100e-01 6.376998e+03 
1.359800e-01 6.298198e+03 
1.372100e-01 6.221857e+03 
1.384300e-01 6.146905e+03 
1.395700e-01 6.076223e+03 
1.407700e-01 6.003195e+03 
1.420300e-01 5.926577e+03 
1.432800e-01 5.852217e+03 
1.444500e-01 5.782513e+03 
1.456300e-01 5.713625e+03 
1.468900e-01 5.641700e+03 
1.480500e-01 5.576864e+03 
1.491700e-01 5.515457e+03 
1.503800e-01 5.450398e+03 
1.516400e-01 5.384351e+03 
1.528200e-01 5.325165e+03 
1.540200e-01 5.266125e+03 
1.551900e-01 5.210924e+03 
1.564300e-01 5.153840e+03 
1.576600e-01 5.098926e+03 
1.588700e-01 5.046667e+03 
1.600900e-01 4.995018e+03 
1.612700e-01 4.947072e+03 
1.625400e-01 4.896423e+03 
1.637600e-01 4.849381e+03 
1.649500e-01 4.804730e+03 
1.662200e-01 4.757957e+03 
1.674000e-01 4.715371e+03 
1.685000e-01 4.676330e+03 
1.697500e-01 4.632707e+03 
1.710300e-01 4.588837e+03 
1.722200e-01 4.548768e+03 
1.734400e-01 4.507673e+03 
1.746400e-01 4.467907e+03 
1.758700e-01 4.427655e+03 
1.770900e-01 4.388032e+03 
1.782700e-01 4.350341e+03 
1.794600e-01 4.312565e+03 
1.807000e-01 4.273594e+03 
1.819100e-01 4.236193e+03 
1.830100e-01 4.202391e+03 
1.842200e-01 4.165725e+03 
1.855000e-01 4.127581e+03 
1.867000e-01 4.092514e+03 
1.879200e-01 4.057427e+03 
1.890900e-01 4.024253e+03 
1.902800e-01 3.990784e+03 
1.915200e-01 3.956452e+03 
1.926900e-01 3.924686e+03 
1.939000e-01 3.892755e+03 
1.951700e-01 3.859762e+03 
1.963100e-01 3.830600e+03 
1.975100e-01 3.800370e+03 
1.987800e-01 3.768865e+03 
2.000100e-01 3.738842e+03 
2.012500e-01 3.709086e+03 
2.023400e-01 3.683299e+03 
2.036100e-01 3.653759e+03 
2.048900e-01 3.624750e+03 
2.060400e-01 3.599064e+03 
2.072200e-01 3.573083e+03 
2.084200e-01 3.547200e+03 
2.096900e-01 3.520202e+03 
2.109200e-01 3.494433e+03 
2.121100e-01 3.469810e+03 
2.132700e-01 3.446128e+03 
2.145200e-01 3.420960e+03 
2.157200e-01 3.397133e+03 
2.168800e-01 3.374406e+03 
2.180700e-01 3.351399e+03 
2.193400e-01 3.327166e+03 
2.206000e-01 3.303433e+03 
2.217500e-01 3.282060e+03 
2.229500e-01 3.260045e+03 
2.241400e-01 3.238456e+03 
2.253500e-01 3.216789e+03 
2.264900e-01 3.196635e+03 
2.277100e-01 3.175402e+03 
2.289900e-01 3.153493e+03 
2.301500e-01 3.133895e+03 
2.313600e-01 3.113708e+03 
2.325600e-01 3.093833e+03 
2.337700e-01 3.074045e+03 
2.350000e-01 3.054186e+03 
2.362000e-01 3.035170e+03 
2.374100e-01 3.016371e+03 
2.386500e-01 2.997347e+03 
2.399100e-01 2.978263e+03 
2.410400e-01 2.961384e+03 
2.422500e-01 2.943527e+03 
2.435000e-01 2.925308e+03 
2.447300e-01 2.907624e+03 
2.458700e-01 2.891512e+03 
2.470600e-01 2.874888e+03 
2.483300e-01 2.857362e+03 
2.495600e-01 2.840627e+03 
2.507600e-01 2.824537e+03 
2.519600e-01 2.808635e+03 
2.532200e-01 2.792136e+03 
2.543700e-01 2.777307e+03 
2.555500e-01 2.762299e+03 
2.568000e-01 2.746585e+03 
2.580100e-01 2.731551e+03 
2.592400e-01 2.716428e+03 
2.604100e-01 2.702197e+03 
2.616100e-01 2.687764e+03 
2.628400e-01 2.673137e+03 
2.640600e-01 2.658962e+03 
2.652200e-01 2.645700e+03 
2.664300e-01 2.632018e+03 
2.676500e-01 2.618376e+03 
2.688400e-01 2.605098e+03 
2.700700e-01 2.591452e+03 
2.712400e-01 2.578612e+03 
2.724800e-01 2.565151e+03 
2.736700e-01 2.552352e+03 
2.748800e-01 2.539454e+03 
2.761000e-01 2.526591e+03 
2.773200e-01 2.513866e+03 
2.785400e-01 2.501291e+03 
2.797000e-01 2.489487e+03 
2.808900e-01 2.477502e+03 
2.821400e-01 2.465047e+03 
2.833900e-01 2.452718e+03 
2.845500e-01 2.441226e+03 
2.857800e-01 2.429165e+03 
2.870300e-01 2.417038e+03 
2.882100e-01 2.405709e+03 
2.893900e-01 2.394444e+03 
2.906300e-01 2.382701e+03 
2.918900e-01 2.370894e+03 
2.930500e-01 2.360134e+03 
2.942500e-01 2.349097e+03 
2.954200e-01 2.338394e+03 
2.966500e-01 2.327254e+03 
2.978900e-01 2.316138e+03 
2.990400e-01 2.305929e+03 
3.002700e-01 2.295061e+03 
3.015100e-01 2.284189e+03 
3.026800e-01 2.274031e+03 
3.038500e-01 2.263969e+03 
3.050300e-01 2.253915e+03 
3.062600e-01 2.243479e+03 
3.075000e-01 2.233062e+03 
3.087000e-01 2.223079e+03 
3.099100e-01 2.213108e+03 
3.111200e-01 2.203211e+03 
3.123100e-01 2.193532e+03 
3.135300e-01 2.183702e+03 
3.147300e-01 2.174125e+03 
3.159900e-01 2.164164e+03 
3.171800e-01 2.154922e+03 
3.183700e-01 2.145813e+03 
3.196300e-01 2.136260e+03 
3.208400e-01 2.127172e+03 
3.220300e-01 2.118316e+03 
3.232000e-01 2.109589e+03 
3.244300e-01 2.100459e+03 
3.256700e-01 2.091340e+03 
3.269200e-01 2.082234e+03 
3.280800e-01 2.073859e+03 
3.292500e-01 2.065589e+03 
3.304800e-01 2.057003e+03 
3.317100e-01 2.048496e+03 
3.328900e-01 2.040408e+03 
3.340700e-01 2.032389e+03 
3.353600e-01 2.023728e+03 
3.365300e-01 2.015953e+03 
3.377100e-01 2.008179e+03 
3.389200e-01 2.000276e+03 
3.401600e-01 1.992249e+03 
3.413700e-01 1.984507e+03 
3.425300e-01 1.977162e+03 
3.437700e-01 1.969378e+03 
3.449800e-01 1.961849e+03 
3.461800e-01 1.954446e+03 
3.473600e-01 1.947218e+03 
3.485800e-01 1.939784e+03 
3.498100e-01 1.932353e+03 
3.510200e-01 1.925105e+03 
3.522000e-01 1.918097e+03 
3.533900e-01 1.911087e+03 
3.546400e-01 1.903892e+03 
3.558400e-01 1.897049e+03 
3.570600e-01 1.890151e+03 
3.582700e-01 1.883366e+03 
3.595000e-01 1.876527e+03 
3.607100e-01 1.869870e+03 
3.618900e-01 1.863441e+03 
3.631200e-01 1.856796e+03 
3.643200e-01 1.850366e+03 
3.655500e-01 1.843829e+03 
3.667300e-01 1.837609e+03 
3.679500e-01 1.831249e+03 
3.691900e-01 1.824839e+03 
3.703600e-01 1.818839e+03 
3.715700e-01 1.812683e+03 
3.727700e-01 1.806627e+03 
3.739900e-01 1.800531e+03 
3.752000e-01 1.794555e+03 
3.763900e-01 1.788724e+03 
3.775800e-01 1.782939e+03 
3.788200e-01 1.776959e+03 
3.800300e-01 1.771170e+03 
3.812100e-01 1.765540e+03 
3.824200e-01 1.759792e+03 
3.836100e-01 1.754184e+03 
3.848600e-01 1.748338e+03 
3.860400e-01 1.742864e+03 
3.872400e-01 1.737339e+03 
3.884600e-01 1.731778e+03 
3.896500e-01 1.726401e+03 
3.908700e-01 1.720931e+03 
3.920600e-01 1.715636e+03 
3.933100e-01 1.710117e+03 
3.945300e-01 1.704772e+03 
3.957200e-01 1.699609e+03 
3.969300e-01 1.694401e+03 
3.981700e-01 1.689106e+03 
3.993500e-01 1.684104e+03 
4.094840e-01 1.642349e+03 
4.272360e-01 1.574578e+03 
4.454600e-01 1.510476e+03 
4.630560e-01 1.453557e+03 
4.804610e-01 1.401137e+03 
4.980690e-01 1.351734e+03 
5.159230e-01 1.305047e+03 
5.317440e-01 1.266059e+03 
5.489640e-01 1.226302e+03 
5.671990e-01 1.186678e+03 
5.838690e-01 1.152593e+03 
6.018840e-01 1.117899e+03 
6.202330e-01 1.084617e+03 
6.379250e-01 1.054324e+03 
6.545410e-01 1.027176e+03 
6.714560e-01 1.000867e+03 
6.892080e-01 9.745006e+02 
7.066010e-01 9.498696e+02 
7.240540e-01 9.262604e+02 
7.420450e-01 9.027568e+02 
7.593780e-01 8.811865e+02 
7.764720e-01 8.606442e+02 
7.942840e-01 8.401240e+02 
8.116170e-01 8.207624e+02 
8.288310e-01 8.022210e+02 
8.462240e-01 7.840717e+02 
8.631980e-01 7.670259e+02 
8.810700e-01 7.495845e+02 
8.989410e-01 7.327507e+02 
9.166330e-01 7.165729e+02 
9.345640e-01 7.006793e+02 
9.515980e-01 6.860266e+02 
9.688720e-01 6.715572e+02 
9.865640e-01 6.571331e+02 
1.031870e+00 6.222688e+02 
1.063490e+00 5.993527e+02 
1.097920e+00 5.756333e+02 
1.134370e+00 5.518887e+02 
1.167730e+00 5.313563e+02 
1.203830e+00 5.102569e+02 
1.240470e+00 4.900163e+02 
1.275790e+00 4.714716e+02 
1.309140e+00 4.548676e+02 
1.342970e+00 4.388262e+02 
1.378420e+00 4.228500e+02 
1.413200e+00 4.079337e+02 
1.448110e+00 3.936676e+02 
1.484090e+00 3.796779e+02 
1.518820e+00 3.668054e+02 
1.552880e+00 3.547782e+02 
1.588630e+00 3.427523e+02 
1.623230e+00 3.316459e+02 
1.657720e+00 3.210925e+02 
1.692450e+00 3.109255e+02 
1.726400e+00 3.014063e+02 
1.762200e+00 2.918000e+02 
1.797880e+00 2.826513e+02 
1.833270e+00 2.739921e+02 
1.869070e+00 2.655808e+02 
1.903200e+00 2.579213e+02 
1.937740e+00 2.504737e+02 
1.973190e+00 2.431349e+02 
2.007440e+00 2.363379e+02 
2.042160e+00 2.297353e+02 
2.077900e+00 2.231695e+02 
2.112390e+00 2.171091e+02 
2.146220e+00 2.113840e+02 
2.181600e+00 2.056118e+02 
2.216930e+00 2.000901e+02 
2.250760e+00 1.949855e+02 
2.286500e+00 1.897818e+02 
2.321770e+00 1.848500e+02 
2.355950e+00 1.802379e+02 
2.391280e+00 1.756602e+02 
2.426240e+00 1.712701e+02 
2.460670e+00 1.670949e+02 
2.495640e+00 1.630136e+02 
2.531080e+00 1.590107e+02 
2.566220e+00 1.551743e+02 
2.600830e+00 1.515302e+02 
2.635080e+00 1.480539e+02 
2.670340e+00 1.445823e+02 
2.705970e+00 1.411891e+02 
2.740040e+00 1.380476e+02 
2.774520e+00 1.349621e+02 
2.809730e+00 1.319222e+02 
2.844390e+00 1.290273e+02 
2.879960e+00 1.261444e+02 
2.914860e+00 1.234005e+02 
2.949410e+00 1.207682e+02 
2.984440e+00 1.181874e+02 
3.019760e+00 1.156617e+02 
3.054730e+00 1.132348e+02 
3.089030e+00 1.109196e+02 
3.124060e+00 1.086231e+02 
3.159560e+00 1.063623e+02 
3.194710e+00 1.041948e+02 
3.229010e+00 1.021415e+02 
3.263320e+00 1.001404e+02 
3.297930e+00 9.818075e+01 
3.332830e+00 9.626494e+01 
3.368040e+00 9.438340e+01 
3.403300e+00 9.254955e+01 
3.438450e+00 9.076890e+01 
3.473060e+00 8.906213e+01 
3.508440e+00 8.737035e+01 
3.543110e+00 8.575604e+01 
3.577470e+00 8.419510e+01 
3.613040e+00 8.262276e+01 
3.648120e+00 8.111696e+01 
3.682910e+00 7.966070e+01 
3.718050e+00 7.822518e+01 
3.753320e+00 7.682306e+01 
3.787980e+00 7.548286e+01 
3.822290e+00 7.418757e+01 
3.857020e+00 7.290679e+01 
3.891920e+00 7.165011e+01 
3.926650e+00 7.042824e+01 
3.961970e+00 6.921676e+01 
3.997360e+00 6.803541e+01 
4.031670e+00 6.691784e+01 
4.066330e+00 6.581897e+01 
4.101420e+00 6.473197e+01 
4.136200e+00 6.367773e+01 
4.170810e+00 6.265229e+01 
4.206250e+00 6.162962e+01 
4.241580e+00 6.063385e+01 
4.276300e+00 5.967585e+01 
4.310970e+00 5.873950e+01 
4.346120e+00 5.781251e+01 
4.380600e+00 5.692551e+01 
4.414730e+00 5.606602e+01 
4.450350e+00 5.518725e+01 
4.485320e+00 5.434300e+01 
4.519810e+00 5.353016e+01 
4.555430e+00 5.270936e+01 
4.590870e+00 5.190958e+01 
4.625480e+00 5.114395e+01 
4.659910e+00 5.039771e+01 
4.695230e+00 4.965095e+01 
4.729960e+00 4.893199e+01 
4.764450e+00 4.823322e+01 
4.799530e+00 4.753830e+01 
4.834910e+00 4.685138e+01 
4.869700e+00 4.619180e+01 
4.904370e+00 4.554762e+01 
4.939450e+00 4.490814e+01 
4.973940e+00 4.429075e+01 
5.008430e+00 4.368500e+01 
5.043810e+00 4.307506e+01 
5.078840e+00 4.248244e+01 
5.113500e+00 4.190704e+01 
5.148890e+00 4.133611e+01 
5.184210e+00 4.077719e+01 
5.219060e+00 4.023566e+01 
5.253660e+00 3.970721e+01 
5.288570e+00 3.918364e+01 
5.323420e+00 3.867016e+01 
5.358440e+00 3.816318e+01 
5.393590e+00 3.766342e+01 
5.428310e+00 3.718180e+01 
5.462800e+00 3.671342e+01 
5.497640e+00 3.624847e+01 
5.532670e+00 3.578852e+01 
5.567280e+00 3.534172e+01 
5.602000e+00 3.490114e+01 
5.637270e+00 3.446094e+01 
5.672410e+00 3.402981e+01 
5.707020e+00 3.361234e+01 
5.742040e+00 3.319870e+01 
5.777430e+00 3.278808e+01 
5.812210e+00 3.239125e+01 
5.846820e+00 3.200404e+01 
5.881610e+00 3.162147e+01 
5.916510e+00 3.124393e+01 
5.951600e+00 3.087020e+01 
5.986560e+00 3.050375e+01 
6.021830e+00 3.014002e+01 
6.056490e+00 2.979022e+01 
6.091160e+00 2.944744e+01 
6.125830e+00 2.911002e+01 
6.161090e+00 2.877157e+01 
6.195760e+00 2.844253e+01 
6.230420e+00 2.811866e+01 
6.265690e+00 2.779425e+01 
6.300950e+00 2.747642e+01 
6.335620e+00 2.716869e+01 
6.370880e+00 2.686050e+01 
6.405550e+00 2.656299e+01 
6.440220e+00 2.627031e+01 
6.475480e+00 2.597712e+01 
6.510150e+00 2.569305e+01 
6.544810e+00 2.541308e+01 
6.580080e+00 2.513239e+01 
6.614750e+00 2.486055e+01 
6.649410e+00 2.459384e+01 
6.684080e+00 2.433113e+01 
6.719340e+00 2.406782e+01 
6.754010e+00 2.381256e+01 
6.788680e+00 2.356072e+01 
6.823940e+00 2.330826e+01 
6.859800e+00 2.305523e+01 
6.894470e+00 2.281489e+01 
6.929140e+00 2.257820e+01 
6.963800e+00 2.234488e+01 
6.999070e+00 2.211075e+01 
7.033730e+00 2.188377e+01 
7.068400e+00 2.165985e+01 
7.103660e+00 2.143525e+01 
7.138330e+00 2.121778e+01 
7.173600e+00 2.100024e+01 
7.208260e+00 2.078938e+01 
7.243530e+00 2.057771e+01 
7.277600e+00 2.037594e+01 
7.312860e+00 2.016988e+01 
7.348120e+00 1.996660e+01 
7.382790e+00 1.976938e+01 
7.417460e+00 1.957533e+01 
7.452720e+00 1.938088e+01 
7.487390e+00 1.919219e+01 
7.522650e+00 1.900281e+01 
7.557320e+00 1.881894e+01 
7.591990e+00 1.863742e+01 
7.627250e+00 1.845519e+01 
7.662510e+00 1.827533e+01 
7.697180e+00 1.810068e+01 
7.731850e+00 1.792822e+01 
7.766510e+00 1.775799e+01 
7.801180e+00 1.758985e+01 
7.836440e+00 1.742156e+01 
7.871110e+00 1.725852e+01 
7.906380e+00 1.709472e+01 
7.941040e+00 1.693577e+01 
7.976310e+00 1.677557e+01 
8.011570e+00 1.661687e+01 
8.046240e+00 1.646275e+01 
8.080900e+00 1.631056e+01 
8.115570e+00 1.616051e+01 
8.150830e+00 1.601105e+01 
8.185500e+00 1.586588e+01 
8.220770e+00 1.571998e+01 
8.255430e+00 1.557833e+01 
8.290100e+00 1.543772e+01 
8.324770e+00 1.529870e+01 
8.359430e+00 1.516138e+01 
8.394700e+00 1.502329e+01 
8.429960e+00 1.488721e+01 
8.464630e+00 1.475529e+01 
8.499890e+00 1.462269e+01 
8.534560e+00 1.449385e+01 
8.569200e+00 1.436660e+01 
