# Parameters:
# omega_b = 0.022949, omega_m = 0.139016, n_s = 0.862598, h = 60.196850, w = -1.000000, sigma_8 = 0.731496
# z = 0.100000
#
# k[1/Mpc] # P(k):
8.694000e-04 2.279236e+04 
2.077466e-03 4.451567e+04 
3.285532e-03 6.010527e+04 
4.493598e-03 7.128318e+04 
5.701664e-03 7.901159e+04 
6.909730e-03 8.400785e+04 
8.117797e-03 8.695725e+04 
9.325863e-03 8.821734e+04 
1.053393e-02 8.812028e+04 
1.174199e-02 8.696326e+04 
1.295006e-02 8.492956e+04 
1.415813e-02 8.225377e+04 
1.536619e-02 7.913049e+04 
1.657426e-02 7.560888e+04 
1.778233e-02 7.156309e+04 
1.899039e-02 6.737912e+04 
2.019846e-02 6.363409e+04 
2.140652e-02 6.031585e+04 
2.261459e-02 5.721552e+04 
2.382266e-02 5.429164e+04 
2.503072e-02 5.156360e+04 
2.623879e-02 4.903830e+04 
2.744685e-02 4.671537e+04 
2.865492e-02 4.459556e+04 
2.986299e-02 4.266934e+04 
3.100100e-02 4.102325e+04 
3.220400e-02 3.944741e+04 
3.288100e-02 3.863065e+04 
3.424300e-02 3.712489e+04 
3.555100e-02 3.582829e+04 
3.686000e-02 3.465685e+04 
3.795000e-02 3.376729e+04 
3.929100e-02 3.275462e+04 
4.039800e-02 3.197021e+04 
4.164000e-02 3.114368e+04 
4.294400e-02 3.030332e+04 
4.415000e-02 2.955762e+04 
4.542900e-02 2.877154e+04 
4.660900e-02 2.806061e+04 
4.782300e-02 2.731075e+04 
4.892900e-02 2.663538e+04 
5.031200e-02 2.578184e+04 
5.155900e-02 2.500193e+04 
5.238100e-02 2.448656e+04 
5.378200e-02 2.361129e+04 
5.513400e-02 2.276903e+04 
5.627600e-02 2.206274e+04 
5.735300e-02 2.140822e+04 
5.870100e-02 2.060993e+04 
5.988700e-02 1.993219e+04 
6.113500e-02 1.924392e+04 
6.225900e-02 1.865196e+04 
6.340100e-02 1.807781e+04 
6.480200e-02 1.741229e+04 
6.601100e-02 1.687879e+04 
6.725500e-02 1.636686e+04 
6.829100e-02 1.597236e+04 
6.958600e-02 1.550941e+04 
7.071100e-02 1.514170e+04 
7.192300e-02 1.477616e+04 
7.307400e-02 1.445454e+04 
7.412300e-02 1.418212e+04 
7.550400e-02 1.385492e+04 
7.663100e-02 1.360689e+04 
7.791200e-02 1.334488e+04 
7.912700e-02 1.311346e+04 
8.027600e-02 1.290552e+04 
8.138400e-02 1.271278e+04 
8.272200e-02 1.248709e+04 
8.406100e-02 1.226444e+04 
8.534100e-02 1.205287e+04 
8.653800e-02 1.185276e+04 
8.759800e-02 1.167548e+04 
8.900300e-02 1.143840e+04 
9.009000e-02 1.124978e+04 
9.113300e-02 1.106689e+04 
9.239600e-02 1.084532e+04 
9.358000e-02 1.063493e+04 
9.496100e-02 1.038760e+04 
9.608400e-02 1.018821e+04 
9.727500e-02 9.979510e+03 
9.852600e-02 9.761505e+03 
9.973800e-02 9.557356e+03 
1.009000e-01 9.367948e+03 
1.020900e-01 9.179937e+03 
1.034000e-01 8.981029e+03 
1.046000e-01 8.806310e+03 
1.057200e-01 8.652463e+03 
1.069100e-01 8.495270e+03 
1.082500e-01 8.328744e+03 
1.093900e-01 8.194730e+03 
1.105400e-01 8.065141e+03 
1.116900e-01 7.944285e+03 
1.129600e-01 7.816185e+03 
1.142000e-01 7.699074e+03 
1.153300e-01 7.596254e+03 
1.166400e-01 7.481978e+03 
1.177800e-01 7.387239e+03 
1.190000e-01 7.289330e+03 
1.201200e-01 7.201586e+03 
1.213400e-01 7.108262e+03 
1.227100e-01 7.005986e+03 
1.238900e-01 6.919724e+03 
1.250700e-01 6.834040e+03 
1.263200e-01 6.744921e+03 
1.275500e-01 6.658222e+03 
1.287500e-01 6.574276e+03 
1.299900e-01 6.487441e+03 
1.311300e-01 6.408785e+03 
1.323500e-01 6.325547e+03 
1.335900e-01 6.241947e+03 
1.347100e-01 6.166859e+03 
1.359800e-01 6.083118e+03 
1.372100e-01 6.002942e+03 
1.384300e-01 5.924722e+03 
1.395700e-01 5.852101e+03 
1.407700e-01 5.777229e+03 
1.420300e-01 5.700167e+03 
1.432800e-01 5.625389e+03 
1.444500e-01 5.556583e+03 
1.456300e-01 5.488588e+03 
1.468900e-01 5.418272e+03 
1.480500e-01 5.355088e+03 
1.491700e-01 5.295422e+03 
1.503800e-01 5.232431e+03 
1.516400e-01 5.168485e+03 
1.528200e-01 5.111181e+03 
1.540200e-01 5.054021e+03 
1.551900e-01 5.000316e+03 
1.564300e-01 4.944717e+03 
1.576600e-01 4.891009e+03 
1.588700e-01 4.839628e+03 
1.600900e-01 4.788819e+03 
1.612700e-01 4.741080e+03 
1.625400e-01 4.690654e+03 
1.637600e-01 4.643492e+03 
1.649500e-01 4.598534e+03 
1.662200e-01 4.551381e+03 
1.674000e-01 4.508102e+03 
1.685000e-01 4.468429e+03 
1.697500e-01 4.424004e+03 
1.710300e-01 4.379233e+03 
1.722200e-01 4.338344e+03 
1.734400e-01 4.296396e+03 
1.746400e-01 4.255808e+03 
1.758700e-01 4.214779e+03 
1.770900e-01 4.174505e+03 
1.782700e-01 4.136197e+03 
1.794600e-01 4.097958e+03 
1.807000e-01 4.058615e+03 
1.819100e-01 4.020861e+03 
1.830100e-01 3.986997e+03 
1.842200e-01 3.950310e+03 
1.855000e-01 3.912161e+03 
1.867000e-01 3.877382e+03 
1.879200e-01 3.842584e+03 
1.890900e-01 3.809732e+03 
1.902800e-01 3.776831e+03 
1.915200e-01 3.743084e+03 
1.926900e-01 3.711904e+03 
1.939000e-01 3.680707e+03 
1.951700e-01 3.648474e+03 
1.963100e-01 3.620016e+03 
1.975100e-01 3.590603e+03 
1.987800e-01 3.559948e+03 
2.000100e-01 3.530747e+03 
2.012500e-01 3.501830e+03 
2.023400e-01 3.476769e+03 
2.036100e-01 3.448051e+03 
2.048900e-01 3.419804e+03 
2.060400e-01 3.394792e+03 
2.072200e-01 3.369486e+03 
2.084200e-01 3.344180e+03 
2.096900e-01 3.317784e+03 
2.109200e-01 3.292591e+03 
2.121100e-01 3.268411e+03 
2.132700e-01 3.245152e+03 
2.145200e-01 3.220432e+03 
2.157200e-01 3.196950e+03 
2.168800e-01 3.174515e+03 
2.180700e-01 3.151803e+03 
2.193400e-01 3.127854e+03 
2.206000e-01 3.104345e+03 
2.217500e-01 3.083174e+03 
2.229500e-01 3.061369e+03 
2.241400e-01 3.039934e+03 
2.253500e-01 3.018422e+03 
2.264900e-01 2.998412e+03 
2.277100e-01 2.977334e+03 
2.289900e-01 2.955587e+03 
2.301500e-01 2.936135e+03 
2.313600e-01 2.916098e+03 
2.325600e-01 2.896431e+03 
2.337700e-01 2.876851e+03 
2.350000e-01 2.857200e+03 
2.362000e-01 2.838426e+03 
2.374100e-01 2.819914e+03 
2.386500e-01 2.801182e+03 
2.399100e-01 2.782391e+03 
2.410400e-01 2.765874e+03 
2.422500e-01 2.748413e+03 
2.435000e-01 2.730599e+03 
2.447300e-01 2.713330e+03 
2.458700e-01 2.697687e+03 
2.470600e-01 2.681546e+03 
2.483300e-01 2.664529e+03 
2.495600e-01 2.648322e+03 
2.507600e-01 2.632797e+03 
2.519600e-01 2.617453e+03 
2.532200e-01 2.601533e+03 
2.543700e-01 2.587258e+03 
2.555500e-01 2.572831e+03 
2.568000e-01 2.557726e+03 
2.580100e-01 2.543275e+03 
2.592400e-01 2.528752e+03 
2.604100e-01 2.515092e+03 
2.616100e-01 2.501237e+03 
2.628400e-01 2.487197e+03 
2.640600e-01 2.473574e+03 
2.652200e-01 2.460821e+03 
2.664300e-01 2.447663e+03 
2.676500e-01 2.434544e+03 
2.688400e-01 2.421756e+03 
2.700700e-01 2.408599e+03 
2.712400e-01 2.396221e+03 
2.724800e-01 2.383243e+03 
2.736700e-01 2.370881e+03 
2.748800e-01 2.358402e+03 
2.761000e-01 2.345955e+03 
2.773200e-01 2.333642e+03 
2.785400e-01 2.321460e+03 
2.797000e-01 2.309996e+03 
2.808900e-01 2.298355e+03 
2.821400e-01 2.286258e+03 
2.833900e-01 2.274281e+03 
2.845500e-01 2.263083e+03 
2.857800e-01 2.251331e+03 
2.870300e-01 2.239514e+03 
2.882100e-01 2.228473e+03 
2.893900e-01 2.217480e+03 
2.906300e-01 2.206012e+03 
2.918900e-01 2.194481e+03 
2.930500e-01 2.183973e+03 
2.942500e-01 2.173191e+03 
2.954200e-01 2.162726e+03 
2.966500e-01 2.151833e+03 
2.978900e-01 2.140963e+03 
2.990400e-01 2.130980e+03 
3.002700e-01 2.120348e+03 
3.015100e-01 2.109709e+03 
3.026800e-01 2.099768e+03 
3.038500e-01 2.089920e+03 
3.050300e-01 2.080082e+03 
3.062600e-01 2.069872e+03 
3.075000e-01 2.059681e+03 
3.087000e-01 2.049913e+03 
3.099100e-01 2.040158e+03 
3.111200e-01 2.030479e+03 
3.123100e-01 2.021020e+03 
3.135300e-01 2.011413e+03 
3.147300e-01 2.002052e+03 
3.159900e-01 1.992318e+03 
3.171800e-01 1.983285e+03 
3.183700e-01 1.974385e+03 
3.196300e-01 1.965049e+03 
3.208400e-01 1.956168e+03 
3.220300e-01 1.947513e+03 
3.232000e-01 1.939003e+03 
3.244300e-01 1.930107e+03 
3.256700e-01 1.921222e+03 
3.269200e-01 1.912349e+03 
3.280800e-01 1.904189e+03 
3.292500e-01 1.896133e+03 
3.304800e-01 1.887772e+03 
3.317100e-01 1.879487e+03 
3.328900e-01 1.871610e+03 
3.340700e-01 1.863800e+03 
3.353600e-01 1.855379e+03 
3.365300e-01 1.847824e+03 
3.377100e-01 1.840269e+03 
3.389200e-01 1.832590e+03 
3.401600e-01 1.824789e+03 
3.413700e-01 1.817276e+03 
3.425300e-01 1.810157e+03 
3.437700e-01 1.802611e+03 
3.449800e-01 1.795313e+03 
3.461800e-01 1.788136e+03 
3.473600e-01 1.781134e+03 
3.485800e-01 1.773944e+03 
3.498100e-01 1.766758e+03 
3.510200e-01 1.759749e+03 
3.522000e-01 1.752971e+03 
3.533900e-01 1.746191e+03 
3.546400e-01 1.739243e+03 
3.558400e-01 1.732636e+03 
3.570600e-01 1.725975e+03 
3.582700e-01 1.719423e+03 
3.595000e-01 1.712818e+03 
3.607100e-01 1.706397e+03 
3.618900e-01 1.700203e+03 
3.631200e-01 1.693798e+03 
3.643200e-01 1.687602e+03 
3.655500e-01 1.681302e+03 
3.667300e-01 1.675307e+03 
3.679500e-01 1.669192e+03 
3.691900e-01 1.663028e+03 
3.703600e-01 1.657259e+03 
3.715700e-01 1.651339e+03 
3.727700e-01 1.645515e+03 
3.739900e-01 1.639655e+03 
3.752000e-01 1.633914e+03 
3.763900e-01 1.628313e+03 
3.775800e-01 1.622755e+03 
3.788200e-01 1.617010e+03 
3.800300e-01 1.611448e+03 
3.812100e-01 1.606046e+03 
3.824200e-01 1.600536e+03 
3.836100e-01 1.595158e+03 
3.848600e-01 1.589554e+03 
3.860400e-01 1.584305e+03 
3.872400e-01 1.579007e+03 
3.884600e-01 1.573682e+03 
3.896500e-01 1.568534e+03 
3.908700e-01 1.563298e+03 
3.920600e-01 1.558229e+03 
3.933100e-01 1.552945e+03 
3.945300e-01 1.547828e+03 
3.957200e-01 1.542889e+03 
3.969300e-01 1.537909e+03 
3.981700e-01 1.532844e+03 
3.993500e-01 1.528061e+03 
4.094840e-01 1.488153e+03 
4.272360e-01 1.423477e+03 
4.454600e-01 1.362403e+03 
4.630560e-01 1.308218e+03 
4.804610e-01 1.258378e+03 
4.980690e-01 1.211450e+03 
5.159230e-01 1.167154e+03 
5.317440e-01 1.130221e+03 
5.489640e-01 1.092607e+03 
5.671990e-01 1.055195e+03 
5.838690e-01 1.023086e+03 
6.018840e-01 9.904615e+02 
6.202330e-01 9.592549e+02 
6.379250e-01 9.309057e+02 
6.545410e-01 9.055884e+02 
6.714560e-01 8.811070e+02 
6.892080e-01 8.566501e+02 
7.066010e-01 8.338593e+02 
7.240540e-01 8.120714e+02 
7.420450e-01 7.904554e+02 
7.593780e-01 7.706656e+02 
7.764720e-01 7.518678e+02 
7.942840e-01 7.331359e+02 
8.116170e-01 7.155077e+02 
8.288310e-01 6.986724e+02 
8.462240e-01 6.822266e+02 
8.631980e-01 6.668123e+02 
8.810700e-01 6.510767e+02 
8.989410e-01 6.359172e+02 
9.166330e-01 6.213778e+02 
9.345640e-01 6.071212e+02 
9.515980e-01 5.940019e+02 
9.688720e-01 5.810668e+02 
9.865640e-01 5.681954e+02 
1.031870e+00 5.371534e+02 
1.063490e+00 5.168125e+02 
1.097920e+00 4.958064e+02 
1.134370e+00 4.748236e+02 
1.167730e+00 4.567125e+02 
1.203830e+00 4.381361e+02 
1.240470e+00 4.203449e+02 
1.275790e+00 4.040740e+02 
1.309140e+00 3.895231e+02 
1.342970e+00 3.754848e+02 
1.378420e+00 3.615182e+02 
1.413200e+00 3.484936e+02 
1.448110e+00 3.360526e+02 
1.484090e+00 3.238633e+02 
1.518820e+00 3.126612e+02 
1.552880e+00 3.022022e+02 
1.588630e+00 2.917544e+02 
1.623230e+00 2.821127e+02 
1.657720e+00 2.729572e+02 
1.692450e+00 2.641457e+02 
1.726400e+00 2.559018e+02 
1.762200e+00 2.475879e+02 
1.797880e+00 2.396756e+02 
1.833270e+00 2.321920e+02 
1.869070e+00 2.249271e+02 
1.903200e+00 2.183163e+02 
1.937740e+00 2.118919e+02 
1.973190e+00 2.055657e+02 
2.007440e+00 1.997096e+02 
2.042160e+00 1.940237e+02 
2.077900e+00 1.883739e+02 
2.112390e+00 1.831610e+02 
2.146220e+00 1.782393e+02 
2.181600e+00 1.732796e+02 
2.216930e+00 1.685373e+02 
2.250760e+00 1.641556e+02 
2.286500e+00 1.596913e+02 
2.321770e+00 1.554626e+02 
2.355950e+00 1.515092e+02 
2.391280e+00 1.475872e+02 
2.426240e+00 1.438276e+02 
2.460670e+00 1.402537e+02 
2.495640e+00 1.367614e+02 
2.531080e+00 1.333381e+02 
2.566220e+00 1.300590e+02 
2.600830e+00 1.269452e+02 
2.635080e+00 1.239756e+02 
2.670340e+00 1.210113e+02 
2.705970e+00 1.181154e+02 
2.740040e+00 1.154354e+02 
2.774520e+00 1.128041e+02 
2.809730e+00 1.102128e+02 
2.844390e+00 1.077459e+02 
2.879960e+00 1.052902e+02 
2.914860e+00 1.029537e+02 
2.949410e+00 1.007129e+02 
2.984440e+00 9.851682e+01 
3.019760e+00 9.636837e+01 
3.054730e+00 9.430463e+01 
3.089030e+00 9.233688e+01 
3.124060e+00 9.038559e+01 
3.159560e+00 8.846534e+01 
3.194710e+00 8.662498e+01 
3.229010e+00 8.488197e+01 
3.263320e+00 8.318391e+01 
3.297930e+00 8.152143e+01 
3.332830e+00 7.989681e+01 
3.368040e+00 7.830174e+01 
3.403300e+00 7.674757e+01 
3.438450e+00 7.523909e+01 
3.473060e+00 7.379362e+01 
3.508440e+00 7.236132e+01 
3.543110e+00 7.099498e+01 
3.577470e+00 6.967425e+01 
3.613040e+00 6.834423e+01 
3.648120e+00 6.707087e+01 
3.682910e+00 6.583974e+01 
3.718050e+00 6.462652e+01 
3.753320e+00 6.344193e+01 
3.787980e+00 6.231007e+01 
3.822290e+00 6.121647e+01 
3.857020e+00 6.013546e+01 
3.891920e+00 5.907506e+01 
3.926650e+00 5.804434e+01 
3.961970e+00 5.702266e+01 
3.997360e+00 5.602672e+01 
4.031670e+00 5.508480e+01 
4.066330e+00 5.415894e+01 
4.101420e+00 5.324332e+01 
4.136200e+00 5.235567e+01 
4.170810e+00 5.149247e+01 
4.206250e+00 5.063182e+01 
4.241580e+00 4.979401e+01 
4.276300e+00 4.898830e+01 
4.310970e+00 4.820106e+01 
4.346120e+00 4.742190e+01 
4.380600e+00 4.667658e+01 
4.414730e+00 4.595455e+01 
4.450350e+00 4.521667e+01 
4.485320e+00 4.450794e+01 
4.519810e+00 4.382581e+01 
4.555430e+00 4.313720e+01 
4.590870e+00 4.246640e+01 
4.625480e+00 4.182441e+01 
4.659910e+00 4.119883e+01 
4.695230e+00 4.057311e+01 
4.729960e+00 3.997085e+01 
4.764450e+00 3.938568e+01 
4.799530e+00 3.880396e+01 
4.834910e+00 3.822908e+01 
4.869700e+00 3.767726e+01 
4.904370e+00 3.713846e+01 
4.939450e+00 3.660375e+01 
4.973940e+00 3.608772e+01 
5.008430e+00 3.558154e+01 
5.043810e+00 3.507210e+01 
5.078840e+00 3.457731e+01 
5.113500e+00 3.409700e+01 
5.148890e+00 3.362059e+01 
5.184210e+00 3.315431e+01 
5.219060e+00 3.270267e+01 
5.253660e+00 3.226211e+01 
5.288570e+00 3.182573e+01 
5.323420e+00 3.139796e+01 
5.358440e+00 3.097582e+01 
5.393590e+00 3.055980e+01 
5.428310e+00 3.015902e+01 
5.462800e+00 2.976937e+01 
5.497640e+00 2.938267e+01 
5.532670e+00 2.900033e+01 
5.567280e+00 2.862904e+01 
5.602000e+00 2.826299e+01 
5.637270e+00 2.789750e+01 
5.672410e+00 2.753964e+01 
5.707020e+00 2.719320e+01 
5.742040e+00 2.685009e+01 
5.777430e+00 2.650957e+01 
5.812210e+00 2.618055e+01 
5.846820e+00 2.585973e+01 
5.881610e+00 2.554285e+01 
5.916510e+00 2.523019e+01 
5.951600e+00 2.492091e+01 
5.986560e+00 2.461779e+01 
6.021830e+00 2.431697e+01 
6.056490e+00 2.402777e+01 
6.091160e+00 2.374447e+01 
6.125830e+00 2.346566e+01 
6.161090e+00 2.318611e+01 
6.195760e+00 2.291455e+01 
6.230420e+00 2.264730e+01 
6.265690e+00 2.237967e+01 
6.300950e+00 2.211766e+01 
6.335620e+00 2.186404e+01 
6.370880e+00 2.161007e+01 
6.405550e+00 2.136508e+01 
6.440220e+00 2.112417e+01 
6.475480e+00 2.088287e+01 
6.510150e+00 2.064918e+01 
6.544810e+00 2.041900e+01 
6.580080e+00 2.018829e+01 
6.614750e+00 1.996487e+01 
6.649410e+00 1.974589e+01 
6.684080e+00 1.953025e+01 
6.719340e+00 1.931416e+01 
6.754010e+00 1.910477e+01 
6.788680e+00 1.889833e+01 
6.823940e+00 1.869143e+01 
6.859800e+00 1.848408e+01 
6.894470e+00 1.828728e+01 
6.929140e+00 1.809354e+01 
6.963800e+00 1.790259e+01 
6.999070e+00 1.771102e+01 
7.033730e+00 1.752550e+01 
7.068400e+00 1.734250e+01 
7.103660e+00 1.715899e+01 
7.138330e+00 1.698138e+01 
7.173600e+00 1.680387e+01 
7.208260e+00 1.663183e+01 
7.243530e+00 1.645916e+01 
7.277600e+00 1.629466e+01 
7.312860e+00 1.612676e+01 
7.348120e+00 1.596114e+01 
7.382790e+00 1.580048e+01 
7.417460e+00 1.564255e+01 
7.452720e+00 1.548439e+01 
7.487390e+00 1.533093e+01 
7.522650e+00 1.517692e+01 
7.557320e+00 1.502753e+01 
7.591990e+00 1.488010e+01 
7.627250e+00 1.473212e+01 
7.662510e+00 1.458608e+01 
7.697180e+00 1.444440e+01 
7.731850e+00 1.430457e+01 
7.766510e+00 1.416655e+01 
7.801180e+00 1.403025e+01 
7.836440e+00 1.389394e+01 
7.871110e+00 1.376195e+01 
7.906380e+00 1.362938e+01 
7.941040e+00 1.350073e+01 
7.976310e+00 1.337116e+01 
8.011570e+00 1.324290e+01 
8.046240e+00 1.311836e+01 
8.080900e+00 1.299539e+01 
8.115570e+00 1.287420e+01 
8.150830e+00 1.275361e+01 
8.185500e+00 1.263649e+01 
8.220770e+00 1.251879e+01 
8.255430e+00 1.240453e+01 
8.290100e+00 1.229124e+01 
8.324770e+00 1.217927e+01 
8.359430e+00 1.206866e+01 
8.394700e+00 1.195745e+01 
8.429960e+00 1.184793e+01 
8.464630e+00 1.174183e+01 
8.499890e+00 1.163520e+01 
8.534560e+00 1.153158e+01 
8.569200e+00 1.142927e+01 
