# Parameters:
# omega_b = 0.022492, omega_m = 0.129921, n_s = 0.936614, h = 81.220472, w = -1.000000, sigma_8 = 0.759843
# z = 0.100000
#
# k[1/Mpc] # P(k):
8.694000e-04 1.483392e+04 
2.077466e-03 3.059320e+04 
3.285532e-03 4.239344e+04 
4.493598e-03 5.106295e+04 
5.701664e-03 5.716573e+04 
6.909730e-03 6.119680e+04 
8.117797e-03 6.365945e+04 
9.325863e-03 6.481502e+04 
1.053393e-02 6.490765e+04 
1.174199e-02 6.415683e+04 
1.295006e-02 6.270587e+04 
1.415813e-02 6.074155e+04 
1.536619e-02 5.841952e+04 
1.657426e-02 5.589913e+04 
1.778233e-02 5.343561e+04 
1.899039e-02 5.101920e+04 
2.019846e-02 4.837881e+04 
2.140652e-02 4.562871e+04 
2.261459e-02 4.297150e+04 
2.382266e-02 4.049957e+04 
2.503072e-02 3.823997e+04 
2.623879e-02 3.619506e+04 
2.744685e-02 3.436593e+04 
2.865492e-02 3.274130e+04 
2.986299e-02 3.130669e+04 
3.100100e-02 3.012148e+04 
3.220400e-02 2.902482e+04 
3.288100e-02 2.847506e+04 
3.424300e-02 2.749226e+04 
3.555100e-02 2.667739e+04 
3.686000e-02 2.596669e+04 
3.795000e-02 2.544033e+04 
3.929100e-02 2.485013e+04 
4.039800e-02 2.439065e+04 
4.164000e-02 2.389956e+04 
4.294400e-02 2.337547e+04 
4.415000e-02 2.289081e+04 
4.542900e-02 2.234375e+04 
4.660900e-02 2.182452e+04 
4.782300e-02 2.123807e+04 
4.892900e-02 2.068875e+04 
5.031200e-02 1.996500e+04 
5.155900e-02 1.928005e+04 
5.238100e-02 1.881893e+04 
5.378200e-02 1.802516e+04 
5.513400e-02 1.725490e+04 
5.627600e-02 1.660953e+04 
5.735300e-02 1.601546e+04 
5.870100e-02 1.529988e+04 
5.988700e-02 1.470303e+04 
6.113500e-02 1.411015e+04 
6.225900e-02 1.361374e+04 
6.340100e-02 1.314639e+04 
6.480200e-02 1.262107e+04 
6.601100e-02 1.221810e+04 
6.725500e-02 1.184684e+04 
6.829100e-02 1.157414e+04 
6.958600e-02 1.126532e+04 
7.071100e-02 1.103161e+04 
7.192300e-02 1.080856e+04 
7.307400e-02 1.061945e+04 
7.412300e-02 1.046403e+04 
7.550400e-02 1.028313e+04 
7.663100e-02 1.014781e+04 
7.791200e-02 1.000440e+04 
7.912700e-02 9.874364e+03 
8.027600e-02 9.753167e+03 
8.138400e-02 9.636079e+03 
8.272200e-02 9.491144e+03 
8.406100e-02 9.338945e+03 
8.534100e-02 9.183909e+03 
8.653800e-02 9.029299e+03 
8.759800e-02 8.887954e+03 
8.900300e-02 8.692847e+03 
9.009000e-02 8.533694e+03 
9.113300e-02 8.376657e+03 
9.239600e-02 8.184751e+03 
9.358000e-02 8.001349e+03 
9.496100e-02 7.785137e+03 
9.608400e-02 7.611176e+03 
9.727500e-02 7.429563e+03 
9.852600e-02 7.241612e+03 
9.973800e-02 7.066885e+03 
1.009000e-01 6.905851e+03 
1.020900e-01 6.749449e+03 
1.034000e-01 6.586044e+03 
1.046000e-01 6.444649e+03 
1.057200e-01 6.324072e+03 
1.069100e-01 6.202484e+03 
1.082500e-01 6.078417e+03 
1.093900e-01 5.981562e+03 
1.105400e-01 5.889669e+03 
1.116900e-01 5.808035e+03 
1.129600e-01 5.722824e+03 
1.142000e-01 5.648086e+03 
1.153300e-01 5.583230e+03 
1.166400e-01 5.512354e+03 
1.177800e-01 5.453864e+03 
1.190000e-01 5.393555e+03 
1.201200e-01 5.337964e+03 
1.213400e-01 5.278566e+03 
1.227100e-01 5.209848e+03 
1.238900e-01 5.150954e+03 
1.250700e-01 5.089372e+03 
1.263200e-01 5.024067e+03 
1.275500e-01 4.957767e+03 
1.287500e-01 4.892284e+03 
1.299900e-01 4.822543e+03 
1.311300e-01 4.758503e+03 
1.323500e-01 4.689435e+03 
1.335900e-01 4.619691e+03 
1.347100e-01 4.556545e+03 
1.359800e-01 4.486189e+03 
1.372100e-01 4.418916e+03 
1.384300e-01 4.353590e+03 
1.395700e-01 4.293598e+03 
1.407700e-01 4.231908e+03 
1.420300e-01 4.169701e+03 
1.432800e-01 4.109371e+03 
1.444500e-01 4.055377e+03 
1.456300e-01 4.002040e+03 
1.468900e-01 3.947968e+03 
1.480500e-01 3.899713e+03 
1.491700e-01 3.854648e+03 
1.503800e-01 3.807712e+03 
1.516400e-01 3.760230e+03 
1.528200e-01 3.718399e+03 
1.540200e-01 3.676673e+03 
1.551900e-01 3.637910e+03 
1.564300e-01 3.597887e+03 
1.576600e-01 3.559319e+03 
1.588700e-01 3.522536e+03 
1.600900e-01 3.486160e+03 
1.612700e-01 3.451952e+03 
1.625400e-01 3.415816e+03 
1.637600e-01 3.381856e+03 
1.649500e-01 3.349385e+03 
1.662200e-01 3.315267e+03 
1.674000e-01 3.283613e+03 
1.685000e-01 3.254596e+03 
1.697500e-01 3.221870e+03 
1.710300e-01 3.188656e+03 
1.722200e-01 3.158323e+03 
1.734400e-01 3.126765e+03 
1.746400e-01 3.096215e+03 
1.758700e-01 3.065218e+03 
1.770900e-01 3.034553e+03 
1.782700e-01 3.005390e+03 
1.794600e-01 2.976132e+03 
1.807000e-01 2.945932e+03 
1.819100e-01 2.916957e+03 
1.830100e-01 2.890869e+03 
1.842200e-01 2.862592e+03 
1.855000e-01 2.833190e+03 
1.867000e-01 2.806339e+03 
1.879200e-01 2.779477e+03 
1.890900e-01 2.754129e+03 
1.902800e-01 2.728788e+03 
1.915200e-01 2.702799e+03 
1.926900e-01 2.678810e+03 
1.939000e-01 2.654873e+03 
1.951700e-01 2.630145e+03 
1.963100e-01 2.608349e+03 
1.975100e-01 2.585912e+03 
1.987800e-01 2.562532e+03 
2.000100e-01 2.540297e+03 
2.012500e-01 2.518358e+03 
2.023400e-01 2.499348e+03 
2.036100e-01 2.477587e+03 
2.048900e-01 2.456270e+03 
2.060400e-01 2.437396e+03 
2.072200e-01 2.418310e+03 
2.084200e-01 2.399310e+03 
2.096900e-01 2.379494e+03 
2.109200e-01 2.360582e+03 
2.121100e-01 2.342524e+03 
2.132700e-01 2.325160e+03 
2.145200e-01 2.306706e+03 
2.157200e-01 2.289244e+03 
2.168800e-01 2.272593e+03 
2.180700e-01 2.255738e+03 
2.193400e-01 2.238004e+03 
2.206000e-01 2.220670e+03 
2.217500e-01 2.205061e+03 
2.229500e-01 2.188984e+03 
2.241400e-01 2.173309e+03 
2.253500e-01 2.157581e+03 
2.264900e-01 2.142952e+03 
2.277100e-01 2.127596e+03 
2.289900e-01 2.111814e+03 
2.301500e-01 2.097698e+03 
2.313600e-01 2.083159e+03 
2.325600e-01 2.068981e+03 
2.337700e-01 2.054865e+03 
2.350000e-01 2.040699e+03 
2.362000e-01 2.027187e+03 
2.374100e-01 2.013889e+03 
2.386500e-01 2.000433e+03 
2.399100e-01 1.986935e+03 
2.410400e-01 1.975062e+03 
2.422500e-01 1.962509e+03 
2.435000e-01 1.949701e+03 
2.447300e-01 1.937275e+03 
2.458700e-01 1.925970e+03 
2.470600e-01 1.914306e+03 
2.483300e-01 1.902009e+03 
2.495600e-01 1.890260e+03 
2.507600e-01 1.878953e+03 
2.519600e-01 1.867778e+03 
2.532200e-01 1.856184e+03 
2.543700e-01 1.845736e+03 
2.555500e-01 1.835142e+03 
2.568000e-01 1.824049e+03 
2.580100e-01 1.813437e+03 
2.592400e-01 1.802716e+03 
2.604100e-01 1.792607e+03 
2.616100e-01 1.782354e+03 
2.628400e-01 1.771963e+03 
2.640600e-01 1.761839e+03 
2.652200e-01 1.752345e+03 
2.664300e-01 1.742550e+03 
2.676500e-01 1.732783e+03 
2.688400e-01 1.723256e+03 
2.700700e-01 1.713450e+03 
2.712400e-01 1.704224e+03 
2.724800e-01 1.694552e+03 
2.736700e-01 1.685341e+03 
2.748800e-01 1.676045e+03 
2.761000e-01 1.666772e+03 
2.773200e-01 1.657600e+03 
2.785400e-01 1.648531e+03 
2.797000e-01 1.640008e+03 
2.808900e-01 1.631355e+03 
2.821400e-01 1.622361e+03 
2.833900e-01 1.613460e+03 
2.845500e-01 1.605183e+03 
2.857800e-01 1.596495e+03 
2.870300e-01 1.587760e+03 
2.882100e-01 1.579599e+03 
2.893900e-01 1.571496e+03 
2.906300e-01 1.563054e+03 
2.918900e-01 1.554566e+03 
2.930500e-01 1.546831e+03 
2.942500e-01 1.538904e+03 
2.954200e-01 1.531236e+03 
2.966500e-01 1.523255e+03 
2.978900e-01 1.515291e+03 
2.990400e-01 1.507977e+03 
3.002700e-01 1.500212e+03 
3.015100e-01 1.492453e+03 
3.026800e-01 1.485204e+03 
3.038500e-01 1.478023e+03 
3.050300e-01 1.470848e+03 
3.062600e-01 1.463432e+03 
3.075000e-01 1.456029e+03 
3.087000e-01 1.448934e+03 
3.099100e-01 1.441848e+03 
3.111200e-01 1.434821e+03 
3.123100e-01 1.427961e+03 
3.135300e-01 1.420994e+03 
3.147300e-01 1.414206e+03 
3.159900e-01 1.407146e+03 
3.171800e-01 1.400601e+03 
3.183700e-01 1.394153e+03 
3.196300e-01 1.387389e+03 
3.208400e-01 1.380956e+03 
3.220300e-01 1.374686e+03 
3.232000e-01 1.368525e+03 
3.244300e-01 1.362085e+03 
3.256700e-01 1.355654e+03 
3.269200e-01 1.349231e+03 
3.280800e-01 1.343324e+03 
3.292500e-01 1.337487e+03 
3.304800e-01 1.331428e+03 
3.317100e-01 1.325423e+03 
3.328900e-01 1.319714e+03 
3.340700e-01 1.314054e+03 
3.353600e-01 1.307946e+03 
3.365300e-01 1.302465e+03 
3.377100e-01 1.296985e+03 
3.389200e-01 1.291414e+03 
3.401600e-01 1.285754e+03 
3.413700e-01 1.280296e+03 
3.425300e-01 1.275119e+03 
3.437700e-01 1.269632e+03 
3.449800e-01 1.264324e+03 
3.461800e-01 1.259105e+03 
3.473600e-01 1.254010e+03 
3.485800e-01 1.248772e+03 
3.498100e-01 1.243537e+03 
3.510200e-01 1.238430e+03 
3.522000e-01 1.233491e+03 
3.533900e-01 1.228551e+03 
3.546400e-01 1.223479e+03 
3.558400e-01 1.218654e+03 
3.570600e-01 1.213790e+03 
3.582700e-01 1.209006e+03 
3.595000e-01 1.204184e+03 
3.607100e-01 1.199490e+03 
3.618900e-01 1.194959e+03 
3.631200e-01 1.190274e+03 
3.643200e-01 1.185741e+03 
3.655500e-01 1.181133e+03 
3.667300e-01 1.176747e+03 
3.679500e-01 1.172267e+03 
3.691900e-01 1.167750e+03 
3.703600e-01 1.163523e+03 
3.715700e-01 1.159185e+03 
3.727700e-01 1.154917e+03 
3.739900e-01 1.150621e+03 
3.752000e-01 1.146408e+03 
3.763900e-01 1.142297e+03 
3.775800e-01 1.138218e+03 
3.788200e-01 1.134001e+03 
3.800300e-01 1.129918e+03 
3.812100e-01 1.125955e+03 
3.824200e-01 1.121913e+03 
3.836100e-01 1.117968e+03 
3.848600e-01 1.113856e+03 
3.860400e-01 1.110005e+03 
3.872400e-01 1.106118e+03 
3.884600e-01 1.102210e+03 
3.896500e-01 1.098433e+03 
3.908700e-01 1.094590e+03 
3.920600e-01 1.090869e+03 
3.933100e-01 1.086991e+03 
3.945300e-01 1.083235e+03 
3.957200e-01 1.079609e+03 
3.969300e-01 1.075953e+03 
3.981700e-01 1.072234e+03 
3.993500e-01 1.068722e+03 
4.094840e-01 1.039476e+03 
4.272360e-01 9.922947e+02 
4.454600e-01 9.480579e+02 
4.630560e-01 9.091002e+02 
4.804610e-01 8.735684e+02 
4.980690e-01 8.403623e+02 
5.159230e-01 8.092453e+02 
5.317440e-01 7.834485e+02 
5.489640e-01 7.573470e+02 
5.671990e-01 7.315593e+02 
5.838690e-01 7.095334e+02 
6.018840e-01 6.872897e+02 
6.202330e-01 6.661516e+02 
6.379250e-01 6.470481e+02 
6.545410e-01 6.301085e+02 
6.714560e-01 6.138005e+02 
6.892080e-01 5.976219e+02 
7.066010e-01 5.826303e+02 
7.240540e-01 5.683661e+02 
7.420450e-01 5.543069e+02 
7.593780e-01 5.415036e+02 
7.764720e-01 5.293924e+02 
7.942840e-01 5.173770e+02 
8.116170e-01 5.061223e+02 
8.288310e-01 4.954109e+02 
8.462240e-01 4.849799e+02 
8.631980e-01 4.752326e+02 
8.810700e-01 4.652984e+02 
8.989410e-01 4.557513e+02 
9.166330e-01 4.466039e+02 
9.345640e-01 4.376399e+02 
9.515980e-01 4.293959e+02 
9.688720e-01 4.212723e+02 
9.865640e-01 4.131840e+02 
1.031870e+00 3.936604e+02 
1.063490e+00 3.808271e+02 
1.097920e+00 3.675357e+02 
1.134370e+00 3.541935e+02 
1.167730e+00 3.426282e+02 
1.203830e+00 3.306993e+02 
1.240470e+00 3.192103e+02 
1.275790e+00 3.086326e+02 
1.309140e+00 2.991170e+02 
1.342970e+00 2.898790e+02 
1.378420e+00 2.806351e+02 
1.413200e+00 2.719535e+02 
1.448110e+00 2.636038e+02 
1.484090e+00 2.553741e+02 
1.518820e+00 2.477562e+02 
1.552880e+00 2.406001e+02 
1.588630e+00 2.334086e+02 
1.623230e+00 2.267300e+02 
1.657720e+00 2.203543e+02 
1.692450e+00 2.141815e+02 
1.726400e+00 2.083677e+02 
1.762200e+00 2.024702e+02 
1.797880e+00 1.968248e+02 
1.833270e+00 1.914587e+02 
1.869070e+00 1.862155e+02 
1.903200e+00 1.814216e+02 
1.937740e+00 1.767391e+02 
1.973190e+00 1.721029e+02 
2.007440e+00 1.677900e+02 
2.042160e+00 1.635833e+02 
2.077900e+00 1.593794e+02 
2.112390e+00 1.554859e+02 
2.146220e+00 1.517901e+02 
2.181600e+00 1.480486e+02 
2.216930e+00 1.444565e+02 
2.250760e+00 1.411222e+02 
2.286500e+00 1.377103e+02 
2.321770e+00 1.344659e+02 
2.355950e+00 1.314203e+02 
2.391280e+00 1.283862e+02 
2.426240e+00 1.254647e+02 
2.460670e+00 1.226773e+02 
2.495640e+00 1.199449e+02 
2.531080e+00 1.172537e+02 
2.566220e+00 1.146661e+02 
2.600830e+00 1.122014e+02 
2.635080e+00 1.098442e+02 
2.670340e+00 1.074802e+02 
2.705970e+00 1.051629e+02 
2.740040e+00 1.030118e+02 
2.774520e+00 1.008920e+02 
2.809730e+00 9.879807e+01 
2.844390e+00 9.679941e+01 
2.879960e+00 9.480266e+01 
2.914860e+00 9.289609e+01 
2.949410e+00 9.106319e+01 
2.984440e+00 8.926132e+01 
3.019760e+00 8.749334e+01 
3.054730e+00 8.579114e+01 
3.089030e+00 8.416128e+01 
3.124060e+00 8.254146e+01 
3.159560e+00 8.094292e+01 
3.194710e+00 7.940664e+01 
3.229010e+00 7.794910e+01 
3.263320e+00 7.652387e+01 
3.297930e+00 7.512612e+01 
3.332830e+00 7.375673e+01 
3.368040e+00 7.240876e+01 
3.403300e+00 7.109250e+01 
3.438450e+00 6.981095e+01 
3.473060e+00 6.858114e+01 
3.508440e+00 6.735867e+01 
3.543110e+00 6.619096e+01 
3.577470e+00 6.505860e+01 
3.613040e+00 6.391670e+01 
3.648120e+00 6.282082e+01 
3.682910e+00 6.175945e+01 
3.718050e+00 6.071086e+01 
3.753320e+00 5.968534e+01 
3.787980e+00 5.870347e+01 
3.822290e+00 5.775307e+01 
3.857020e+00 5.681141e+01 
3.891920e+00 5.588625e+01 
3.926650e+00 5.498496e+01 
3.961970e+00 5.409036e+01 
3.997360e+00 5.321639e+01 
4.031670e+00 5.238890e+01 
4.066330e+00 5.157370e+01 
4.101420e+00 5.076684e+01 
4.136200e+00 4.998242e+01 
4.170810e+00 4.921905e+01 
4.206250e+00 4.845624e+01 
4.241580e+00 4.771291e+01 
4.276300e+00 4.699659e+01 
4.310970e+00 4.629567e+01 
4.346120e+00 4.560105e+01 
4.380600e+00 4.493545e+01 
4.414730e+00 4.429018e+01 
4.450350e+00 4.362901e+01 
4.485320e+00 4.299353e+01 
4.519810e+00 4.238083e+01 
4.555430e+00 4.176158e+01 
4.590870e+00 4.115762e+01 
4.625480e+00 4.057855e+01 
4.659910e+00 4.001390e+01 
4.695230e+00 3.944804e+01 
4.729960e+00 3.890293e+01 
4.764450e+00 3.837268e+01 
4.799530e+00 3.784476e+01 
4.834910e+00 3.732271e+01 
4.869700e+00 3.682074e+01 
4.904370e+00 3.633023e+01 
4.939450e+00 3.584292e+01 
4.973940e+00 3.537178e+01 
5.008430e+00 3.490935e+01 
5.043810e+00 3.444320e+01 
5.078840e+00 3.398990e+01 
5.113500e+00 3.354961e+01 
5.148890e+00 3.311231e+01 
5.184210e+00 3.268404e+01 
5.219060e+00 3.226880e+01 
5.253660e+00 3.186306e+01 
5.288570e+00 3.146092e+01 
5.323420e+00 3.106621e+01 
5.358440e+00 3.067617e+01 
5.393590e+00 3.029156e+01 
5.428310e+00 2.992065e+01 
5.462800e+00 2.955976e+01 
5.497640e+00 2.920139e+01 
5.532670e+00 2.884648e+01 
5.567280e+00 2.850152e+01 
5.602000e+00 2.816124e+01 
5.637270e+00 2.782091e+01 
5.672410e+00 2.748742e+01 
5.707020e+00 2.716439e+01 
5.742040e+00 2.684402e+01 
5.777430e+00 2.652584e+01 
5.812210e+00 2.621825e+01 
5.846820e+00 2.591790e+01 
5.881610e+00 2.562102e+01 
5.916510e+00 2.532796e+01 
5.951600e+00 2.503761e+01 
5.986560e+00 2.475275e+01 
6.021830e+00 2.446992e+01 
6.056490e+00 2.419779e+01 
6.091160e+00 2.393100e+01 
6.125830e+00 2.366830e+01 
6.161090e+00 2.340463e+01 
6.195760e+00 2.314807e+01 
6.230420e+00 2.289546e+01 
6.265690e+00 2.264235e+01 
6.300950e+00 2.239415e+01 
6.335620e+00 2.215378e+01 
6.370880e+00 2.191297e+01 
6.405550e+00 2.168039e+01 
6.440220e+00 2.145149e+01 
6.475480e+00 2.122213e+01 
6.510150e+00 2.099979e+01 
6.544810e+00 2.078047e+01 
6.580080e+00 2.056052e+01 
6.614750e+00 2.034744e+01 
6.649410e+00 2.013827e+01 
6.684080e+00 1.993216e+01 
6.719340e+00 1.972553e+01 
6.754010e+00 1.952511e+01 
6.788680e+00 1.932723e+01 
6.823940e+00 1.912881e+01 
6.859800e+00 1.892987e+01 
6.894470e+00 1.874081e+01 
6.929140e+00 1.855453e+01 
6.963800e+00 1.837086e+01 
6.999070e+00 1.818649e+01 
7.033730e+00 1.800760e+01 
7.068400e+00 1.783107e+01 
7.103660e+00 1.765396e+01 
7.138330e+00 1.748240e+01 
7.173600e+00 1.731070e+01 
7.208260e+00 1.714422e+01 
7.243530e+00 1.697705e+01 
7.277600e+00 1.681761e+01 
7.312860e+00 1.665466e+01 
7.348120e+00 1.649387e+01 
7.382790e+00 1.633783e+01 
7.417460e+00 1.618422e+01 
7.452720e+00 1.603024e+01 
7.487390e+00 1.588079e+01 
7.522650e+00 1.573074e+01 
7.557320e+00 1.558495e+01 
7.591990e+00 1.544094e+01 
7.627250e+00 1.529633e+01 
7.662510e+00 1.515357e+01 
7.697180e+00 1.501483e+01 
7.731850e+00 1.487776e+01 
7.766510e+00 1.474242e+01 
7.801180e+00 1.460872e+01 
7.836440e+00 1.447483e+01 
7.871110e+00 1.434506e+01 
7.906380e+00 1.421466e+01 
7.941040e+00 1.408808e+01 
7.976310e+00 1.396041e+01 
8.011570e+00 1.383383e+01 
8.046240e+00 1.371088e+01 
8.080900e+00 1.358943e+01 
8.115570e+00 1.346966e+01 
8.150830e+00 1.335030e+01 
8.185500e+00 1.323434e+01 
8.220770e+00 1.311777e+01 
8.255430e+00 1.300456e+01 
8.290100e+00 1.289205e+01 
8.324770e+00 1.278077e+01 
8.359430e+00 1.267082e+01 
8.394700e+00 1.256023e+01 
8.429960e+00 1.245118e+01 
8.464630e+00 1.234541e+01 
8.499890e+00 1.223907e+01 
8.534560e+00 1.213572e+01 
8.569200e+00 1.203362e+01 
