# Parameters:
# omega_b = 0.023232, omega_m = 0.145630, n_s = 0.969685, h = 57.598425, w = -1.000000, sigma_8 = 0.848031
# z = 0.100000
#
# k[1/Mpc] # P(k):
8.694000e-04 1.721159e+04 
2.077466e-03 3.697826e+04 
3.285532e-03 5.265068e+04 
4.493598e-03 6.490622e+04 
5.701664e-03 7.416245e+04 
6.909730e-03 8.087008e+04 
8.117797e-03 8.556156e+04 
9.325863e-03 8.850827e+04 
1.053393e-02 8.998217e+04 
1.174199e-02 9.024072e+04 
1.295006e-02 8.944799e+04 
1.415813e-02 8.783444e+04 
1.536619e-02 8.559772e+04 
1.657426e-02 8.277050e+04 
1.778233e-02 7.915208e+04 
1.899039e-02 7.518598e+04 
2.019846e-02 7.164428e+04 
2.140652e-02 6.854431e+04 
2.261459e-02 6.561221e+04 
2.382266e-02 6.279037e+04 
2.503072e-02 6.010822e+04 
2.623879e-02 5.758344e+04 
2.744685e-02 5.522271e+04 
2.865492e-02 5.303926e+04 
2.986299e-02 5.103142e+04 
3.100100e-02 4.929578e+04 
3.220400e-02 4.761778e+04 
3.288100e-02 4.674075e+04 
3.424300e-02 4.511324e+04 
3.555100e-02 4.370074e+04 
3.686000e-02 4.241582e+04 
3.795000e-02 4.143591e+04 
3.929100e-02 4.031567e+04 
4.039800e-02 3.944581e+04 
4.164000e-02 3.852918e+04 
4.294400e-02 3.759723e+04 
4.415000e-02 3.677197e+04 
4.542900e-02 3.590405e+04 
4.660900e-02 3.512094e+04 
4.782300e-02 3.429615e+04 
4.892900e-02 3.355509e+04 
5.031200e-02 3.261832e+04 
5.155900e-02 3.176139e+04 
5.238100e-02 3.119406e+04 
5.378200e-02 3.022799e+04 
5.513400e-02 2.929322e+04 
5.627600e-02 2.850375e+04 
5.735300e-02 2.776710e+04 
5.870100e-02 2.686077e+04 
5.988700e-02 2.608353e+04 
6.113500e-02 2.528526e+04 
6.225900e-02 2.459067e+04 
6.340100e-02 2.390866e+04 
6.480200e-02 2.310827e+04 
6.601100e-02 2.245695e+04 
6.725500e-02 2.182357e+04 
6.829100e-02 2.132889e+04 
6.958600e-02 2.074252e+04 
7.071100e-02 2.027158e+04 
7.192300e-02 1.979953e+04 
7.307400e-02 1.938129e+04 
7.412300e-02 1.902554e+04 
7.550400e-02 1.859733e+04 
7.663100e-02 1.827296e+04 
7.791200e-02 1.793209e+04 
7.912700e-02 1.763409e+04 
8.027600e-02 1.736935e+04 
8.138400e-02 1.712678e+04 
8.272200e-02 1.684673e+04 
8.406100e-02 1.657429e+04 
8.534100e-02 1.631946e+04 
8.653800e-02 1.608067e+04 
8.759800e-02 1.587014e+04 
8.900300e-02 1.558951e+04 
9.009000e-02 1.536596e+04 
9.113300e-02 1.514883e+04 
9.239600e-02 1.488502e+04 
9.358000e-02 1.463309e+04 
9.496100e-02 1.433475e+04 
9.608400e-02 1.409274e+04 
9.727500e-02 1.383815e+04 
9.852600e-02 1.356952e+04 
9.973800e-02 1.331682e+04 
1.009000e-01 1.308138e+04 
1.020900e-01 1.284505e+04 
1.034000e-01 1.259375e+04 
1.046000e-01 1.237173e+04 
1.057200e-01 1.217416e+04 
1.069100e-01 1.197145e+04 
1.082500e-01 1.175453e+04 
1.093900e-01 1.157851e+04 
1.105400e-01 1.140742e+04 
1.116900e-01 1.124620e+04 
1.129600e-01 1.107475e+04 
1.142000e-01 1.091679e+04 
1.153300e-01 1.077779e+04 
1.166400e-01 1.062282e+04 
1.177800e-01 1.049451e+04 
1.190000e-01 1.036197e+04 
1.201200e-01 1.024388e+04 
1.213400e-01 1.011839e+04 
1.227100e-01 9.982646e+03 
1.238900e-01 9.868573e+03 
1.250700e-01 9.756643e+03 
1.263200e-01 9.640801e+03 
1.275500e-01 9.529385e+03 
1.287500e-01 9.421987e+03 
1.299900e-01 9.311639e+03 
1.311300e-01 9.212054e+03 
1.323500e-01 9.107220e+03 
1.335900e-01 9.002003e+03 
1.347100e-01 8.907597e+03 
1.359800e-01 8.802229e+03 
1.372100e-01 8.701212e+03 
1.384300e-01 8.602422e+03 
1.395700e-01 8.510195e+03 
1.407700e-01 8.415004e+03 
1.420300e-01 8.316264e+03 
1.432800e-01 8.220413e+03 
1.444500e-01 8.131260e+03 
1.456300e-01 8.043125e+03 
1.468900e-01 7.951307e+03 
1.480500e-01 7.868583e+03 
1.491700e-01 7.790113e+03 
1.503800e-01 7.706826e+03 
1.516400e-01 7.622154e+03 
1.528200e-01 7.545830e+03 
1.540200e-01 7.469681e+03 
1.551900e-01 7.397810e+03 
1.564300e-01 7.323316e+03 
1.576600e-01 7.251217e+03 
1.588700e-01 7.182079e+03 
1.600900e-01 7.113697e+03 
1.612700e-01 7.049358e+03 
1.625400e-01 6.981388e+03 
1.637600e-01 6.917832e+03 
1.649500e-01 6.857252e+03 
1.662200e-01 6.793732e+03 
1.674000e-01 6.735555e+03 
1.685000e-01 6.682221e+03 
1.697500e-01 6.622574e+03 
1.710300e-01 6.562536e+03 
1.722200e-01 6.507698e+03 
1.734400e-01 6.451598e+03 
1.746400e-01 6.397318e+03 
1.758700e-01 6.342484e+03 
1.770900e-01 6.288735e+03 
1.782700e-01 6.237604e+03 
1.794600e-01 6.186631e+03 
1.807000e-01 6.134225e+03 
1.819100e-01 6.083930e+03 
1.830100e-01 6.038830e+03 
1.842200e-01 5.989967e+03 
1.855000e-01 5.939151e+03 
1.867000e-01 5.892871e+03 
1.879200e-01 5.846562e+03 
1.890900e-01 5.802821e+03 
1.902800e-01 5.758930e+03 
1.915200e-01 5.713905e+03 
1.926900e-01 5.672298e+03 
1.939000e-01 5.630654e+03 
1.951700e-01 5.587625e+03 
1.963100e-01 5.549596e+03 
1.975100e-01 5.510188e+03 
1.987800e-01 5.469116e+03 
2.000100e-01 5.429949e+03 
2.012500e-01 5.391061e+03 
2.023400e-01 5.357359e+03 
2.036100e-01 5.318716e+03 
2.048900e-01 5.280620e+03 
2.060400e-01 5.246888e+03 
2.072200e-01 5.212751e+03 
2.084200e-01 5.178493e+03 
2.096900e-01 5.142761e+03 
2.109200e-01 5.108658e+03 
2.121100e-01 5.075744e+03 
2.132700e-01 5.044074e+03 
2.145200e-01 5.010417e+03 
2.157200e-01 4.978335e+03 
2.168800e-01 4.947635e+03 
2.180700e-01 4.916556e+03 
2.193400e-01 4.883709e+03 
2.206000e-01 4.851328e+03 
2.217500e-01 4.822167e+03 
2.229500e-01 4.792131e+03 
2.241400e-01 4.762429e+03 
2.253500e-01 4.732615e+03 
2.264900e-01 4.704882e+03 
2.277100e-01 4.675584e+03 
2.289900e-01 4.645260e+03 
2.301500e-01 4.618135e+03 
2.313600e-01 4.590195e+03 
2.325600e-01 4.562598e+03 
2.337700e-01 4.535123e+03 
2.350000e-01 4.507548e+03 
2.362000e-01 4.481164e+03 
2.374100e-01 4.455101e+03 
2.386500e-01 4.428729e+03 
2.399100e-01 4.402273e+03 
2.410400e-01 4.378956e+03 
2.422500e-01 4.354299e+03 
2.435000e-01 4.329142e+03 
2.447300e-01 4.304755e+03 
2.458700e-01 4.282653e+03 
2.470600e-01 4.259850e+03 
2.483300e-01 4.235811e+03 
2.495600e-01 4.212926e+03 
2.507600e-01 4.191019e+03 
2.519600e-01 4.169369e+03 
2.532200e-01 4.146908e+03 
2.543700e-01 4.126799e+03 
2.555500e-01 4.106501e+03 
2.568000e-01 4.085250e+03 
2.580100e-01 4.064922e+03 
2.592400e-01 4.044529e+03 
2.604100e-01 4.025367e+03 
2.616100e-01 4.005933e+03 
2.628400e-01 3.986242e+03 
2.640600e-01 3.967215e+03 
2.652200e-01 3.949435e+03 
2.664300e-01 3.931095e+03 
2.676500e-01 3.912811e+03 
2.688400e-01 3.895004e+03 
2.700700e-01 3.876695e+03 
2.712400e-01 3.859471e+03 
2.724800e-01 3.841417e+03 
2.736700e-01 3.824242e+03 
2.748800e-01 3.806927e+03 
2.761000e-01 3.789660e+03 
2.773200e-01 3.772582e+03 
2.785400e-01 3.755702e+03 
2.797000e-01 3.739847e+03 
2.808900e-01 3.723752e+03 
2.821400e-01 3.707028e+03 
2.833900e-01 3.690474e+03 
2.845500e-01 3.674989e+03 
2.857800e-01 3.658740e+03 
2.870300e-01 3.642404e+03 
2.882100e-01 3.627145e+03 
2.893900e-01 3.611952e+03 
2.906300e-01 3.596104e+03 
2.918900e-01 3.580172e+03 
2.930500e-01 3.565655e+03 
2.942500e-01 3.550758e+03 
2.954200e-01 3.536281e+03 
2.966500e-01 3.521216e+03 
2.978900e-01 3.506184e+03 
2.990400e-01 3.492382e+03 
3.002700e-01 3.477671e+03 
3.015100e-01 3.462946e+03 
3.026800e-01 3.449189e+03 
3.038500e-01 3.435564e+03 
3.050300e-01 3.421952e+03 
3.062600e-01 3.407758e+03 
3.075000e-01 3.393591e+03 
3.087000e-01 3.380016e+03 
3.099100e-01 3.366460e+03 
3.111200e-01 3.352999e+03 
3.123100e-01 3.339825e+03 
3.135300e-01 3.326447e+03 
3.147300e-01 3.313415e+03 
3.159900e-01 3.299863e+03 
3.171800e-01 3.287299e+03 
3.183700e-01 3.274925e+03 
3.196300e-01 3.261948e+03 
3.208400e-01 3.249606e+03 
3.220300e-01 3.237580e+03 
3.232000e-01 3.225663e+03 
3.244300e-01 3.213170e+03 
3.256700e-01 3.200694e+03 
3.269200e-01 3.188237e+03 
3.280800e-01 3.176782e+03 
3.292500e-01 3.165485e+03 
3.304800e-01 3.153764e+03 
3.317100e-01 3.142152e+03 
3.328900e-01 3.131113e+03 
3.340700e-01 3.120171e+03 
3.353600e-01 3.108324e+03 
3.365300e-01 3.097679e+03 
3.377100e-01 3.087036e+03 
3.389200e-01 3.076220e+03 
3.401600e-01 3.065235e+03 
3.413700e-01 3.054619e+03 
3.425300e-01 3.044534e+03 
3.437700e-01 3.033848e+03 
3.449800e-01 3.023514e+03 
3.461800e-01 3.013354e+03 
3.473600e-01 3.003429e+03 
3.485800e-01 2.993202e+03 
3.498100e-01 2.982983e+03 
3.510200e-01 2.973017e+03 
3.522000e-01 2.963382e+03 
3.533900e-01 2.953746e+03 
3.546400e-01 2.943812e+03 
3.558400e-01 2.934364e+03 
3.570600e-01 2.924840e+03 
3.582700e-01 2.915475e+03 
3.595000e-01 2.906037e+03 
3.607100e-01 2.896834e+03 
3.618900e-01 2.887934e+03 
3.631200e-01 2.878735e+03 
3.643200e-01 2.869837e+03 
3.655500e-01 2.860792e+03 
3.667300e-01 2.852188e+03 
3.679500e-01 2.843334e+03 
3.691900e-01 2.834411e+03 
3.703600e-01 2.826061e+03 
3.715700e-01 2.817496e+03 
3.727700e-01 2.809072e+03 
3.739900e-01 2.800590e+03 
3.752000e-01 2.792271e+03 
3.763900e-01 2.784156e+03 
3.775800e-01 2.776107e+03 
3.788200e-01 2.767787e+03 
3.800300e-01 2.759736e+03 
3.812100e-01 2.751868e+03 
3.824200e-01 2.743811e+03 
3.836100e-01 2.735950e+03 
3.848600e-01 2.727759e+03 
3.860400e-01 2.720089e+03 
3.872400e-01 2.712350e+03 
3.884600e-01 2.704530e+03 
3.896500e-01 2.696957e+03 
3.908700e-01 2.689254e+03 
3.920600e-01 2.681800e+03 
3.933100e-01 2.674032e+03 
3.945300e-01 2.666510e+03 
3.957200e-01 2.659234e+03 
3.969300e-01 2.651893e+03 
3.981700e-01 2.644429e+03 
3.993500e-01 2.637382e+03 
4.094840e-01 2.578267e+03 
4.272360e-01 2.481551e+03 
4.454600e-01 2.389230e+03 
4.630560e-01 2.306742e+03 
4.804610e-01 2.230130e+03 
4.980690e-01 2.157502e+03 
5.159230e-01 2.088374e+03 
5.317440e-01 2.030308e+03 
5.489640e-01 1.970665e+03 
5.671990e-01 1.910670e+03 
5.838690e-01 1.858660e+03 
6.018840e-01 1.805325e+03 
6.202330e-01 1.753606e+03 
6.379250e-01 1.706216e+03 
6.545410e-01 1.663262e+03 
6.714560e-01 1.621362e+03 
6.892080e-01 1.578954e+03 
7.066010e-01 1.539059e+03 
7.240540e-01 1.500561e+03 
7.420450e-01 1.461896e+03 
7.593780e-01 1.426197e+03 
7.764720e-01 1.392024e+03 
7.942840e-01 1.357689e+03 
8.116170e-01 1.325167e+03 
8.288310e-01 1.293863e+03 
8.462240e-01 1.263134e+03 
8.631980e-01 1.234173e+03 
8.810700e-01 1.204475e+03 
8.989410e-01 1.175767e+03 
9.166330e-01 1.148127e+03 
9.345640e-01 1.120933e+03 
9.515980e-01 1.095856e+03 
9.688720e-01 1.071073e+03 
9.865640e-01 1.046377e+03 
1.031870e+00 9.866808e+02 
1.063490e+00 9.475151e+02 
1.097920e+00 9.070376e+02 
1.134370e+00 8.666454e+02 
1.167730e+00 8.318148e+02 
1.203830e+00 7.961512e+02 
1.240470e+00 7.620461e+02 
1.275790e+00 7.309237e+02 
1.309140e+00 7.031633e+02 
1.342970e+00 6.764407e+02 
1.378420e+00 6.499187e+02 
1.413200e+00 6.252672e+02 
1.448110e+00 6.017705e+02 
1.484090e+00 5.788215e+02 
1.518820e+00 5.577803e+02 
1.552880e+00 5.382009e+02 
1.588630e+00 5.186830e+02 
1.623230e+00 5.007239e+02 
1.657720e+00 4.837116e+02 
1.692450e+00 4.673689e+02 
1.726400e+00 4.521307e+02 
1.762200e+00 4.367967e+02 
1.797880e+00 4.222448e+02 
1.833270e+00 4.085067e+02 
1.869070e+00 3.952106e+02 
1.903200e+00 3.831327e+02 
1.937740e+00 3.714209e+02 
1.973190e+00 3.599124e+02 
2.007440e+00 3.492808e+02 
2.042160e+00 3.389796e+02 
2.077900e+00 3.287645e+02 
2.112390e+00 3.193547e+02 
2.146220e+00 3.104907e+02 
2.181600e+00 3.015749e+02 
2.216930e+00 2.930636e+02 
2.250760e+00 2.852133e+02 
2.286500e+00 2.772282e+02 
2.321770e+00 2.696751e+02 
2.355950e+00 2.626265e+02 
2.391280e+00 2.556452e+02 
2.426240e+00 2.489645e+02 
2.460670e+00 2.426226e+02 
2.495640e+00 2.364329e+02 
2.531080e+00 2.303764e+02 
2.566220e+00 2.245821e+02 
2.600830e+00 2.190868e+02 
2.635080e+00 2.138517e+02 
2.670340e+00 2.086356e+02 
2.705970e+00 2.035452e+02 
2.740040e+00 1.988390e+02 
2.774520e+00 1.942253e+02 
2.809730e+00 1.896863e+02 
2.844390e+00 1.853691e+02 
2.879960e+00 1.810771e+02 
2.914860e+00 1.769987e+02 
2.949410e+00 1.730904e+02 
2.984440e+00 1.692642e+02 
3.019760e+00 1.655248e+02 
3.054730e+00 1.619353e+02 
3.089030e+00 1.585179e+02 
3.124060e+00 1.551312e+02 
3.159560e+00 1.518010e+02 
3.194710e+00 1.486127e+02 
3.229010e+00 1.455944e+02 
3.263320e+00 1.426580e+02 
3.297930e+00 1.397844e+02 
3.332830e+00 1.369783e+02 
3.368040e+00 1.342254e+02 
3.403300e+00 1.315446e+02 
3.438450e+00 1.289452e+02 
3.473060e+00 1.264551e+02 
3.508440e+00 1.239904e+02 
3.543110e+00 1.216398e+02 
3.577470e+00 1.193699e+02 
3.613040e+00 1.170847e+02 
3.648120e+00 1.148986e+02 
3.682910e+00 1.127858e+02 
3.718050e+00 1.107050e+02 
3.753320e+00 1.086741e+02 
3.787980e+00 1.067347e+02 
3.822290e+00 1.048614e+02 
3.857020e+00 1.030108e+02 
3.891920e+00 1.011960e+02 
3.926650e+00 9.943299e+01 
3.961970e+00 9.768586e+01 
3.997360e+00 9.598376e+01 
4.031670e+00 9.437416e+01 
4.066330e+00 9.279289e+01 
4.101420e+00 9.122909e+01 
4.136200e+00 8.971409e+01 
4.170810e+00 8.824075e+01 
4.206250e+00 8.677260e+01 
4.241580e+00 8.534351e+01 
4.276300e+00 8.396961e+01 
4.310970e+00 8.262740e+01 
4.346120e+00 8.129919e+01 
4.380600e+00 8.002905e+01 
4.414730e+00 7.879854e+01 
4.450350e+00 7.754150e+01 
4.485320e+00 7.633405e+01 
4.519810e+00 7.517219e+01 
4.555430e+00 7.399935e+01 
4.590870e+00 7.285697e+01 
4.625480e+00 7.176401e+01 
4.659910e+00 7.069889e+01 
4.695230e+00 6.963364e+01 
4.729960e+00 6.860829e+01 
4.764450e+00 6.761203e+01 
4.799530e+00 6.662171e+01 
4.834910e+00 6.564294e+01 
4.869700e+00 6.470361e+01 
4.904370e+00 6.378642e+01 
4.939450e+00 6.287611e+01 
4.973940e+00 6.199760e+01 
5.008430e+00 6.113577e+01 
5.043810e+00 6.026834e+01 
5.078840e+00 5.942578e+01 
5.113500e+00 5.860784e+01 
5.148890e+00 5.779638e+01 
5.184210e+00 5.700211e+01 
5.219060e+00 5.623275e+01 
5.253660e+00 5.548228e+01 
5.288570e+00 5.473885e+01 
5.323420e+00 5.400989e+01 
5.358440e+00 5.329032e+01 
5.393590e+00 5.258110e+01 
5.428310e+00 5.189772e+01 
5.462800e+00 5.123321e+01 
5.497640e+00 5.057367e+01 
5.532670e+00 4.992137e+01 
5.567280e+00 4.928783e+01 
5.602000e+00 4.866318e+01 
5.637270e+00 4.803922e+01 
5.672410e+00 4.742820e+01 
5.707020e+00 4.683663e+01 
5.742040e+00 4.625053e+01 
5.777430e+00 4.566877e+01 
5.812210e+00 4.510664e+01 
5.846820e+00 4.455819e+01 
5.881610e+00 4.401636e+01 
5.916510e+00 4.348173e+01 
5.951600e+00 4.295256e+01 
5.986560e+00 4.243376e+01 
6.021830e+00 4.191889e+01 
6.056490e+00 4.142372e+01 
6.091160e+00 4.093851e+01 
6.125830e+00 4.046094e+01 
6.161090e+00 3.998196e+01 
6.195760e+00 3.951635e+01 
6.230420e+00 3.905813e+01 
6.265690e+00 3.859921e+01 
6.300950e+00 3.814956e+01 
6.335620e+00 3.771427e+01 
6.370880e+00 3.727839e+01 
6.405550e+00 3.685757e+01 
6.440220e+00 3.644361e+01 
6.475480e+00 3.602897e+01 
6.510150e+00 3.562729e+01 
6.544810e+00 3.523142e+01 
6.580080e+00 3.483460e+01 
6.614750e+00 3.445034e+01 
6.649410e+00 3.407328e+01 
6.684080e+00 3.370189e+01 
6.719340e+00 3.332972e+01 
6.754010e+00 3.296896e+01 
6.788680e+00 3.261304e+01 
6.823940e+00 3.225630e+01 
6.859800e+00 3.189880e+01 
6.894470e+00 3.155919e+01 
6.929140e+00 3.122477e+01 
6.963800e+00 3.089514e+01 
6.999070e+00 3.056443e+01 
7.033730e+00 3.024375e+01 
7.068400e+00 2.992744e+01 
7.103660e+00 2.961023e+01 
7.138330e+00 2.930310e+01 
7.173600e+00 2.899587e+01 
7.208260e+00 2.869810e+01 
7.243530e+00 2.839924e+01 
7.277600e+00 2.811436e+01 
7.312860e+00 2.782341e+01 
7.348120e+00 2.753644e+01 
7.382790e+00 2.725807e+01 
7.417460e+00 2.698413e+01 
7.452720e+00 2.670963e+01 
7.487390e+00 2.644331e+01 
7.522650e+00 2.617604e+01 
7.557320e+00 2.591656e+01 
7.591990e+00 2.566040e+01 
7.627250e+00 2.540330e+01 
7.662510e+00 2.514957e+01 
7.697180e+00 2.490320e+01 
7.731850e+00 2.465994e+01 
7.766510e+00 2.441985e+01 
7.801180e+00 2.418277e+01 
7.836440e+00 2.394545e+01 
7.871110e+00 2.371552e+01 
7.906380e+00 2.348458e+01 
7.941040e+00 2.326050e+01 
7.976310e+00 2.303468e+01 
8.011570e+00 2.281099e+01 
8.046240e+00 2.259381e+01 
8.080900e+00 2.237937e+01 
8.115570e+00 2.216798e+01 
8.150830e+00 2.195736e+01 
8.185500e+00 2.175280e+01 
8.220770e+00 2.154726e+01 
8.255430e+00 2.134774e+01 
8.290100e+00 2.114970e+01 
8.324770e+00 2.095394e+01 
8.359430e+00 2.076059e+01 
8.394700e+00 2.056621e+01 
8.429960e+00 2.037464e+01 
8.464630e+00 2.018893e+01 
8.499890e+00 2.000232e+01 
8.534560e+00 1.982101e+01 
8.569200e+00 1.964198e+01 
