# Parameters:
# omega_b = 0.022161, omega_m = 0.130197, n_s = 0.982283, h = 63.740157, w = -1.000000, sigma_8 = 0.715748
# z = 0.100000
#
# k[1/Mpc] # P(k):
8.694000e-04 1.399661e+04 
2.077466e-03 3.011517e+04 
3.285532e-03 4.261284e+04 
4.493598e-03 5.206828e+04 
5.701664e-03 5.895816e+04 
6.909730e-03 6.370828e+04 
8.117797e-03 6.679076e+04 
9.325863e-03 6.845548e+04 
1.053393e-02 6.895149e+04 
1.174199e-02 6.851221e+04 
1.295006e-02 6.728432e+04 
1.415813e-02 6.546280e+04 
1.536619e-02 6.321459e+04 
1.657426e-02 6.060356e+04 
1.778233e-02 5.758815e+04 
1.899039e-02 5.445291e+04 
2.019846e-02 5.157246e+04 
2.140652e-02 4.895714e+04 
2.261459e-02 4.649405e+04 
2.382266e-02 4.417403e+04 
2.503072e-02 4.201811e+04 
2.623879e-02 4.003391e+04 
2.744685e-02 3.822483e+04 
2.865492e-02 3.658867e+04 
2.986299e-02 3.511655e+04 
3.100100e-02 3.387332e+04 
3.220400e-02 3.269678e+04 
3.288100e-02 3.209329e+04 
3.424300e-02 3.099050e+04 
3.555100e-02 3.004923e+04 
3.686000e-02 2.920388e+04 
3.795000e-02 2.856324e+04 
3.929100e-02 2.783035e+04 
4.039800e-02 2.725623e+04 
4.164000e-02 2.664379e+04 
4.294400e-02 2.600402e+04 
4.415000e-02 2.542519e+04 
4.542900e-02 2.479653e+04 
4.660900e-02 2.421655e+04 
4.782300e-02 2.358781e+04 
4.892900e-02 2.301308e+04 
5.031200e-02 2.227498e+04 
5.155900e-02 2.159154e+04 
5.238100e-02 2.113679e+04 
5.378200e-02 2.036050e+04 
5.513400e-02 1.961098e+04 
5.627600e-02 1.898230e+04 
5.735300e-02 1.840082e+04 
5.870100e-02 1.769434e+04 
5.988700e-02 1.709782e+04 
6.113500e-02 1.649625e+04 
6.225900e-02 1.598349e+04 
6.340100e-02 1.549112e+04 
6.480200e-02 1.492622e+04 
6.601100e-02 1.448048e+04 
6.725500e-02 1.405902e+04 
6.829100e-02 1.374012e+04 
6.958600e-02 1.337082e+04 
7.071100e-02 1.308309e+04 
7.192300e-02 1.280173e+04 
7.307400e-02 1.255788e+04 
7.412300e-02 1.235397e+04 
7.550400e-02 1.211252e+04 
7.663100e-02 1.193070e+04 
7.791200e-02 1.173865e+04 
7.912700e-02 1.156733e+04 
8.027600e-02 1.141091e+04 
8.138400e-02 1.126307e+04 
8.272200e-02 1.108506e+04 
8.406100e-02 1.090342e+04 
8.534100e-02 1.072383e+04 
8.653800e-02 1.054837e+04 
8.759800e-02 1.038981e+04 
8.900300e-02 1.017335e+04 
9.009000e-02 9.998196e+03 
9.113300e-02 9.826472e+03 
9.239600e-02 9.617313e+03 
9.358000e-02 9.418012e+03 
9.496100e-02 9.183861e+03 
9.608400e-02 8.995762e+03 
9.727500e-02 8.799545e+03 
9.852600e-02 8.597040e+03 
9.973800e-02 8.408826e+03 
1.009000e-01 8.235386e+03 
1.020900e-01 8.066602e+03 
1.034000e-01 7.889717e+03 
1.046000e-01 7.736108e+03 
1.057200e-01 7.603752e+03 
1.069100e-01 7.469550e+03 
1.082500e-01 7.330346e+03 
1.093900e-01 7.219897e+03 
1.105400e-01 7.114022e+03 
1.116900e-01 7.017136e+03 
1.129600e-01 6.914952e+03 
1.142000e-01 6.822601e+03 
1.153300e-01 6.741542e+03 
1.166400e-01 6.651498e+03 
1.177800e-01 6.576388e+03 
1.190000e-01 6.498547e+03 
1.201200e-01 6.427196e+03 
1.213400e-01 6.351021e+03 
1.227100e-01 6.264774e+03 
1.238900e-01 6.191401e+03 
1.250700e-01 6.116478e+03 
1.263200e-01 6.037795e+03 
1.275500e-01 5.959582e+03 
1.287500e-01 5.883137e+03 
1.299900e-01 5.802948e+03 
1.311300e-01 5.729897e+03 
1.323500e-01 5.651969e+03 
1.335900e-01 5.573605e+03 
1.347100e-01 5.503087e+03 
1.359800e-01 5.424592e+03 
1.372100e-01 5.349719e+03 
1.384300e-01 5.276933e+03 
1.395700e-01 5.209955e+03 
1.407700e-01 5.141012e+03 
1.420300e-01 5.071087e+03 
1.432800e-01 5.003241e+03 
1.444500e-01 4.941928e+03 
1.456300e-01 4.881339e+03 
1.468900e-01 4.819426e+03 
1.480500e-01 4.764015e+03 
1.491700e-01 4.712003e+03 
1.503800e-01 4.657495e+03 
1.516400e-01 4.602249e+03 
1.528200e-01 4.553153e+03 
1.540200e-01 4.504175e+03 
1.551900e-01 4.458344e+03 
1.564300e-01 4.410940e+03 
1.576600e-01 4.365129e+03 
1.588700e-01 4.321279e+03 
1.600900e-01 4.277903e+03 
1.612700e-01 4.236949e+03 
1.625400e-01 4.193686e+03 
1.637600e-01 4.152998e+03 
1.649500e-01 4.114079e+03 
1.662200e-01 4.073191e+03 
1.674000e-01 4.035295e+03 
1.685000e-01 4.000554e+03 
1.697500e-01 3.961422e+03 
1.710300e-01 3.921753e+03 
1.722200e-01 3.885523e+03 
1.734400e-01 3.847968e+03 
1.746400e-01 3.811614e+03 
1.758700e-01 3.774771e+03 
1.770900e-01 3.738411e+03 
1.782700e-01 3.703828e+03 
1.794600e-01 3.669206e+03 
1.807000e-01 3.633516e+03 
1.819100e-01 3.599269e+03 
1.830100e-01 3.568512e+03 
1.842200e-01 3.535184e+03 
1.855000e-01 3.500532e+03 
1.867000e-01 3.468983e+03 
1.879200e-01 3.437418e+03 
1.890900e-01 3.407638e+03 
1.902800e-01 3.377914e+03 
1.915200e-01 3.347425e+03 
1.926900e-01 3.319294e+03 
1.939000e-01 3.291268e+03 
1.951700e-01 3.262313e+03 
1.963100e-01 3.236793e+03 
1.975100e-01 3.210535e+03 
1.987800e-01 3.183169e+03 
2.000100e-01 3.157141e+03 
2.012500e-01 3.131458e+03 
2.023400e-01 3.109200e+03 
2.036100e-01 3.083713e+03 
2.048900e-01 3.058719e+03 
2.060400e-01 3.036587e+03 
2.072200e-01 3.014198e+03 
2.084200e-01 2.991836e+03 
2.096900e-01 2.968512e+03 
2.109200e-01 2.946250e+03 
2.121100e-01 2.924851e+03 
2.132700e-01 2.904265e+03 
2.145200e-01 2.882387e+03 
2.157200e-01 2.861551e+03 
2.168800e-01 2.841620e+03 
2.180700e-01 2.821444e+03 
2.193400e-01 2.800124e+03 
2.206000e-01 2.779113e+03 
2.217500e-01 2.760192e+03 
2.229500e-01 2.740703e+03 
2.241400e-01 2.721419e+03 
2.253500e-01 2.702060e+03 
2.264900e-01 2.684054e+03 
2.277100e-01 2.665018e+03 
2.289900e-01 2.645300e+03 
2.301500e-01 2.627663e+03 
2.313600e-01 2.609496e+03 
2.325600e-01 2.591537e+03 
2.337700e-01 2.573658e+03 
2.350000e-01 2.555715e+03 
2.362000e-01 2.538525e+03 
2.374100e-01 2.521518e+03 
2.386500e-01 2.504310e+03 
2.399100e-01 2.487047e+03 
2.410400e-01 2.471820e+03 
2.422500e-01 2.455716e+03 
2.435000e-01 2.439286e+03 
2.447300e-01 2.423355e+03 
2.458700e-01 2.408902e+03 
2.470600e-01 2.393990e+03 
2.483300e-01 2.378268e+03 
2.495600e-01 2.363300e+03 
2.507600e-01 2.348969e+03 
2.519600e-01 2.334804e+03 
2.532200e-01 2.320108e+03 
2.543700e-01 2.306956e+03 
2.555500e-01 2.293684e+03 
2.568000e-01 2.279786e+03 
2.580100e-01 2.266491e+03 
2.592400e-01 2.253173e+03 
2.604100e-01 2.240667e+03 
2.616100e-01 2.227982e+03 
2.628400e-01 2.215128e+03 
2.640600e-01 2.202705e+03 
2.652200e-01 2.191095e+03 
2.664300e-01 2.179116e+03 
2.676500e-01 2.167173e+03 
2.688400e-01 2.155581e+03 
2.700700e-01 2.143686e+03 
2.712400e-01 2.132493e+03 
2.724800e-01 2.120760e+03 
2.736700e-01 2.109617e+03 
2.748800e-01 2.098403e+03 
2.761000e-01 2.087219e+03 
2.773200e-01 2.076154e+03 
2.785400e-01 2.065226e+03 
2.797000e-01 2.054980e+03 
2.808900e-01 2.044577e+03 
2.821400e-01 2.033764e+03 
2.833900e-01 2.023063e+03 
2.845500e-01 2.013112e+03 
2.857800e-01 2.002667e+03 
2.870300e-01 1.992166e+03 
2.882100e-01 1.982354e+03 
2.893900e-01 1.972609e+03 
2.906300e-01 1.962456e+03 
2.918900e-01 1.952247e+03 
2.930500e-01 1.942944e+03 
2.942500e-01 1.933405e+03 
2.954200e-01 1.924167e+03 
2.966500e-01 1.914552e+03 
2.978900e-01 1.904957e+03 
2.990400e-01 1.896146e+03 
3.002700e-01 1.886777e+03 
3.015100e-01 1.877409e+03 
3.026800e-01 1.868657e+03 
3.038500e-01 1.859986e+03 
3.050300e-01 1.851324e+03 
3.062600e-01 1.842350e+03 
3.075000e-01 1.833392e+03 
3.087000e-01 1.824807e+03 
3.099100e-01 1.816232e+03 
3.111200e-01 1.807725e+03 
3.123100e-01 1.799412e+03 
3.135300e-01 1.790969e+03 
3.147300e-01 1.782743e+03 
3.159900e-01 1.774188e+03 
3.171800e-01 1.766252e+03 
3.183700e-01 1.758431e+03 
3.196300e-01 1.750229e+03 
3.208400e-01 1.742426e+03 
3.220300e-01 1.734822e+03 
3.232000e-01 1.727341e+03 
3.244300e-01 1.719520e+03 
3.256700e-01 1.711707e+03 
3.269200e-01 1.703906e+03 
3.280800e-01 1.696731e+03 
3.292500e-01 1.689643e+03 
3.304800e-01 1.682285e+03 
3.317100e-01 1.674995e+03 
3.328900e-01 1.668062e+03 
3.340700e-01 1.661190e+03 
3.353600e-01 1.653772e+03 
3.365300e-01 1.647114e+03 
3.377100e-01 1.640457e+03 
3.389200e-01 1.633690e+03 
3.401600e-01 1.626816e+03 
3.413700e-01 1.620188e+03 
3.425300e-01 1.613902e+03 
3.437700e-01 1.607240e+03 
3.449800e-01 1.600796e+03 
3.461800e-01 1.594459e+03 
3.473600e-01 1.588273e+03 
3.485800e-01 1.581914e+03 
3.498100e-01 1.575557e+03 
3.510200e-01 1.569357e+03 
3.522000e-01 1.563361e+03 
3.533900e-01 1.557364e+03 
3.546400e-01 1.551210e+03 
3.558400e-01 1.545358e+03 
3.570600e-01 1.539457e+03 
3.582700e-01 1.533654e+03 
3.595000e-01 1.527803e+03 
3.607100e-01 1.522110e+03 
3.618900e-01 1.516615e+03 
3.631200e-01 1.510933e+03 
3.643200e-01 1.505436e+03 
3.655500e-01 1.499847e+03 
3.667300e-01 1.494528e+03 
3.679500e-01 1.489095e+03 
3.691900e-01 1.483619e+03 
3.703600e-01 1.478493e+03 
3.715700e-01 1.473233e+03 
3.727700e-01 1.468059e+03 
3.739900e-01 1.462850e+03 
3.752000e-01 1.457744e+03 
3.763900e-01 1.452762e+03 
3.775800e-01 1.447819e+03 
3.788200e-01 1.442708e+03 
3.800300e-01 1.437761e+03 
3.812100e-01 1.432955e+03 
3.824200e-01 1.428052e+03 
3.836100e-01 1.423267e+03 
3.848600e-01 1.418280e+03 
3.860400e-01 1.413609e+03 
3.872400e-01 1.408894e+03 
3.884600e-01 1.404154e+03 
3.896500e-01 1.399570e+03 
3.908700e-01 1.394907e+03 
3.920600e-01 1.390394e+03 
3.933100e-01 1.385689e+03 
3.945300e-01 1.381132e+03 
3.957200e-01 1.376732e+03 
3.969300e-01 1.372295e+03 
3.981700e-01 1.367783e+03 
3.993500e-01 1.363521e+03 
4.094840e-01 1.327988e+03 
4.272360e-01 1.270488e+03 
4.454600e-01 1.216324e+03 
4.630560e-01 1.168404e+03 
4.804610e-01 1.124465e+03 
4.980690e-01 1.083208e+03 
5.159230e-01 1.044367e+03 
5.317440e-01 1.012039e+03 
5.489640e-01 9.791899e+02 
5.671990e-01 9.465861e+02 
5.838690e-01 9.186368e+02 
6.018840e-01 8.902915e+02 
6.202330e-01 8.632242e+02 
6.379250e-01 8.386692e+02 
6.545410e-01 8.167760e+02 
6.714560e-01 7.956262e+02 
6.892080e-01 7.745314e+02 
7.066010e-01 7.548988e+02 
7.240540e-01 7.361458e+02 
7.420450e-01 7.175634e+02 
7.593780e-01 7.005693e+02 
7.764720e-01 6.844351e+02 
7.942840e-01 6.683691e+02 
8.116170e-01 6.532583e+02 
8.288310e-01 6.388293e+02 
8.462240e-01 6.247371e+02 
8.631980e-01 6.115317e+02 
8.810700e-01 5.980441e+02 
8.989410e-01 5.850496e+02 
9.166330e-01 5.725790e+02 
9.345640e-01 5.603418e+02 
9.515980e-01 5.490718e+02 
9.688720e-01 5.379531e+02 
9.865640e-01 5.268754e+02 
1.031870e+00 5.001165e+02 
1.063490e+00 4.825294e+02 
1.097920e+00 4.643224e+02 
1.134370e+00 4.460766e+02 
1.167730e+00 4.302839e+02 
1.203830e+00 4.140312e+02 
1.240470e+00 3.984158e+02 
1.275790e+00 3.840816e+02 
1.309140e+00 3.712230e+02 
1.342970e+00 3.587764e+02 
1.378420e+00 3.463570e+02 
1.413200e+00 3.347342e+02 
1.448110e+00 3.235941e+02 
1.484090e+00 3.126471e+02 
1.518820e+00 3.025512e+02 
1.552880e+00 2.930976e+02 
1.588630e+00 2.836264e+02 
1.623230e+00 2.748599e+02 
1.657720e+00 2.665145e+02 
1.692450e+00 2.584593e+02 
1.726400e+00 2.508994e+02 
1.762200e+00 2.432549e+02 
1.797880e+00 2.359596e+02 
1.833270e+00 2.290431e+02 
1.869070e+00 2.223090e+02 
1.903200e+00 2.161671e+02 
1.937740e+00 2.101843e+02 
1.973190e+00 2.042780e+02 
2.007440e+00 1.987981e+02 
2.042160e+00 1.934663e+02 
2.077900e+00 1.881542e+02 
2.112390e+00 1.832443e+02 
2.146220e+00 1.785973e+02 
2.181600e+00 1.739045e+02 
2.216930e+00 1.694090e+02 
2.250760e+00 1.652464e+02 
2.286500e+00 1.609967e+02 
2.321770e+00 1.569639e+02 
2.355950e+00 1.531868e+02 
2.391280e+00 1.494325e+02 
2.426240e+00 1.458263e+02 
2.460670e+00 1.423924e+02 
2.495640e+00 1.390319e+02 
2.531080e+00 1.357307e+02 
2.566220e+00 1.325628e+02 
2.600830e+00 1.295504e+02 
2.635080e+00 1.266738e+02 
2.670340e+00 1.237963e+02 
2.705970e+00 1.209808e+02 
2.740040e+00 1.183713e+02 
2.774520e+00 1.158051e+02 
2.809730e+00 1.132742e+02 
2.844390e+00 1.108618e+02 
2.879960e+00 1.084565e+02 
2.914860e+00 1.061642e+02 
2.949410e+00 1.039634e+02 
2.984440e+00 1.018035e+02 
3.019760e+00 9.968744e+01 
3.054730e+00 9.765262e+01 
3.089030e+00 9.570870e+01 
3.124060e+00 9.377902e+01 
3.159560e+00 9.187754e+01 
3.194710e+00 9.005286e+01 
3.229010e+00 8.832326e+01 
3.263320e+00 8.663551e+01 
3.297930e+00 8.498172e+01 
3.332830e+00 8.336362e+01 
3.368040e+00 8.177308e+01 
3.403300e+00 8.022174e+01 
3.438450e+00 7.871382e+01 
3.473060e+00 7.726783e+01 
3.508440e+00 7.583296e+01 
3.543110e+00 7.446326e+01 
3.577470e+00 7.313737e+01 
3.613040e+00 7.180122e+01 
3.648120e+00 7.052058e+01 
3.682910e+00 6.928139e+01 
3.718050e+00 6.805881e+01 
3.753320e+00 6.686408e+01 
3.787980e+00 6.572139e+01 
3.822290e+00 6.461636e+01 
3.857020e+00 6.352287e+01 
3.891920e+00 6.244941e+01 
3.926650e+00 6.140492e+01 
3.961970e+00 6.036889e+01 
3.997360e+00 5.935790e+01 
4.031670e+00 5.840120e+01 
4.066330e+00 5.745981e+01 
4.101420e+00 5.652841e+01 
4.136200e+00 5.562426e+01 
4.170810e+00 5.474464e+01 
4.206250e+00 5.386675e+01 
4.241580e+00 5.301170e+01 
4.276300e+00 5.218858e+01 
4.310970e+00 5.138372e+01 
4.346120e+00 5.058662e+01 
4.380600e+00 4.982349e+01 
4.414730e+00 4.908390e+01 
4.450350e+00 4.832713e+01 
4.485320e+00 4.759996e+01 
4.519810e+00 4.689948e+01 
4.555430e+00 4.619192e+01 
4.590870e+00 4.550224e+01 
4.625480e+00 4.484162e+01 
4.659910e+00 4.419764e+01 
4.695230e+00 4.355287e+01 
4.729960e+00 4.293199e+01 
4.764450e+00 4.232835e+01 
4.799530e+00 4.172780e+01 
4.834910e+00 4.113408e+01 
4.869700e+00 4.056370e+01 
4.904370e+00 4.000654e+01 
4.939450e+00 3.945328e+01 
4.973940e+00 3.891888e+01 
5.008430e+00 3.839448e+01 
5.043810e+00 3.786625e+01 
5.078840e+00 3.735287e+01 
5.113500e+00 3.685435e+01 
5.148890e+00 3.635952e+01 
5.184210e+00 3.587504e+01 
5.219060e+00 3.540553e+01 
5.253660e+00 3.494713e+01 
5.288570e+00 3.449292e+01 
5.323420e+00 3.404734e+01 
5.358440e+00 3.360728e+01 
5.393590e+00 3.317345e+01 
5.428310e+00 3.275527e+01 
5.462800e+00 3.234851e+01 
5.497640e+00 3.194469e+01 
5.532670e+00 3.154507e+01 
5.567280e+00 3.115679e+01 
5.602000e+00 3.077388e+01 
5.637270e+00 3.039117e+01 
5.672410e+00 3.001629e+01 
5.707020e+00 2.965324e+01 
5.742040e+00 2.929342e+01 
5.777430e+00 2.893616e+01 
5.812210e+00 2.859087e+01 
5.846820e+00 2.825388e+01 
5.881610e+00 2.792089e+01 
5.916510e+00 2.759224e+01 
5.951600e+00 2.726682e+01 
5.986560e+00 2.694769e+01 
6.021830e+00 2.663090e+01 
6.056490e+00 2.632619e+01 
6.091160e+00 2.602756e+01 
6.125830e+00 2.573357e+01 
6.161090e+00 2.543863e+01 
6.195760e+00 2.515180e+01 
6.230420e+00 2.486947e+01 
6.265690e+00 2.458663e+01 
6.300950e+00 2.430946e+01 
6.335620e+00 2.404107e+01 
6.370880e+00 2.377225e+01 
6.405550e+00 2.351273e+01 
6.440220e+00 2.325739e+01 
6.475480e+00 2.300157e+01 
6.510150e+00 2.275369e+01 
6.544810e+00 2.250931e+01 
6.580080e+00 2.226428e+01 
6.614750e+00 2.202695e+01 
6.649410e+00 2.179408e+01 
6.684080e+00 2.156468e+01 
6.719340e+00 2.133473e+01 
6.754010e+00 2.111178e+01 
6.788680e+00 2.089178e+01 
6.823940e+00 2.067121e+01 
6.859800e+00 2.045011e+01 
6.894470e+00 2.024008e+01 
6.929140e+00 2.003322e+01 
6.963800e+00 1.982928e+01 
6.999070e+00 1.962461e+01 
7.033730e+00 1.942616e+01 
7.068400e+00 1.923035e+01 
7.103660e+00 1.903395e+01 
7.138330e+00 1.884375e+01 
7.173600e+00 1.865348e+01 
7.208260e+00 1.846902e+01 
7.243530e+00 1.828384e+01 
7.277600e+00 1.810730e+01 
7.312860e+00 1.792696e+01 
7.348120e+00 1.774904e+01 
7.382790e+00 1.757641e+01 
7.417460e+00 1.740654e+01 
7.452720e+00 1.723631e+01 
7.487390e+00 1.707111e+01 
7.522650e+00 1.690528e+01 
7.557320e+00 1.674425e+01 
7.591990e+00 1.658525e+01 
7.627250e+00 1.642562e+01 
7.662510e+00 1.626804e+01 
7.697180e+00 1.611500e+01 
7.731850e+00 1.596386e+01 
7.766510e+00 1.581465e+01 
7.801180e+00 1.566727e+01 
7.836440e+00 1.551974e+01 
7.871110e+00 1.537680e+01 
7.906380e+00 1.523319e+01 
7.941040e+00 1.509381e+01 
7.976310e+00 1.495330e+01 
8.011570e+00 1.481407e+01 
8.046240e+00 1.467886e+01 
8.080900e+00 1.454532e+01 
8.115570e+00 1.441365e+01 
8.150830e+00 1.428250e+01 
8.185500e+00 1.415510e+01 
8.220770e+00 1.402704e+01 
8.255430e+00 1.390270e+01 
8.290100e+00 1.377924e+01 
8.324770e+00 1.365716e+01 
8.359430e+00 1.353655e+01 
8.394700e+00 1.341527e+01 
8.429960e+00 1.329572e+01 
8.464630e+00 1.317982e+01 
8.499890e+00 1.306332e+01 
8.534560e+00 1.295009e+01 
8.569200e+00 1.283826e+01 
