# Parameters:
# omega_b = 0.021531, omega_m = 0.133780, n_s = 0.897244, h = 79.330709, w = -1.000000, sigma_8 = 0.748819
# z = 0.100000
#
# k[1/Mpc] # P(k):
8.694000e-04 1.589072e+04 
2.077466e-03 3.171168e+04 
3.285532e-03 4.329196e+04 
4.493598e-03 5.168245e+04 
5.701664e-03 5.753772e+04 
6.909730e-03 6.137051e+04 
8.117797e-03 6.368146e+04 
9.325863e-03 6.473219e+04 
1.053393e-02 6.476558e+04 
1.174199e-02 6.399882e+04 
1.295006e-02 6.256974e+04 
1.415813e-02 6.065580e+04 
1.536619e-02 5.840516e+04 
1.657426e-02 5.598121e+04 
1.778233e-02 5.367382e+04 
1.899039e-02 5.144438e+04 
2.019846e-02 4.892781e+04 
2.140652e-02 4.623269e+04 
2.261459e-02 4.359981e+04 
2.382266e-02 4.113702e+04 
2.503072e-02 3.887476e+04 
2.623879e-02 3.681667e+04 
2.744685e-02 3.496363e+04 
2.865492e-02 3.330748e+04 
2.986299e-02 3.183548e+04 
3.100100e-02 3.061011e+04 
3.220400e-02 2.946792e+04 
3.288100e-02 2.889135e+04 
3.424300e-02 2.785435e+04 
3.555100e-02 2.698869e+04 
3.686000e-02 2.622959e+04 
3.795000e-02 2.566584e+04 
3.929100e-02 2.503451e+04 
4.039800e-02 2.454585e+04 
4.164000e-02 2.402729e+04 
4.294400e-02 2.348236e+04 
4.415000e-02 2.298389e+04 
4.542900e-02 2.242973e+04 
4.660900e-02 2.190857e+04 
4.782300e-02 2.132629e+04 
4.892900e-02 2.078364e+04 
5.031200e-02 2.007187e+04 
5.155900e-02 1.939996e+04 
5.238100e-02 1.894791e+04 
5.378200e-02 1.816958e+04 
5.513400e-02 1.741311e+04 
5.627600e-02 1.677775e+04 
5.735300e-02 1.619134e+04 
5.870100e-02 1.548258e+04 
5.988700e-02 1.488912e+04 
6.113500e-02 1.429708e+04 
6.225900e-02 1.379893e+04 
6.340100e-02 1.332753e+04 
6.480200e-02 1.279489e+04 
6.601100e-02 1.238316e+04 
6.725500e-02 1.200109e+04 
6.829100e-02 1.171794e+04 
6.958600e-02 1.139513e+04 
7.071100e-02 1.114841e+04 
7.192300e-02 1.091089e+04 
7.307400e-02 1.070787e+04 
7.412300e-02 1.053986e+04 
7.550400e-02 1.034287e+04 
7.663100e-02 1.019508e+04 
7.791200e-02 1.003877e+04 
7.912700e-02 9.898227e+03 
8.027600e-02 9.768671e+03 
8.138400e-02 9.645011e+03 
8.272200e-02 9.494332e+03 
8.406100e-02 9.338776e+03 
8.534100e-02 9.183188e+03 
8.653800e-02 9.030084e+03 
8.759800e-02 8.891174e+03 
8.900300e-02 8.700814e+03 
9.009000e-02 8.546339e+03 
9.113300e-02 8.394362e+03 
9.239600e-02 8.208807e+03 
9.358000e-02 8.031427e+03 
9.496100e-02 7.821834e+03 
9.608400e-02 7.652711e+03 
9.727500e-02 7.475708e+03 
9.852600e-02 7.291195e+03 
9.973800e-02 7.118947e+03 
1.009000e-01 6.959602e+03 
1.020900e-01 6.803257e+03 
1.034000e-01 6.639136e+03 
1.046000e-01 6.496309e+03 
1.057200e-01 6.373197e+03 
1.069100e-01 6.248588e+03 
1.082500e-01 6.120104e+03 
1.093900e-01 6.019085e+03 
1.105400e-01 5.922811e+03 
1.116900e-01 5.836439e+03 
1.129600e-01 5.746047e+03 
1.142000e-01 5.666297e+03 
1.153300e-01 5.597117e+03 
1.166400e-01 5.521551e+03 
1.177800e-01 5.459529e+03 
1.190000e-01 5.395733e+03 
1.201200e-01 5.337861e+03 
1.213400e-01 5.276183e+03 
1.227100e-01 5.206345e+03 
1.238900e-01 5.146794e+03 
1.250700e-01 5.085491e+03 
1.263200e-01 5.020789e+03 
1.275500e-01 4.955770e+03 
1.287500e-01 4.891767e+03 
1.299900e-01 4.823929e+03 
1.311300e-01 4.761687e+03 
1.323500e-01 4.694630e+03 
1.335900e-01 4.626799e+03 
1.347100e-01 4.565236e+03 
1.359800e-01 4.496454e+03 
1.372100e-01 4.430321e+03 
1.384300e-01 4.365898e+03 
1.395700e-01 4.306268e+03 
1.407700e-01 4.244881e+03 
1.420300e-01 4.182307e+03 
1.432800e-01 4.121621e+03 
1.444500e-01 4.066707e+03 
1.456300e-01 4.012464e+03 
1.468900e-01 3.957151e+03 
1.480500e-01 3.907692e+03 
1.491700e-01 3.861422e+03 
1.503800e-01 3.813125e+03 
1.516400e-01 3.764270e+03 
1.528200e-01 3.721224e+03 
1.540200e-01 3.678290e+03 
1.551900e-01 3.638535e+03 
1.564300e-01 3.597523e+03 
1.576600e-01 3.558123e+03 
1.588700e-01 3.520691e+03 
1.600900e-01 3.483688e+03 
1.612700e-01 3.449157e+03 
1.625400e-01 3.412681e+03 
1.637600e-01 3.378545e+03 
1.649500e-01 3.345991e+03 
1.662200e-01 3.311808e+03 
1.674000e-01 3.280220e+03 
1.685000e-01 3.251263e+03 
1.697500e-01 3.218636e+03 
1.710300e-01 3.185553e+03 
1.722200e-01 3.155339e+03 
1.734400e-01 3.123891e+03 
1.746400e-01 3.093447e+03 
1.758700e-01 3.062537e+03 
1.770900e-01 3.031916e+03 
1.782700e-01 3.002794e+03 
1.794600e-01 2.973531e+03 
1.807000e-01 2.943295e+03 
1.819100e-01 2.914285e+03 
1.830100e-01 2.888106e+03 
1.842200e-01 2.859722e+03 
1.855000e-01 2.830207e+03 
1.867000e-01 2.803196e+03 
1.879200e-01 2.776176e+03 
1.890900e-01 2.750674e+03 
1.902800e-01 2.725150e+03 
1.915200e-01 2.698975e+03 
1.926900e-01 2.674810e+03 
1.939000e-01 2.650682e+03 
1.951700e-01 2.625756e+03 
1.963100e-01 2.603786e+03 
1.975100e-01 2.581169e+03 
1.987800e-01 2.557601e+03 
2.000100e-01 2.535190e+03 
2.012500e-01 2.513083e+03 
2.023400e-01 2.493926e+03 
2.036100e-01 2.471999e+03 
2.048900e-01 2.450524e+03 
2.060400e-01 2.431510e+03 
2.072200e-01 2.412283e+03 
2.084200e-01 2.393145e+03 
2.096900e-01 2.373184e+03 
2.109200e-01 2.354135e+03 
2.121100e-01 2.335941e+03 
2.132700e-01 2.318446e+03 
2.145200e-01 2.299854e+03 
2.157200e-01 2.282247e+03 
2.168800e-01 2.265451e+03 
2.180700e-01 2.248449e+03 
2.193400e-01 2.230549e+03 
2.206000e-01 2.213029e+03 
2.217500e-01 2.197253e+03 
2.229500e-01 2.181004e+03 
2.241400e-01 2.165109e+03 
2.253500e-01 2.149158e+03 
2.264900e-01 2.134322e+03 
2.277100e-01 2.118717e+03 
2.289900e-01 2.102642e+03 
2.301500e-01 2.088264e+03 
2.313600e-01 2.073455e+03 
2.325600e-01 2.058942e+03 
2.337700e-01 2.044493e+03 
2.350000e-01 2.029993e+03 
2.362000e-01 2.016128e+03 
2.374100e-01 2.002441e+03 
2.386500e-01 1.988593e+03 
2.399100e-01 1.974701e+03 
2.410400e-01 1.962436e+03 
2.422500e-01 1.949464e+03 
2.435000e-01 1.936229e+03 
2.447300e-01 1.923382e+03 
2.458700e-01 1.911672e+03 
2.470600e-01 1.899589e+03 
2.483300e-01 1.886851e+03 
2.495600e-01 1.874681e+03 
2.507600e-01 1.862969e+03 
2.519600e-01 1.851394e+03 
2.532200e-01 1.839385e+03 
2.543700e-01 1.828579e+03 
2.555500e-01 1.817634e+03 
2.568000e-01 1.806174e+03 
2.580100e-01 1.795211e+03 
2.592400e-01 1.784173e+03 
2.604100e-01 1.773782e+03 
2.616100e-01 1.763243e+03 
2.628400e-01 1.752563e+03 
2.640600e-01 1.742200e+03 
2.652200e-01 1.732498e+03 
2.664300e-01 1.722487e+03 
2.676500e-01 1.712507e+03 
2.688400e-01 1.702811e+03 
2.700700e-01 1.692857e+03 
2.712400e-01 1.683490e+03 
2.724800e-01 1.673672e+03 
2.736700e-01 1.664347e+03 
2.748800e-01 1.654962e+03 
2.761000e-01 1.645601e+03 
2.773200e-01 1.636341e+03 
2.785400e-01 1.627198e+03 
2.797000e-01 1.618630e+03 
2.808900e-01 1.609930e+03 
2.821400e-01 1.600888e+03 
2.833900e-01 1.591940e+03 
2.845500e-01 1.583640e+03 
2.857800e-01 1.574929e+03 
2.870300e-01 1.566170e+03 
2.882100e-01 1.557987e+03 
2.893900e-01 1.549870e+03 
2.906300e-01 1.541418e+03 
2.918900e-01 1.532920e+03 
2.930500e-01 1.525175e+03 
2.942500e-01 1.517239e+03 
2.954200e-01 1.509567e+03 
2.966500e-01 1.501581e+03 
2.978900e-01 1.493612e+03 
2.990400e-01 1.486294e+03 
3.002700e-01 1.478524e+03 
3.015100e-01 1.470760e+03 
3.026800e-01 1.463506e+03 
3.038500e-01 1.456321e+03 
3.050300e-01 1.449142e+03 
3.062600e-01 1.441722e+03 
3.075000e-01 1.434316e+03 
3.087000e-01 1.427218e+03 
3.099100e-01 1.420129e+03 
3.111200e-01 1.413099e+03 
3.123100e-01 1.406237e+03 
3.135300e-01 1.399267e+03 
3.147300e-01 1.392476e+03 
3.159900e-01 1.385414e+03 
3.171800e-01 1.378864e+03 
3.183700e-01 1.372412e+03 
3.196300e-01 1.365643e+03 
3.208400e-01 1.359205e+03 
3.220300e-01 1.352931e+03 
3.232000e-01 1.346770e+03 
3.244300e-01 1.340333e+03 
3.256700e-01 1.333904e+03 
3.269200e-01 1.327484e+03 
3.280800e-01 1.321579e+03 
3.292500e-01 1.315745e+03 
3.304800e-01 1.309688e+03 
3.317100e-01 1.303686e+03 
3.328900e-01 1.297979e+03 
3.340700e-01 1.292322e+03 
3.353600e-01 1.286220e+03 
3.365300e-01 1.280746e+03 
3.377100e-01 1.275272e+03 
3.389200e-01 1.269708e+03 
3.401600e-01 1.264056e+03 
3.413700e-01 1.258608e+03 
3.425300e-01 1.253443e+03 
3.437700e-01 1.247968e+03 
3.449800e-01 1.242673e+03 
3.461800e-01 1.237466e+03 
3.473600e-01 1.232384e+03 
3.485800e-01 1.227162e+03 
3.498100e-01 1.221943e+03 
3.510200e-01 1.216852e+03 
3.522000e-01 1.211929e+03 
3.533900e-01 1.207004e+03 
3.546400e-01 1.201953e+03 
3.558400e-01 1.197150e+03 
3.570600e-01 1.192307e+03 
3.582700e-01 1.187543e+03 
3.595000e-01 1.182741e+03 
3.607100e-01 1.178070e+03 
3.618900e-01 1.173563e+03 
3.631200e-01 1.168902e+03 
3.643200e-01 1.164393e+03 
3.655500e-01 1.159808e+03 
3.667300e-01 1.155445e+03 
3.679500e-01 1.150994e+03 
3.691900e-01 1.146507e+03 
3.703600e-01 1.142307e+03 
3.715700e-01 1.137997e+03 
3.727700e-01 1.133757e+03 
3.739900e-01 1.129489e+03 
3.752000e-01 1.125305e+03 
3.763900e-01 1.121223e+03 
3.775800e-01 1.117172e+03 
3.788200e-01 1.112984e+03 
3.800300e-01 1.108930e+03 
3.812100e-01 1.104996e+03 
3.824200e-01 1.100987e+03 
3.836100e-01 1.097074e+03 
3.848600e-01 1.092995e+03 
3.860400e-01 1.089175e+03 
3.872400e-01 1.085319e+03 
3.884600e-01 1.081445e+03 
3.896500e-01 1.077702e+03 
3.908700e-01 1.073893e+03 
3.920600e-01 1.070206e+03 
3.933100e-01 1.066362e+03 
3.945300e-01 1.062640e+03 
3.957200e-01 1.059047e+03 
3.969300e-01 1.055425e+03 
3.981700e-01 1.051741e+03 
3.993500e-01 1.048262e+03 
4.094840e-01 1.019299e+03 
4.272360e-01 9.725969e+02 
4.454600e-01 9.288189e+02 
4.630560e-01 8.902523e+02 
4.804610e-01 8.550702e+02 
4.980690e-01 8.221767e+02 
5.159230e-01 7.913471e+02 
5.317440e-01 7.657866e+02 
5.489640e-01 7.399233e+02 
5.671990e-01 7.143781e+02 
5.838690e-01 6.925687e+02 
6.018840e-01 6.705460e+02 
6.202330e-01 6.496312e+02 
6.379250e-01 6.307330e+02 
6.545410e-01 6.139869e+02 
6.714560e-01 5.978709e+02 
6.892080e-01 5.818906e+02 
7.066010e-01 5.670863e+02 
7.240540e-01 5.530058e+02 
7.420450e-01 5.391344e+02 
7.593780e-01 5.265044e+02 
7.764720e-01 5.145604e+02 
7.942840e-01 5.027152e+02 
8.116170e-01 4.916195e+02 
8.288310e-01 4.810643e+02 
8.462240e-01 4.707860e+02 
8.631980e-01 4.611835e+02 
8.810700e-01 4.513995e+02 
8.989410e-01 4.419960e+02 
9.166330e-01 4.329891e+02 
9.345640e-01 4.241655e+02 
9.515980e-01 4.160511e+02 
9.688720e-01 4.080564e+02 
9.865640e-01 4.000979e+02 
1.031870e+00 3.808942e+02 
1.063490e+00 3.682770e+02 
1.097920e+00 3.552151e+02 
1.134370e+00 3.421097e+02 
1.167730e+00 3.307541e+02 
1.203830e+00 3.190472e+02 
1.240470e+00 3.077786e+02 
1.275790e+00 2.974104e+02 
1.309140e+00 2.880876e+02 
1.342970e+00 2.790420e+02 
1.378420e+00 2.699952e+02 
1.413200e+00 2.615033e+02 
1.448110e+00 2.533421e+02 
1.484090e+00 2.453015e+02 
1.518820e+00 2.378644e+02 
1.552880e+00 2.308809e+02 
1.588630e+00 2.238673e+02 
1.623230e+00 2.173574e+02 
1.657720e+00 2.111456e+02 
1.692450e+00 2.051355e+02 
1.726400e+00 1.994777e+02 
1.762200e+00 1.937421e+02 
1.797880e+00 1.882541e+02 
1.833270e+00 1.830402e+02 
1.869070e+00 1.779488e+02 
1.903200e+00 1.732958e+02 
1.937740e+00 1.687531e+02 
1.973190e+00 1.642578e+02 
2.007440e+00 1.600780e+02 
2.042160e+00 1.560028e+02 
2.077900e+00 1.519328e+02 
2.112390e+00 1.481646e+02 
2.146220e+00 1.445895e+02 
2.181600e+00 1.409720e+02 
2.216930e+00 1.375002e+02 
2.250760e+00 1.342792e+02 
2.286500e+00 1.309847e+02 
2.321770e+00 1.278531e+02 
2.355950e+00 1.249145e+02 
2.391280e+00 1.219884e+02 
2.426240e+00 1.191722e+02 
2.460670e+00 1.164861e+02 
2.495640e+00 1.138540e+02 
2.531080e+00 1.112629e+02 
2.566220e+00 1.087725e+02 
2.600830e+00 1.064011e+02 
2.635080e+00 1.041339e+02 
2.670340e+00 1.018611e+02 
2.705970e+00 9.963416e+01 
2.740040e+00 9.756758e+01 
2.774520e+00 9.553189e+01 
2.809730e+00 9.352169e+01 
2.844390e+00 9.160348e+01 
2.879960e+00 8.968783e+01 
2.914860e+00 8.785942e+01 
2.949410e+00 8.610215e+01 
2.984440e+00 8.437520e+01 
3.019760e+00 8.268128e+01 
3.054730e+00 8.105081e+01 
3.089030e+00 7.949034e+01 
3.124060e+00 7.793990e+01 
3.159560e+00 7.641034e+01 
3.194710e+00 7.494078e+01 
3.229010e+00 7.354682e+01 
3.263320e+00 7.218433e+01 
3.297930e+00 7.084838e+01 
3.332830e+00 6.953991e+01 
3.368040e+00 6.825230e+01 
3.403300e+00 6.699533e+01 
3.438450e+00 6.577193e+01 
3.473060e+00 6.459814e+01 
3.508440e+00 6.343177e+01 
3.543110e+00 6.231782e+01 
3.577470e+00 6.123803e+01 
3.613040e+00 6.014931e+01 
3.648120e+00 5.910475e+01 
3.682910e+00 5.809332e+01 
3.718050e+00 5.709439e+01 
3.753320e+00 5.611762e+01 
3.787980e+00 5.518266e+01 
3.822290e+00 5.427788e+01 
3.857020e+00 5.338168e+01 
3.891920e+00 5.250138e+01 
3.926650e+00 5.164403e+01 
3.961970e+00 5.079320e+01 
3.997360e+00 4.996220e+01 
4.031670e+00 4.917552e+01 
4.066330e+00 4.840074e+01 
4.101420e+00 4.763398e+01 
4.136200e+00 4.688882e+01 
4.170810e+00 4.616373e+01 
4.206250e+00 4.543938e+01 
4.241580e+00 4.473364e+01 
4.276300e+00 4.405373e+01 
4.310970e+00 4.338857e+01 
4.346120e+00 4.272952e+01 
4.380600e+00 4.209814e+01 
4.414730e+00 4.148611e+01 
4.450350e+00 4.085924e+01 
4.485320e+00 4.025679e+01 
4.519810e+00 3.967608e+01 
4.555430e+00 3.908926e+01 
4.590870e+00 3.851703e+01 
4.625480e+00 3.796852e+01 
4.659910e+00 3.743374e+01 
4.695230e+00 3.689795e+01 
4.729960e+00 3.638188e+01 
4.764450e+00 3.587997e+01 
4.799530e+00 3.538038e+01 
4.834910e+00 3.488640e+01 
4.869700e+00 3.441153e+01 
4.904370e+00 3.394756e+01 
4.939450e+00 3.348669e+01 
4.973940e+00 3.304126e+01 
5.008430e+00 3.260411e+01 
5.043810e+00 3.216354e+01 
5.078840e+00 3.173521e+01 
5.113500e+00 3.131922e+01 
5.148890e+00 3.090614e+01 
5.184210e+00 3.050163e+01 
5.219060e+00 3.010950e+01 
5.253660e+00 2.972644e+01 
5.288570e+00 2.934682e+01 
5.323420e+00 2.897430e+01 
5.358440e+00 2.860628e+01 
5.393590e+00 2.824341e+01 
5.428310e+00 2.789354e+01 
5.462800e+00 2.755316e+01 
5.497640e+00 2.721520e+01 
5.532670e+00 2.688060e+01 
5.567280e+00 2.655543e+01 
5.602000e+00 2.623470e+01 
5.637270e+00 2.591402e+01 
5.672410e+00 2.559984e+01 
5.707020e+00 2.529553e+01 
5.742040e+00 2.499382e+01 
5.777430e+00 2.469420e+01 
5.812210e+00 2.440459e+01 
5.846820e+00 2.412187e+01 
5.881610e+00 2.384245e+01 
5.916510e+00 2.356665e+01 
5.951600e+00 2.329349e+01 
5.986560e+00 2.302554e+01 
6.021830e+00 2.275953e+01 
6.056490e+00 2.250362e+01 
6.091160e+00 2.225277e+01 
6.125830e+00 2.200579e+01 
6.161090e+00 2.175796e+01 
6.195760e+00 2.151688e+01 
6.230420e+00 2.127954e+01 
6.265690e+00 2.104174e+01 
6.300950e+00 2.080866e+01 
6.335620e+00 2.058293e+01 
6.370880e+00 2.035681e+01 
6.405550e+00 2.013848e+01 
6.440220e+00 1.992365e+01 
6.475480e+00 1.970839e+01 
6.510150e+00 1.949976e+01 
6.544810e+00 1.929402e+01 
6.580080e+00 1.908772e+01 
6.614750e+00 1.888787e+01 
6.649410e+00 1.869176e+01 
6.684080e+00 1.849855e+01 
6.719340e+00 1.830486e+01 
6.754010e+00 1.811702e+01 
6.788680e+00 1.793163e+01 
6.823940e+00 1.774574e+01 
6.859800e+00 1.755938e+01 
6.894470e+00 1.738233e+01 
6.929140e+00 1.720791e+01 
6.963800e+00 1.703594e+01 
6.999070e+00 1.686335e+01 
7.033730e+00 1.669595e+01 
7.068400e+00 1.653077e+01 
7.103660e+00 1.636506e+01 
7.138330e+00 1.620457e+01 
7.173600e+00 1.604401e+01 
7.208260e+00 1.588834e+01 
7.243530e+00 1.573203e+01 
7.277600e+00 1.558298e+01 
7.312860e+00 1.543070e+01 
7.348120e+00 1.528044e+01 
7.382790e+00 1.513464e+01 
7.417460e+00 1.499115e+01 
7.452720e+00 1.484735e+01 
7.487390e+00 1.470778e+01 
7.522650e+00 1.456767e+01 
7.557320e+00 1.443157e+01 
7.591990e+00 1.429717e+01 
7.627250e+00 1.416222e+01 
7.662510e+00 1.402899e+01 
7.697180e+00 1.389957e+01 
7.731850e+00 1.377174e+01 
7.766510e+00 1.364552e+01 
7.801180e+00 1.352083e+01 
7.836440e+00 1.339601e+01 
7.871110e+00 1.327506e+01 
7.906380e+00 1.315353e+01 
7.941040e+00 1.303556e+01 
7.976310e+00 1.291661e+01 
8.011570e+00 1.279872e+01 
8.046240e+00 1.268420e+01 
8.080900e+00 1.257110e+01 
8.115570e+00 1.245957e+01 
8.150830e+00 1.234847e+01 
8.185500e+00 1.224054e+01 
8.220770e+00 1.213204e+01 
8.255430e+00 1.202668e+01 
8.290100e+00 1.192202e+01 
8.324770e+00 1.181852e+01 
8.359430e+00 1.171625e+01 
8.394700e+00 1.161340e+01 
8.429960e+00 1.151201e+01 
8.464630e+00 1.141369e+01 
8.499890e+00 1.131485e+01 
8.534560e+00 1.121878e+01 
8.569200e+00 1.112389e+01 
