# Parameters:
# omega_b = 0.023327, omega_m = 0.143701, n_s = 0.939764, h = 55.472441, w = -1.000000, sigma_8 = 0.797638
# z = 0.100000
#
# k[1/Mpc] # P(k):
8.694000e-04 1.918976e+04 
2.077466e-03 4.015333e+04 
3.285532e-03 5.636128e+04 
4.493598e-03 6.876472e+04 
5.701664e-03 7.793284e+04 
6.909730e-03 8.440161e+04 
8.117797e-03 8.876370e+04 
9.325863e-03 9.132449e+04 
1.053393e-02 9.238401e+04 
1.174199e-02 9.222281e+04 
1.295006e-02 9.101738e+04 
1.415813e-02 8.900937e+04 
1.536619e-02 8.640440e+04 
1.657426e-02 8.320771e+04 
1.778233e-02 7.912969e+04 
1.899039e-02 7.470788e+04 
2.019846e-02 7.089911e+04 
2.140652e-02 6.767816e+04 
2.261459e-02 6.467557e+04 
2.382266e-02 6.179932e+04 
2.503072e-02 5.907204e+04 
2.623879e-02 5.650881e+04 
2.744685e-02 5.411400e+04 
2.865492e-02 5.189946e+04 
2.986299e-02 4.986240e+04 
3.100100e-02 4.809995e+04 
3.220400e-02 4.639412e+04 
3.288100e-02 4.550148e+04 
3.424300e-02 4.384298e+04 
3.555100e-02 4.240182e+04 
3.686000e-02 4.108964e+04 
3.795000e-02 4.008841e+04 
3.929100e-02 3.894455e+04 
4.039800e-02 3.805801e+04 
4.164000e-02 3.712553e+04 
4.294400e-02 3.618226e+04 
4.415000e-02 3.534996e+04 
4.542900e-02 3.448018e+04 
4.660900e-02 3.369882e+04 
4.782300e-02 3.288161e+04 
4.892900e-02 3.215005e+04 
5.031200e-02 3.122970e+04 
5.155900e-02 3.039138e+04 
5.238100e-02 2.983780e+04 
5.378200e-02 2.889719e+04 
5.513400e-02 2.798899e+04 
5.627600e-02 2.722302e+04 
5.735300e-02 2.650875e+04 
5.870100e-02 2.563024e+04 
5.988700e-02 2.487692e+04 
6.113500e-02 2.410315e+04 
6.225900e-02 2.342951e+04 
6.340100e-02 2.276772e+04 
6.480200e-02 2.199070e+04 
6.601100e-02 2.135770e+04 
6.725500e-02 2.074162e+04 
6.829100e-02 2.025984e+04 
6.958600e-02 1.968840e+04 
7.071100e-02 1.922886e+04 
7.192300e-02 1.876774e+04 
7.307400e-02 1.835883e+04 
7.412300e-02 1.801068e+04 
7.550400e-02 1.759101e+04 
7.663100e-02 1.727284e+04 
7.791200e-02 1.693824e+04 
7.912700e-02 1.664559e+04 
8.027600e-02 1.638561e+04 
8.138400e-02 1.614751e+04 
8.272200e-02 1.587297e+04 
8.406100e-02 1.560651e+04 
8.534100e-02 1.535804e+04 
8.653800e-02 1.512605e+04 
8.759800e-02 1.492204e+04 
8.900300e-02 1.465095e+04 
9.009000e-02 1.443578e+04 
9.113300e-02 1.422736e+04 
9.239600e-02 1.397460e+04 
9.358000e-02 1.373378e+04 
9.496100e-02 1.344913e+04 
9.608400e-02 1.321847e+04 
9.727500e-02 1.297600e+04 
9.852600e-02 1.272029e+04 
9.973800e-02 1.247970e+04 
1.009000e-01 1.225552e+04 
1.020900e-01 1.203031e+04 
1.034000e-01 1.179070e+04 
1.046000e-01 1.157886e+04 
1.057200e-01 1.139005e+04 
1.069100e-01 1.119623e+04 
1.082500e-01 1.098845e+04 
1.093900e-01 1.081968e+04 
1.105400e-01 1.065555e+04 
1.116900e-01 1.050063e+04 
1.129600e-01 1.033581e+04 
1.142000e-01 1.018379e+04 
1.153300e-01 1.005001e+04 
1.166400e-01 9.900853e+03 
1.177800e-01 9.777329e+03 
1.190000e-01 9.649733e+03 
1.201200e-01 9.536220e+03 
1.213400e-01 9.415637e+03 
1.227100e-01 9.285455e+03 
1.238900e-01 9.176126e+03 
1.250700e-01 9.069075e+03 
1.263200e-01 8.958363e+03 
1.275500e-01 8.852059e+03 
1.287500e-01 8.749701e+03 
1.299900e-01 8.644706e+03 
1.311300e-01 8.550016e+03 
1.323500e-01 8.450430e+03 
1.335900e-01 8.350531e+03 
1.347100e-01 8.260964e+03 
1.359800e-01 8.161006e+03 
1.372100e-01 8.065192e+03 
1.384300e-01 7.971493e+03 
1.395700e-01 7.884021e+03 
1.407700e-01 7.793734e+03 
1.420300e-01 7.700018e+03 
1.432800e-01 7.609047e+03 
1.444500e-01 7.524363e+03 
1.456300e-01 7.440652e+03 
1.468900e-01 7.353378e+03 
1.480500e-01 7.274730e+03 
1.491700e-01 7.200102e+03 
1.503800e-01 7.120861e+03 
1.516400e-01 7.040292e+03 
1.528200e-01 6.967603e+03 
1.540200e-01 6.895084e+03 
1.551900e-01 6.826605e+03 
1.564300e-01 6.755618e+03 
1.576600e-01 6.686921e+03 
1.588700e-01 6.621052e+03 
1.600900e-01 6.555904e+03 
1.612700e-01 6.494634e+03 
1.625400e-01 6.429907e+03 
1.637600e-01 6.369423e+03 
1.649500e-01 6.311796e+03 
1.662200e-01 6.251383e+03 
1.674000e-01 6.196119e+03 
1.685000e-01 6.145455e+03 
1.697500e-01 6.088847e+03 
1.710300e-01 6.031918e+03 
1.722200e-01 5.979921e+03 
1.734400e-01 5.926823e+03 
1.746400e-01 5.875453e+03 
1.758700e-01 5.823584e+03 
1.770900e-01 5.772795e+03 
1.782700e-01 5.724481e+03 
1.794600e-01 5.676341e+03 
1.807000e-01 5.626865e+03 
1.819100e-01 5.579382e+03 
1.830100e-01 5.536822e+03 
1.842200e-01 5.490715e+03 
1.855000e-01 5.442765e+03 
1.867000e-01 5.399077e+03 
1.879200e-01 5.355361e+03 
1.890900e-01 5.314069e+03 
1.902800e-01 5.272626e+03 
1.915200e-01 5.230113e+03 
1.926900e-01 5.190817e+03 
1.939000e-01 5.151452e+03 
1.951700e-01 5.110778e+03 
1.963100e-01 5.074826e+03 
1.975100e-01 5.037560e+03 
1.987800e-01 4.998720e+03 
2.000100e-01 4.961680e+03 
2.012500e-01 4.924903e+03 
2.023400e-01 4.893031e+03 
2.036100e-01 4.856485e+03 
2.048900e-01 4.820459e+03 
2.060400e-01 4.788559e+03 
2.072200e-01 4.756277e+03 
2.084200e-01 4.723908e+03 
2.096900e-01 4.690145e+03 
2.109200e-01 4.657920e+03 
2.121100e-01 4.626877e+03 
2.132700e-01 4.597010e+03 
2.145200e-01 4.565268e+03 
2.157200e-01 4.535058e+03 
2.168800e-01 4.506168e+03 
2.180700e-01 4.476921e+03 
2.193400e-01 4.446044e+03 
2.206000e-01 4.415665e+03 
2.217500e-01 4.388307e+03 
2.229500e-01 4.360128e+03 
2.241400e-01 4.332351e+03 
2.253500e-01 4.304469e+03 
2.264900e-01 4.278534e+03 
2.277100e-01 4.251183e+03 
2.289900e-01 4.222927e+03 
2.301500e-01 4.197652e+03 
2.313600e-01 4.171618e+03 
2.325600e-01 4.146000e+03 
2.337700e-01 4.120495e+03 
2.350000e-01 4.094898e+03 
2.362000e-01 4.070441e+03 
2.374100e-01 4.046324e+03 
2.386500e-01 4.021919e+03 
2.399100e-01 3.997438e+03 
2.410400e-01 3.975914e+03 
2.422500e-01 3.953160e+03 
2.435000e-01 3.929945e+03 
2.447300e-01 3.907446e+03 
2.458700e-01 3.887084e+03 
2.470600e-01 3.866074e+03 
2.483300e-01 3.843924e+03 
2.495600e-01 3.822841e+03 
2.507600e-01 3.802659e+03 
2.519600e-01 3.782714e+03 
2.532200e-01 3.762022e+03 
2.543700e-01 3.743480e+03 
2.555500e-01 3.724752e+03 
2.568000e-01 3.705144e+03 
2.580100e-01 3.686387e+03 
2.592400e-01 3.667538e+03 
2.604100e-01 3.649811e+03 
2.616100e-01 3.631832e+03 
2.628400e-01 3.613614e+03 
2.640600e-01 3.595959e+03 
2.652200e-01 3.579441e+03 
2.664300e-01 3.562402e+03 
2.676500e-01 3.545414e+03 
2.688400e-01 3.528831e+03 
2.700700e-01 3.511756e+03 
2.712400e-01 3.495692e+03 
2.724800e-01 3.478853e+03 
2.736700e-01 3.462804e+03 
2.748800e-01 3.446594e+03 
2.761000e-01 3.430427e+03 
2.773200e-01 3.414436e+03 
2.785400e-01 3.398613e+03 
2.797000e-01 3.383718e+03 
2.808900e-01 3.368595e+03 
2.821400e-01 3.352880e+03 
2.833900e-01 3.337323e+03 
2.845500e-01 3.322740e+03 
2.857800e-01 3.307437e+03 
2.870300e-01 3.292051e+03 
2.882100e-01 3.277678e+03 
2.893900e-01 3.263352e+03 
2.906300e-01 3.248401e+03 
2.918900e-01 3.233370e+03 
2.930500e-01 3.219672e+03 
2.942500e-01 3.205612e+03 
2.954200e-01 3.191943e+03 
2.966500e-01 3.177716e+03 
2.978900e-01 3.163520e+03 
2.990400e-01 3.150485e+03 
3.002700e-01 3.136586e+03 
3.015100e-01 3.122670e+03 
3.026800e-01 3.109669e+03 
3.038500e-01 3.096791e+03 
3.050300e-01 3.083925e+03 
3.062600e-01 3.070521e+03 
3.075000e-01 3.057142e+03 
3.087000e-01 3.044321e+03 
3.099100e-01 3.031517e+03 
3.111200e-01 3.018804e+03 
3.123100e-01 3.006365e+03 
3.135300e-01 2.993733e+03 
3.147300e-01 2.981426e+03 
3.159900e-01 2.968628e+03 
3.171800e-01 2.956759e+03 
3.183700e-01 2.945065e+03 
3.196300e-01 2.932801e+03 
3.208400e-01 2.921136e+03 
3.220300e-01 2.909769e+03 
3.232000e-01 2.898531e+03 
3.244300e-01 2.886760e+03 
3.256700e-01 2.875005e+03 
3.269200e-01 2.863267e+03 
3.280800e-01 2.852472e+03 
3.292500e-01 2.841823e+03 
3.304800e-01 2.830774e+03 
3.317100e-01 2.819827e+03 
3.328900e-01 2.809418e+03 
3.340700e-01 2.799101e+03 
3.353600e-01 2.787945e+03 
3.365300e-01 2.777926e+03 
3.377100e-01 2.767909e+03 
3.389200e-01 2.757727e+03 
3.401600e-01 2.747386e+03 
3.413700e-01 2.737405e+03 
3.425300e-01 2.727931e+03 
3.437700e-01 2.717892e+03 
3.449800e-01 2.708182e+03 
3.461800e-01 2.698636e+03 
3.473600e-01 2.689314e+03 
3.485800e-01 2.679721e+03 
3.498100e-01 2.670133e+03 
3.510200e-01 2.660783e+03 
3.522000e-01 2.651742e+03 
3.533900e-01 2.642701e+03 
3.546400e-01 2.633399e+03 
3.558400e-01 2.624553e+03 
3.570600e-01 2.615635e+03 
3.582700e-01 2.606865e+03 
3.595000e-01 2.598026e+03 
3.607100e-01 2.589415e+03 
3.618900e-01 2.581096e+03 
3.631200e-01 2.572497e+03 
3.643200e-01 2.564177e+03 
3.655500e-01 2.555720e+03 
3.667300e-01 2.547674e+03 
3.679500e-01 2.539419e+03 
3.691900e-01 2.531099e+03 
3.703600e-01 2.523313e+03 
3.715700e-01 2.515325e+03 
3.727700e-01 2.507467e+03 
3.739900e-01 2.499559e+03 
3.752000e-01 2.491806e+03 
3.763900e-01 2.484242e+03 
3.775800e-01 2.476738e+03 
3.788200e-01 2.468983e+03 
3.800300e-01 2.461476e+03 
3.812100e-01 2.454154e+03 
3.824200e-01 2.446665e+03 
3.836100e-01 2.439358e+03 
3.848600e-01 2.431744e+03 
3.860400e-01 2.424613e+03 
3.872400e-01 2.417417e+03 
3.884600e-01 2.410158e+03 
3.896500e-01 2.403133e+03 
3.908700e-01 2.395987e+03 
3.920600e-01 2.389070e+03 
3.933100e-01 2.381862e+03 
3.945300e-01 2.374882e+03 
3.957200e-01 2.368135e+03 
3.969300e-01 2.361329e+03 
3.981700e-01 2.354408e+03 
3.993500e-01 2.347873e+03 
4.094840e-01 2.293133e+03 
4.272360e-01 2.203778e+03 
4.454600e-01 2.118683e+03 
4.630560e-01 2.042737e+03 
4.804610e-01 1.972331e+03 
4.980690e-01 1.905656e+03 
5.159230e-01 1.842294e+03 
5.317440e-01 1.789151e+03 
5.489640e-01 1.734659e+03 
5.671990e-01 1.679989e+03 
5.838690e-01 1.632709e+03 
6.018840e-01 1.584324e+03 
6.202330e-01 1.537563e+03 
6.379250e-01 1.494799e+03 
6.545410e-01 1.456180e+03 
6.714560e-01 1.418587e+03 
6.892080e-01 1.380657e+03 
7.066010e-01 1.345053e+03 
7.240540e-01 1.310774e+03 
7.420450e-01 1.276445e+03 
7.593780e-01 1.244812e+03 
7.764720e-01 1.214586e+03 
7.942840e-01 1.184276e+03 
8.116170e-01 1.155608e+03 
8.288310e-01 1.128066e+03 
8.462240e-01 1.101061e+03 
8.631980e-01 1.075643e+03 
8.810700e-01 1.049607e+03 
8.989410e-01 1.024459e+03 
9.166330e-01 1.000271e+03 
9.345640e-01 9.764958e+02 
9.515980e-01 9.545836e+02 
9.688720e-01 9.329419e+02 
9.865640e-01 9.113860e+02 
1.031870e+00 8.593227e+02 
1.063490e+00 8.251883e+02 
1.097920e+00 7.899296e+02 
1.134370e+00 7.547529e+02 
1.167730e+00 7.244251e+02 
1.203830e+00 6.933744e+02 
1.240470e+00 6.636852e+02 
1.275790e+00 6.365936e+02 
1.309140e+00 6.124253e+02 
1.342970e+00 5.891604e+02 
1.378420e+00 5.660680e+02 
1.413200e+00 5.445990e+02 
1.448110e+00 5.241374e+02 
1.484090e+00 5.041469e+02 
1.518820e+00 4.858193e+02 
1.552880e+00 4.687592e+02 
1.588630e+00 4.517530e+02 
1.623230e+00 4.361018e+02 
1.657720e+00 4.212736e+02 
1.692450e+00 4.070301e+02 
1.726400e+00 3.937451e+02 
1.762200e+00 3.803763e+02 
1.797880e+00 3.676865e+02 
1.833270e+00 3.557063e+02 
1.869070e+00 3.441088e+02 
1.903200e+00 3.335739e+02 
1.937740e+00 3.233573e+02 
1.973190e+00 3.133175e+02 
2.007440e+00 3.040419e+02 
2.042160e+00 2.950536e+02 
2.077900e+00 2.861403e+02 
2.112390e+00 2.779291e+02 
2.146220e+00 2.701934e+02 
2.181600e+00 2.624119e+02 
2.216930e+00 2.549832e+02 
2.250760e+00 2.481311e+02 
2.286500e+00 2.411612e+02 
2.321770e+00 2.345684e+02 
2.355950e+00 2.284155e+02 
2.391280e+00 2.223209e+02 
2.426240e+00 2.164886e+02 
2.460670e+00 2.109520e+02 
2.495640e+00 2.055482e+02 
2.531080e+00 2.002605e+02 
2.566220e+00 1.952018e+02 
2.600830e+00 1.904041e+02 
2.635080e+00 1.858333e+02 
2.670340e+00 1.812791e+02 
2.705970e+00 1.768347e+02 
2.740040e+00 1.727259e+02 
2.774520e+00 1.686976e+02 
2.809730e+00 1.647347e+02 
2.844390e+00 1.609654e+02 
2.879960e+00 1.572182e+02 
2.914860e+00 1.536574e+02 
2.949410e+00 1.502452e+02 
2.984440e+00 1.469048e+02 
3.019760e+00 1.436401e+02 
3.054730e+00 1.405065e+02 
3.089030e+00 1.375231e+02 
3.124060e+00 1.345666e+02 
3.159560e+00 1.316597e+02 
3.194710e+00 1.288765e+02 
3.229010e+00 1.262420e+02 
3.263320e+00 1.236788e+02 
3.297930e+00 1.211706e+02 
3.332830e+00 1.187215e+02 
3.368040e+00 1.163189e+02 
3.403300e+00 1.139794e+02 
3.438450e+00 1.117110e+02 
3.473060e+00 1.095381e+02 
3.508440e+00 1.073874e+02 
3.543110e+00 1.053364e+02 
3.577470e+00 1.033559e+02 
3.613040e+00 1.013622e+02 
3.648120e+00 9.945499e+01 
3.682910e+00 9.761184e+01 
3.718050e+00 9.579683e+01 
3.753320e+00 9.402539e+01 
3.787980e+00 9.233381e+01 
3.822290e+00 9.070013e+01 
3.857020e+00 8.908628e+01 
3.891920e+00 8.750383e+01 
3.926650e+00 8.596664e+01 
3.961970e+00 8.444340e+01 
3.997360e+00 8.295951e+01 
4.031670e+00 8.155637e+01 
4.066330e+00 8.017803e+01 
4.101420e+00 7.881504e+01 
4.136200e+00 7.749470e+01 
4.170810e+00 7.621080e+01 
4.206250e+00 7.493151e+01 
4.241580e+00 7.368635e+01 
4.276300e+00 7.248943e+01 
4.310970e+00 7.132024e+01 
4.346120e+00 7.016336e+01 
4.380600e+00 6.905714e+01 
4.414730e+00 6.798555e+01 
4.450350e+00 6.689102e+01 
4.485320e+00 6.583977e+01 
4.519810e+00 6.482832e+01 
4.555430e+00 6.380742e+01 
4.590870e+00 6.281313e+01 
4.625480e+00 6.186195e+01 
4.659910e+00 6.093509e+01 
4.695230e+00 6.000827e+01 
4.729960e+00 5.911624e+01 
4.764450e+00 5.824964e+01 
4.799530e+00 5.738832e+01 
4.834910e+00 5.653712e+01 
4.869700e+00 5.572033e+01 
4.904370e+00 5.492286e+01 
4.939450e+00 5.413148e+01 
4.973940e+00 5.336789e+01 
5.008430e+00 5.261886e+01 
5.043810e+00 5.186511e+01 
5.078840e+00 5.113308e+01 
5.113500e+00 5.042249e+01 
5.148890e+00 4.971767e+01 
5.184210e+00 4.902784e+01 
5.219060e+00 4.835972e+01 
5.253660e+00 4.770812e+01 
5.288570e+00 4.706269e+01 
5.323420e+00 4.642996e+01 
5.358440e+00 4.580551e+01 
5.393590e+00 4.519010e+01 
5.428310e+00 4.459722e+01 
5.462800e+00 4.402078e+01 
5.497640e+00 4.344870e+01 
5.532670e+00 4.288305e+01 
5.567280e+00 4.233373e+01 
5.602000e+00 4.179218e+01 
5.637270e+00 4.125137e+01 
5.672410e+00 4.072185e+01 
5.707020e+00 4.020922e+01 
5.742040e+00 3.970147e+01 
5.777430e+00 3.919753e+01 
5.812210e+00 3.871063e+01 
5.846820e+00 3.823571e+01 
5.881610e+00 3.776660e+01 
5.916510e+00 3.730376e+01 
5.951600e+00 3.684579e+01 
5.986560e+00 3.639688e+01 
6.021830e+00 3.595140e+01 
6.056490e+00 3.552305e+01 
6.091160e+00 3.510339e+01 
6.125830e+00 3.469036e+01 
6.161090e+00 3.427620e+01 
6.195760e+00 3.387374e+01 
6.230420e+00 3.347770e+01 
6.265690e+00 3.308108e+01 
6.300950e+00 3.269263e+01 
6.335620e+00 3.231661e+01 
6.370880e+00 3.194010e+01 
6.405550e+00 3.157674e+01 
6.440220e+00 3.121935e+01 
6.475480e+00 3.086140e+01 
6.510150e+00 3.051470e+01 
6.544810e+00 3.017313e+01 
6.580080e+00 2.983076e+01 
6.614750e+00 2.949924e+01 
6.649410e+00 2.917408e+01 
6.684080e+00 2.885386e+01 
6.719340e+00 2.853298e+01 
6.754010e+00 2.822200e+01 
6.788680e+00 2.791530e+01 
6.823940e+00 2.760791e+01 
6.859800e+00 2.729988e+01 
6.894470e+00 2.700738e+01 
6.929140e+00 2.671939e+01 
6.963800e+00 2.643554e+01 
6.999070e+00 2.615079e+01 
7.033730e+00 2.587483e+01 
7.068400e+00 2.560263e+01 
7.103660e+00 2.532968e+01 
7.138330e+00 2.506545e+01 
7.173600e+00 2.480124e+01 
7.208260e+00 2.454518e+01 
7.243530e+00 2.428820e+01 
7.277600e+00 2.404330e+01 
7.312860e+00 2.379326e+01 
7.348120e+00 2.354665e+01 
7.382790e+00 2.330743e+01 
7.417460e+00 2.307213e+01 
7.452720e+00 2.283641e+01 
7.487390e+00 2.260772e+01 
7.522650e+00 2.237822e+01 
7.557320e+00 2.215550e+01 
7.591990e+00 2.193567e+01 
7.627250e+00 2.171504e+01 
7.662510e+00 2.149731e+01 
7.697180e+00 2.128599e+01 
7.731850e+00 2.107737e+01 
7.766510e+00 2.087149e+01 
7.801180e+00 2.066818e+01 
7.836440e+00 2.046475e+01 
7.871110e+00 2.026771e+01 
7.906380e+00 2.006981e+01 
7.941040e+00 1.987779e+01 
7.976310e+00 1.968433e+01 
8.011570e+00 1.949277e+01 
8.046240e+00 1.930679e+01 
8.080900e+00 1.912316e+01 
8.115570e+00 1.894216e+01 
8.150830e+00 1.876191e+01 
8.185500e+00 1.858687e+01 
8.220770e+00 1.841098e+01 
8.255430e+00 1.824024e+01 
8.290100e+00 1.807087e+01 
8.324770e+00 1.790345e+01 
8.359430e+00 1.773810e+01 
8.394700e+00 1.757187e+01 
8.429960e+00 1.740810e+01 
8.464630e+00 1.724938e+01 
8.499890e+00 1.708990e+01 
8.534560e+00 1.693494e+01 
8.569200e+00 1.678194e+01 
