# Parameters:
# omega_b = 0.021878, omega_m = 0.132402, n_s = 0.883071, h = 85.000000, w = -1.000000, sigma_8 = 0.821260
# z = 0.100000
#
# k[1/Mpc] # P(k):
8.694000e-04 1.965116e+04 
2.077466e-03 3.868574e+04 
3.285532e-03 5.240025e+04 
4.493598e-03 6.218006e+04 
5.701664e-03 6.886960e+04 
6.909730e-03 7.312651e+04 
8.117797e-03 7.557586e+04 
9.325863e-03 7.654175e+04 
1.053393e-02 7.631938e+04 
1.174199e-02 7.516912e+04 
1.295006e-02 7.325809e+04 
1.415813e-02 7.079983e+04 
1.536619e-02 6.797059e+04 
1.657426e-02 6.499059e+04 
1.778233e-02 6.227775e+04 
1.899039e-02 5.971456e+04 
2.019846e-02 5.670813e+04 
2.140652e-02 5.341513e+04 
2.261459e-02 5.020084e+04 
2.382266e-02 4.721660e+04 
2.503072e-02 4.449689e+04 
2.623879e-02 4.204211e+04 
2.744685e-02 3.985140e+04 
2.865492e-02 3.790892e+04 
2.986299e-02 3.619585e+04 
3.100100e-02 3.478195e+04 
3.220400e-02 3.347421e+04 
3.288100e-02 3.281878e+04 
3.424300e-02 3.164675e+04 
3.555100e-02 3.067452e+04 
3.686000e-02 2.982582e+04 
3.795000e-02 2.919655e+04 
3.929100e-02 2.849038e+04 
4.039800e-02 2.794054e+04 
4.164000e-02 2.735280e+04 
4.294400e-02 2.672700e+04 
4.415000e-02 2.614922e+04 
4.542900e-02 2.549962e+04 
4.660900e-02 2.488492e+04 
4.782300e-02 2.419422e+04 
4.892900e-02 2.354936e+04 
5.031200e-02 2.270336e+04 
5.155900e-02 2.190647e+04 
5.238100e-02 2.137176e+04 
5.378200e-02 2.045426e+04 
5.513400e-02 1.956769e+04 
5.627600e-02 1.882750e+04 
5.735300e-02 1.814804e+04 
5.870100e-02 1.733185e+04 
5.988700e-02 1.665276e+04 
6.113500e-02 1.597956e+04 
6.225900e-02 1.541686e+04 
6.340100e-02 1.488771e+04 
6.480200e-02 1.429328e+04 
6.601100e-02 1.383731e+04 
6.725500e-02 1.341685e+04 
6.829100e-02 1.310741e+04 
6.958600e-02 1.275621e+04 
7.071100e-02 1.248935e+04 
7.192300e-02 1.223357e+04 
7.307400e-02 1.201561e+04 
7.412300e-02 1.183556e+04 
7.550400e-02 1.162456e+04 
7.663100e-02 1.146596e+04 
7.791200e-02 1.129707e+04 
7.912700e-02 1.114371e+04 
8.027600e-02 1.100094e+04 
8.138400e-02 1.086338e+04 
8.272200e-02 1.069391e+04 
8.406100e-02 1.051706e+04 
8.534100e-02 1.033828e+04 
8.653800e-02 1.016116e+04 
8.759800e-02 9.999895e+03 
8.900300e-02 9.778277e+03 
9.009000e-02 9.598269e+03 
9.113300e-02 9.421220e+03 
9.239600e-02 9.205304e+03 
9.358000e-02 8.999434e+03 
9.496100e-02 8.757314e+03 
9.608400e-02 8.562767e+03 
9.727500e-02 8.359845e+03 
9.852600e-02 8.150232e+03 
9.973800e-02 7.955483e+03 
1.009000e-01 7.776089e+03 
1.020900e-01 7.601983e+03 
1.034000e-01 7.420077e+03 
1.046000e-01 7.262673e+03 
1.057200e-01 7.128357e+03 
1.069100e-01 6.992847e+03 
1.082500e-01 6.854358e+03 
1.093900e-01 6.746035e+03 
1.105400e-01 6.643135e+03 
1.116900e-01 6.551373e+03 
1.129600e-01 6.455452e+03 
1.142000e-01 6.370944e+03 
1.153300e-01 6.297462e+03 
1.166400e-01 6.216925e+03 
1.177800e-01 6.150290e+03 
1.190000e-01 6.081497e+03 
1.201200e-01 6.018045e+03 
1.213400e-01 5.950238e+03 
1.227100e-01 5.871909e+03 
1.238900e-01 5.804833e+03 
1.250700e-01 5.734888e+03 
1.263200e-01 5.660814e+03 
1.275500e-01 5.585826e+03 
1.287500e-01 5.511893e+03 
1.299900e-01 5.433352e+03 
1.311300e-01 5.361357e+03 
1.323500e-01 5.283892e+03 
1.335900e-01 5.205783e+03 
1.347100e-01 5.135212e+03 
1.359800e-01 5.056659e+03 
1.372100e-01 4.981702e+03 
1.384300e-01 4.908957e+03 
1.395700e-01 4.842264e+03 
1.407700e-01 4.773689e+03 
1.420300e-01 4.704651e+03 
1.432800e-01 4.637689e+03 
1.444500e-01 4.577799e+03 
1.456300e-01 4.518632e+03 
1.468900e-01 4.458637e+03 
1.480500e-01 4.405090e+03 
1.491700e-01 4.355042e+03 
1.503800e-01 4.302865e+03 
1.516400e-01 4.250059e+03 
1.528200e-01 4.203439e+03 
1.540200e-01 4.156936e+03 
1.551900e-01 4.113618e+03 
1.564300e-01 4.068863e+03 
1.576600e-01 4.025676e+03 
1.588700e-01 3.984416e+03 
1.600900e-01 3.943606e+03 
1.612700e-01 3.905133e+03 
1.625400e-01 3.864491e+03 
1.637600e-01 3.826269e+03 
1.649500e-01 3.789707e+03 
1.662200e-01 3.751292e+03 
1.674000e-01 3.715664e+03 
1.685000e-01 3.683003e+03 
1.697500e-01 3.646203e+03 
1.710300e-01 3.608887e+03 
1.722200e-01 3.574808e+03 
1.734400e-01 3.539439e+03 
1.746400e-01 3.505202e+03 
1.758700e-01 3.470496e+03 
1.770900e-01 3.436229e+03 
1.782700e-01 3.403637e+03 
1.794600e-01 3.370994e+03 
1.807000e-01 3.337337e+03 
1.819100e-01 3.305044e+03 
1.830100e-01 3.276019e+03 
1.842200e-01 3.244567e+03 
1.855000e-01 3.211865e+03 
1.867000e-01 3.182042e+03 
1.879200e-01 3.152206e+03 
1.890900e-01 3.124051e+03 
1.902800e-01 3.095910e+03 
1.915200e-01 3.067047e+03 
1.926900e-01 3.040403e+03 
1.939000e-01 3.013809e+03 
1.951700e-01 2.986333e+03 
1.963100e-01 2.962105e+03 
1.975100e-01 2.937136e+03 
1.987800e-01 2.911115e+03 
2.000100e-01 2.886354e+03 
2.012500e-01 2.861888e+03 
2.023400e-01 2.840687e+03 
2.036100e-01 2.816408e+03 
2.048900e-01 2.792583e+03 
2.060400e-01 2.771488e+03 
2.072200e-01 2.750151e+03 
2.084200e-01 2.728869e+03 
2.096900e-01 2.706672e+03 
2.109200e-01 2.685487e+03 
2.121100e-01 2.665223e+03 
2.132700e-01 2.645734e+03 
2.145200e-01 2.625023e+03 
2.157200e-01 2.605405e+03 
2.168800e-01 2.586687e+03 
2.180700e-01 2.567740e+03 
2.193400e-01 2.547796e+03 
2.206000e-01 2.528286e+03 
2.217500e-01 2.510716e+03 
2.229500e-01 2.492620e+03 
2.241400e-01 2.474954e+03 
2.253500e-01 2.457227e+03 
2.264900e-01 2.440738e+03 
2.277100e-01 2.423417e+03 
2.289900e-01 2.405600e+03 
2.301500e-01 2.389663e+03 
2.313600e-01 2.373249e+03 
2.325600e-01 2.357211e+03 
2.337700e-01 2.341244e+03 
2.350000e-01 2.325219e+03 
2.362000e-01 2.309921e+03 
2.374100e-01 2.294849e+03 
2.386500e-01 2.279598e+03 
2.399100e-01 2.264299e+03 
2.410400e-01 2.250819e+03 
2.422500e-01 2.236565e+03 
2.435000e-01 2.222022e+03 
2.447300e-01 2.207908e+03 
2.458700e-01 2.195057e+03 
2.470600e-01 2.181797e+03 
2.483300e-01 2.167816e+03 
2.495600e-01 2.154461e+03 
2.507600e-01 2.141610e+03 
2.519600e-01 2.128909e+03 
2.532200e-01 2.115731e+03 
2.543700e-01 2.103867e+03 
2.555500e-01 2.091845e+03 
2.568000e-01 2.079257e+03 
2.580100e-01 2.067214e+03 
2.592400e-01 2.055070e+03 
2.604100e-01 2.043629e+03 
2.616100e-01 2.032025e+03 
2.628400e-01 2.020265e+03 
2.640600e-01 2.008836e+03 
2.652200e-01 1.998129e+03 
2.664300e-01 1.987082e+03 
2.676500e-01 1.976068e+03 
2.688400e-01 1.965345e+03 
2.700700e-01 1.954323e+03 
2.712400e-01 1.943952e+03 
2.724800e-01 1.933080e+03 
2.736700e-01 1.922740e+03 
2.748800e-01 1.912320e+03 
2.761000e-01 1.901927e+03 
2.773200e-01 1.891645e+03 
2.785400e-01 1.881487e+03 
2.797000e-01 1.871956e+03 
2.808900e-01 1.862278e+03 
2.821400e-01 1.852220e+03 
2.833900e-01 1.842265e+03 
2.845500e-01 1.833015e+03 
2.857800e-01 1.823308e+03 
2.870300e-01 1.813546e+03 
2.882100e-01 1.804427e+03 
2.893900e-01 1.795375e+03 
2.906300e-01 1.785947e+03 
2.918900e-01 1.776468e+03 
2.930500e-01 1.767829e+03 
2.942500e-01 1.758975e+03 
2.954200e-01 1.750411e+03 
2.966500e-01 1.741498e+03 
2.978900e-01 1.732604e+03 
2.990400e-01 1.724435e+03 
3.002700e-01 1.715763e+03 
3.015100e-01 1.707097e+03 
3.026800e-01 1.699000e+03 
3.038500e-01 1.690979e+03 
3.050300e-01 1.682966e+03 
3.062600e-01 1.674674e+03 
3.075000e-01 1.666397e+03 
3.087000e-01 1.658464e+03 
3.099100e-01 1.650542e+03 
3.111200e-01 1.642686e+03 
3.123100e-01 1.635017e+03 
3.135300e-01 1.627228e+03 
3.147300e-01 1.619639e+03 
3.159900e-01 1.611747e+03 
3.171800e-01 1.604432e+03 
3.183700e-01 1.597228e+03 
3.196300e-01 1.589673e+03 
3.208400e-01 1.582485e+03 
3.220300e-01 1.575481e+03 
3.232000e-01 1.568588e+03 
3.244300e-01 1.561381e+03 
3.256700e-01 1.554183e+03 
3.269200e-01 1.546994e+03 
3.280800e-01 1.540383e+03 
3.292500e-01 1.533854e+03 
3.304800e-01 1.527076e+03 
3.317100e-01 1.520361e+03 
3.328900e-01 1.513975e+03 
3.340700e-01 1.507644e+03 
3.353600e-01 1.500811e+03 
3.365300e-01 1.494677e+03 
3.377100e-01 1.488544e+03 
3.389200e-01 1.482309e+03 
3.401600e-01 1.475976e+03 
3.413700e-01 1.469866e+03 
3.425300e-01 1.464068e+03 
3.437700e-01 1.457923e+03 
3.449800e-01 1.451979e+03 
3.461800e-01 1.446135e+03 
3.473600e-01 1.440429e+03 
3.485800e-01 1.434562e+03 
3.498100e-01 1.428697e+03 
3.510200e-01 1.422977e+03 
3.522000e-01 1.417445e+03 
3.533900e-01 1.411913e+03 
3.546400e-01 1.406224e+03 
3.558400e-01 1.400813e+03 
3.570600e-01 1.395357e+03 
3.582700e-01 1.389992e+03 
3.595000e-01 1.384583e+03 
3.607100e-01 1.379317e+03 
3.618900e-01 1.374232e+03 
3.631200e-01 1.368974e+03 
3.643200e-01 1.363887e+03 
3.655500e-01 1.358715e+03 
3.667300e-01 1.353794e+03 
3.679500e-01 1.348757e+03 
3.691900e-01 1.343680e+03 
3.703600e-01 1.338928e+03 
3.715700e-01 1.334052e+03 
3.727700e-01 1.329254e+03 
3.739900e-01 1.324425e+03 
3.752000e-01 1.319689e+03 
3.763900e-01 1.315068e+03 
3.775800e-01 1.310483e+03 
3.788200e-01 1.305742e+03 
3.800300e-01 1.301154e+03 
3.812100e-01 1.296693e+03 
3.824200e-01 1.292139e+03 
3.836100e-01 1.287696e+03 
3.848600e-01 1.283065e+03 
3.860400e-01 1.278727e+03 
3.872400e-01 1.274349e+03 
3.884600e-01 1.269943e+03 
3.896500e-01 1.265682e+03 
3.908700e-01 1.261346e+03 
3.920600e-01 1.257150e+03 
3.933100e-01 1.252775e+03 
3.945300e-01 1.248538e+03 
3.957200e-01 1.244448e+03 
3.969300e-01 1.240323e+03 
3.981700e-01 1.236127e+03 
3.993500e-01 1.232164e+03 
4.094840e-01 1.199120e+03 
4.272360e-01 1.145687e+03 
4.454600e-01 1.095460e+03 
4.630560e-01 1.051152e+03 
4.804610e-01 1.010647e+03 
4.980690e-01 9.727358e+02 
5.159230e-01 9.371398e+02 
5.317440e-01 9.075871e+02 
5.489640e-01 8.776248e+02 
5.671990e-01 8.479471e+02 
5.838690e-01 8.225456e+02 
6.018840e-01 7.968403e+02 
6.202330e-01 7.723384e+02 
6.379250e-01 7.501543e+02 
6.545410e-01 7.304201e+02 
6.714560e-01 7.113868e+02 
6.892080e-01 6.924512e+02 
7.066010e-01 6.748699e+02 
7.240540e-01 6.581099e+02 
7.420450e-01 6.415481e+02 
7.593780e-01 6.264393e+02 
7.764720e-01 6.121265e+02 
7.942840e-01 5.979013e+02 
8.116170e-01 5.845644e+02 
8.288310e-01 5.718514e+02 
8.462240e-01 5.594621e+02 
8.631980e-01 5.478721e+02 
8.810700e-01 5.360547e+02 
8.989410e-01 5.246941e+02 
9.166330e-01 5.138045e+02 
9.345640e-01 5.031297e+02 
9.515980e-01 4.933147e+02 
9.688720e-01 4.836418e+02 
9.865640e-01 4.740155e+02 
1.031870e+00 4.507846e+02 
1.063490e+00 4.355336e+02 
1.097920e+00 4.197524e+02 
1.134370e+00 4.039372e+02 
1.167730e+00 3.902472e+02 
1.203830e+00 3.761520e+02 
1.240470e+00 3.625963e+02 
1.275790e+00 3.501405e+02 
1.309140e+00 3.389542e+02 
1.342970e+00 3.281128e+02 
1.378420e+00 3.172808e+02 
1.413200e+00 3.071285e+02 
1.448110e+00 2.973795e+02 
1.484090e+00 2.877875e+02 
1.518820e+00 2.789229e+02 
1.552880e+00 2.706103e+02 
1.588630e+00 2.622677e+02 
1.623230e+00 2.545323e+02 
1.657720e+00 2.471572e+02 
1.692450e+00 2.400258e+02 
1.726400e+00 2.333214e+02 
1.762200e+00 2.265284e+02 
1.797880e+00 2.200357e+02 
1.833270e+00 2.138708e+02 
1.869070e+00 2.078566e+02 
1.903200e+00 2.023634e+02 
1.937740e+00 1.970040e+02 
1.973190e+00 1.917039e+02 
2.007440e+00 1.867785e+02 
2.042160e+00 1.819794e+02 
2.077900e+00 1.771894e+02 
2.112390e+00 1.727566e+02 
2.146220e+00 1.685539e+02 
2.181600e+00 1.643034e+02 
2.216930e+00 1.602260e+02 
2.250760e+00 1.564449e+02 
2.286500e+00 1.525794e+02 
2.321770e+00 1.489066e+02 
2.355950e+00 1.454618e+02 
2.391280e+00 1.420329e+02 
2.426240e+00 1.387343e+02 
2.460670e+00 1.355893e+02 
2.495640e+00 1.325084e+02 
2.531080e+00 1.294771e+02 
2.566220e+00 1.265644e+02 
2.600830e+00 1.237919e+02 
2.635080e+00 1.211418e+02 
2.670340e+00 1.184864e+02 
2.705970e+00 1.158852e+02 
2.740040e+00 1.134719e+02 
2.774520e+00 1.110956e+02 
2.809730e+00 1.087496e+02 
2.844390e+00 1.065115e+02 
2.879960e+00 1.042771e+02 
2.914860e+00 1.021449e+02 
2.949410e+00 1.000960e+02 
2.984440e+00 9.808308e+01 
3.019760e+00 9.610907e+01 
3.054730e+00 9.420930e+01 
3.089030e+00 9.239176e+01 
3.124060e+00 9.058610e+01 
3.159560e+00 8.880504e+01 
3.194710e+00 8.709424e+01 
3.229010e+00 8.547161e+01 
3.263320e+00 8.388601e+01 
3.297930e+00 8.233144e+01 
3.332830e+00 8.080917e+01 
3.368040e+00 7.931135e+01 
3.403300e+00 7.784928e+01 
3.438450e+00 7.642658e+01 
3.473060e+00 7.506165e+01 
3.508440e+00 7.370566e+01 
3.543110e+00 7.241067e+01 
3.577470e+00 7.115557e+01 
3.613040e+00 6.989017e+01 
3.648120e+00 6.867631e+01 
3.682910e+00 6.750099e+01 
3.718050e+00 6.634026e+01 
3.753320e+00 6.520542e+01 
3.787980e+00 6.411931e+01 
3.822290e+00 6.306831e+01 
3.857020e+00 6.202732e+01 
3.891920e+00 6.100483e+01 
3.926650e+00 6.000905e+01 
3.961970e+00 5.902088e+01 
3.997360e+00 5.805587e+01 
4.031670e+00 5.714234e+01 
4.066330e+00 5.624271e+01 
4.101420e+00 5.535240e+01 
4.136200e+00 5.448724e+01 
4.170810e+00 5.364539e+01 
4.206250e+00 5.280441e+01 
4.241580e+00 5.198503e+01 
4.276300e+00 5.119569e+01 
4.310970e+00 5.042347e+01 
4.346120e+00 4.965834e+01 
4.380600e+00 4.892538e+01 
4.414730e+00 4.821487e+01 
4.450350e+00 4.748714e+01 
4.485320e+00 4.678774e+01 
4.519810e+00 4.611358e+01 
4.555430e+00 4.543234e+01 
4.590870e+00 4.476802e+01 
4.625480e+00 4.413123e+01 
4.659910e+00 4.351036e+01 
4.695230e+00 4.288832e+01 
4.729960e+00 4.228918e+01 
4.764450e+00 4.170646e+01 
4.799530e+00 4.112644e+01 
4.834910e+00 4.055291e+01 
4.869700e+00 4.000157e+01 
4.904370e+00 3.946288e+01 
4.939450e+00 3.892776e+01 
4.973940e+00 3.841051e+01 
5.008430e+00 3.790286e+01 
5.043810e+00 3.739124e+01 
5.078840e+00 3.689382e+01 
5.113500e+00 3.641072e+01 
5.148890e+00 3.593093e+01 
5.184210e+00 3.546110e+01 
5.219060e+00 3.500563e+01 
5.253660e+00 3.456066e+01 
5.288570e+00 3.411969e+01 
5.323420e+00 3.368693e+01 
5.358440e+00 3.325936e+01 
5.393590e+00 3.283777e+01 
5.428310e+00 3.243126e+01 
5.462800e+00 3.203577e+01 
5.497640e+00 3.164307e+01 
5.532670e+00 3.125423e+01 
5.567280e+00 3.087633e+01 
5.602000e+00 3.050359e+01 
5.637270e+00 3.013086e+01 
5.672410e+00 2.976566e+01 
5.707020e+00 2.941196e+01 
5.742040e+00 2.906119e+01 
5.777430e+00 2.871284e+01 
5.812210e+00 2.837613e+01 
5.846820e+00 2.804739e+01 
5.881610e+00 2.772248e+01 
5.916510e+00 2.740177e+01 
5.951600e+00 2.708408e+01 
5.986560e+00 2.677245e+01 
6.021830e+00 2.646305e+01 
6.056490e+00 2.616537e+01 
6.091160e+00 2.587355e+01 
6.125830e+00 2.558622e+01 
6.161090e+00 2.529788e+01 
6.195760e+00 2.501735e+01 
6.230420e+00 2.474116e+01 
6.265690e+00 2.446446e+01 
6.300950e+00 2.419316e+01 
6.335620e+00 2.393043e+01 
6.370880e+00 2.366724e+01 
6.405550e+00 2.341307e+01 
6.440220e+00 2.316295e+01 
6.475480e+00 2.291234e+01 
6.510150e+00 2.266943e+01 
6.544810e+00 2.242985e+01 
6.580080e+00 2.218961e+01 
6.614750e+00 2.195689e+01 
6.649410e+00 2.172846e+01 
6.684080e+00 2.150340e+01 
6.719340e+00 2.127778e+01 
6.754010e+00 2.105898e+01 
6.788680e+00 2.084298e+01 
6.823940e+00 2.062640e+01 
6.859800e+00 2.040928e+01 
6.894470e+00 2.020294e+01 
6.929140e+00 1.999968e+01 
6.963800e+00 1.979926e+01 
6.999070e+00 1.959811e+01 
7.033730e+00 1.940296e+01 
7.068400e+00 1.921040e+01 
7.103660e+00 1.901723e+01 
7.138330e+00 1.883012e+01 
7.173600e+00 1.864290e+01 
7.208260e+00 1.846138e+01 
7.243530e+00 1.827913e+01 
7.277600e+00 1.810530e+01 
7.312860e+00 1.792768e+01 
7.348120e+00 1.775243e+01 
7.382790e+00 1.758237e+01 
7.417460e+00 1.741498e+01 
7.452720e+00 1.724720e+01 
7.487390e+00 1.708437e+01 
7.522650e+00 1.692090e+01 
7.557320e+00 1.676209e+01 
7.591990e+00 1.660524e+01 
7.627250e+00 1.644776e+01 
7.662510e+00 1.629229e+01 
7.697180e+00 1.614123e+01 
7.731850e+00 1.599201e+01 
7.766510e+00 1.584469e+01 
7.801180e+00 1.569915e+01 
7.836440e+00 1.555343e+01 
7.871110e+00 1.541221e+01 
7.906380e+00 1.527032e+01 
7.941040e+00 1.513260e+01 
7.976310e+00 1.499371e+01 
8.011570e+00 1.485603e+01 
8.046240e+00 1.472230e+01 
8.080900e+00 1.459023e+01 
8.115570e+00 1.445998e+01 
8.150830e+00 1.433021e+01 
8.185500e+00 1.420414e+01 
8.220770e+00 1.407741e+01 
8.255430e+00 1.395435e+01 
8.290100e+00 1.383208e+01 
8.324770e+00 1.371116e+01 
8.359430e+00 1.359168e+01 
8.394700e+00 1.347153e+01 
8.429960e+00 1.335307e+01 
8.464630e+00 1.323818e+01 
8.499890e+00 1.312268e+01 
8.534560e+00 1.301043e+01 
8.569200e+00 1.289955e+01 
