# Parameters:
# omega_b = 0.021626, omega_m = 0.126339, n_s = 1.021654, h = 55.000000, w = -1.000000, sigma_8 = 0.825984
# z = 0.100000
#
# k[1/Mpc] # P(k):
8.694000e-04 2.036259e+04 
2.077466e-03 4.510978e+04 
3.285532e-03 6.489684e+04 
4.493598e-03 8.017798e+04 
5.701664e-03 9.153568e+04 
6.909730e-03 9.953147e+04 
8.117797e-03 1.048511e+05 
9.325863e-03 1.078599e+05 
1.053393e-02 1.089439e+05 
1.174199e-02 1.084787e+05 
1.295006e-02 1.066955e+05 
1.415813e-02 1.039113e+05 
1.536619e-02 1.004025e+05 
1.657426e-02 9.616639e+04 
1.778233e-02 9.081490e+04 
1.899039e-02 8.512553e+04 
2.019846e-02 8.037104e+04 
2.140652e-02 7.644651e+04 
2.261459e-02 7.284102e+04 
2.382266e-02 6.943023e+04 
2.503072e-02 6.623636e+04 
2.623879e-02 6.327402e+04 
2.744685e-02 6.054978e+04 
2.865492e-02 5.806593e+04 
2.986299e-02 5.581245e+04 
3.100100e-02 5.389113e+04 
3.220400e-02 5.205445e+04 
3.288100e-02 5.110300e+04 
3.424300e-02 4.934760e+04 
3.555100e-02 4.783043e+04 
3.686000e-02 4.645047e+04 
3.795000e-02 4.539421e+04 
3.929100e-02 4.417506e+04 
4.039800e-02 4.321662e+04 
4.164000e-02 4.219400e+04 
4.294400e-02 4.113415e+04 
4.415000e-02 4.018364e+04 
4.542900e-02 3.916907e+04 
4.660900e-02 3.824625e+04 
4.782300e-02 3.726806e+04 
4.892900e-02 3.638755e+04 
5.031200e-02 3.527628e+04 
5.155900e-02 3.426533e+04 
5.238100e-02 3.360004e+04 
5.378200e-02 3.247523e+04 
5.513400e-02 3.139960e+04 
5.627600e-02 3.050185e+04 
5.735300e-02 2.967274e+04 
5.870100e-02 2.866414e+04 
5.988700e-02 2.780878e+04 
6.113500e-02 2.693965e+04 
6.225900e-02 2.619140e+04 
6.340100e-02 2.546363e+04 
6.480200e-02 2.461656e+04 
6.601100e-02 2.393425e+04 
6.725500e-02 2.327582e+04 
6.829100e-02 2.276556e+04 
6.958600e-02 2.216346e+04 
7.071100e-02 2.168266e+04 
7.192300e-02 2.120259e+04 
7.307400e-02 2.077829e+04 
7.412300e-02 2.041781e+04 
7.550400e-02 1.998396e+04 
7.663100e-02 1.965459e+04 
7.791200e-02 1.930611e+04 
7.912700e-02 1.899818e+04 
8.027600e-02 1.872130e+04 
8.138400e-02 1.846433e+04 
8.272200e-02 1.816255e+04 
8.406100e-02 1.786322e+04 
8.534100e-02 1.757667e+04 
8.653800e-02 1.730330e+04 
8.759800e-02 1.705967e+04 
8.900300e-02 1.673153e+04 
9.009000e-02 1.646851e+04 
9.113300e-02 1.621230e+04 
9.239600e-02 1.590113e+04 
9.358000e-02 1.560510e+04 
9.496100e-02 1.525765e+04 
9.608400e-02 1.497836e+04 
9.727500e-02 1.468674e+04 
9.852600e-02 1.438553e+04 
9.973800e-02 1.410534e+04 
1.009000e-01 1.384693e+04 
1.020900e-01 1.359437e+04 
1.034000e-01 1.332887e+04 
1.046000e-01 1.309748e+04 
1.057200e-01 1.289624e+04 
1.069100e-01 1.269126e+04 
1.082500e-01 1.247580e+04 
1.093900e-01 1.230260e+04 
1.105400e-01 1.213521e+04 
1.116900e-01 1.197864e+04 
1.129600e-01 1.181227e+04 
1.142000e-01 1.165867e+04 
1.153300e-01 1.152273e+04 
1.166400e-01 1.136994e+04 
1.177800e-01 1.124150e+04 
1.190000e-01 1.110791e+04 
1.201200e-01 1.098558e+04 
1.213400e-01 1.085499e+04 
1.227100e-01 1.070886e+04 
1.238900e-01 1.058511e+04 
1.250700e-01 1.046066e+04 
1.263200e-01 1.033092e+04 
1.275500e-01 1.020401e+04 
1.287500e-01 1.008107e+04 
1.299900e-01 9.953812e+03 
1.311300e-01 9.838914e+03 
1.323500e-01 9.717885e+03 
1.335900e-01 9.597003e+03 
1.347100e-01 9.489313e+03 
1.359800e-01 9.369930e+03 
1.372100e-01 9.257086e+03 
1.384300e-01 9.147568e+03 
1.395700e-01 9.047300e+03 
1.407700e-01 8.944076e+03 
1.420300e-01 8.839723e+03 
1.432800e-01 8.738421e+03 
1.444500e-01 8.646530e+03 
1.456300e-01 8.555685e+03 
1.468900e-01 8.462235e+03 
1.480500e-01 8.378393e+03 
1.491700e-01 8.299120e+03 
1.503800e-01 8.215310e+03 
1.516400e-01 8.130078e+03 
1.528200e-01 8.053141e+03 
1.540200e-01 7.976377e+03 
1.551900e-01 7.903295e+03 
1.564300e-01 7.827389e+03 
1.576600e-01 7.753405e+03 
1.588700e-01 7.681832e+03 
1.600900e-01 7.610976e+03 
1.612700e-01 7.543128e+03 
1.625400e-01 7.471450e+03 
1.637600e-01 7.403771e+03 
1.649500e-01 7.338874e+03 
1.662200e-01 7.270714e+03 
1.674000e-01 7.207651e+03 
1.685000e-01 7.149837e+03 
1.697500e-01 7.084997e+03 
1.710300e-01 7.019549e+03 
1.722200e-01 6.959769e+03 
1.734400e-01 6.898588e+03 
1.746400e-01 6.839392e+03 
1.758700e-01 6.779677e+03 
1.770900e-01 6.721317e+03 
1.782700e-01 6.665800e+03 
1.794600e-01 6.610698e+03 
1.807000e-01 6.554212e+03 
1.819100e-01 6.500000e+03 
1.830100e-01 6.451762e+03 
1.842200e-01 6.399563e+03 
1.855000e-01 6.345296e+03 
1.867000e-01 6.296306e+03 
1.879200e-01 6.247283e+03 
1.890900e-01 6.201039e+03 
1.902800e-01 6.154940e+03 
1.915200e-01 6.107649e+03 
1.926900e-01 6.064011e+03 
1.939000e-01 6.020539e+03 
1.951700e-01 5.975621e+03 
1.963100e-01 5.935957e+03 
1.975100e-01 5.894943e+03 
1.987800e-01 5.852198e+03 
2.000100e-01 5.811438e+03 
2.012500e-01 5.770974e+03 
2.023400e-01 5.735908e+03 
2.036100e-01 5.695682e+03 
2.048900e-01 5.655957e+03 
2.060400e-01 5.620783e+03 
2.072200e-01 5.585176e+03 
2.084200e-01 5.549301e+03 
2.096900e-01 5.511883e+03 
2.109200e-01 5.476172e+03 
2.121100e-01 5.441526e+03 
2.132700e-01 5.408181e+03 
2.145200e-01 5.372745e+03 
2.157200e-01 5.338848e+03 
2.168800e-01 5.306356e+03 
2.180700e-01 5.273464e+03 
2.193400e-01 5.238650e+03 
2.206000e-01 5.204236e+03 
2.217500e-01 5.173244e+03 
2.229500e-01 5.141323e+03 
2.241400e-01 5.109681e+03 
2.253500e-01 5.077916e+03 
2.264900e-01 5.048370e+03 
2.277100e-01 5.017154e+03 
2.289900e-01 4.984846e+03 
2.301500e-01 4.955946e+03 
2.313600e-01 4.926178e+03 
2.325600e-01 4.896845e+03 
2.337700e-01 4.867641e+03 
2.350000e-01 4.838332e+03 
2.362000e-01 4.810354e+03 
2.374100e-01 4.782797e+03 
2.386500e-01 4.754913e+03 
2.399100e-01 4.726942e+03 
2.410400e-01 4.702432e+03 
2.422500e-01 4.676532e+03 
2.435000e-01 4.650109e+03 
2.447300e-01 4.624526e+03 
2.458700e-01 4.601473e+03 
2.470600e-01 4.577688e+03 
2.483300e-01 4.552615e+03 
2.495600e-01 4.528804e+03 
2.507600e-01 4.506090e+03 
2.519600e-01 4.483643e+03 
2.532200e-01 4.460358e+03 
2.543700e-01 4.439551e+03 
2.555500e-01 4.418575e+03 
2.568000e-01 4.396616e+03 
2.580100e-01 4.375613e+03 
2.592400e-01 4.354537e+03 
2.604100e-01 4.334731e+03 
2.616100e-01 4.314647e+03 
2.628400e-01 4.294298e+03 
2.640600e-01 4.274600e+03 
2.652200e-01 4.256182e+03 
2.664300e-01 4.237184e+03 
2.676500e-01 4.218247e+03 
2.688400e-01 4.199742e+03 
2.700700e-01 4.180679e+03 
2.712400e-01 4.162747e+03 
2.724800e-01 4.143951e+03 
2.736700e-01 4.126025e+03 
2.748800e-01 4.107905e+03 
2.761000e-01 4.089837e+03 
2.773200e-01 4.071967e+03 
2.785400e-01 4.054281e+03 
2.797000e-01 4.037621e+03 
2.808900e-01 4.020709e+03 
2.821400e-01 4.003137e+03 
2.833900e-01 3.985743e+03 
2.845500e-01 3.969413e+03 
2.857800e-01 3.952278e+03 
2.870300e-01 3.935052e+03 
2.882100e-01 3.918963e+03 
2.893900e-01 3.902920e+03 
2.906300e-01 3.886174e+03 
2.918900e-01 3.869339e+03 
2.930500e-01 3.854001e+03 
2.942500e-01 3.838255e+03 
2.954200e-01 3.822940e+03 
2.966500e-01 3.807002e+03 
2.978900e-01 3.791101e+03 
2.990400e-01 3.776501e+03 
3.002700e-01 3.760935e+03 
3.015100e-01 3.745352e+03 
3.026800e-01 3.730796e+03 
3.038500e-01 3.716378e+03 
3.050300e-01 3.701975e+03 
3.062600e-01 3.686939e+03 
3.075000e-01 3.671933e+03 
3.087000e-01 3.657554e+03 
3.099100e-01 3.643195e+03 
3.111200e-01 3.628939e+03 
3.123100e-01 3.614988e+03 
3.135300e-01 3.600822e+03 
3.147300e-01 3.587022e+03 
3.159900e-01 3.572673e+03 
3.171800e-01 3.559378e+03 
3.183700e-01 3.546288e+03 
3.196300e-01 3.532562e+03 
3.208400e-01 3.519507e+03 
3.220300e-01 3.506788e+03 
3.232000e-01 3.494164e+03 
3.244300e-01 3.480923e+03 
3.256700e-01 3.467701e+03 
3.269200e-01 3.454499e+03 
3.280800e-01 3.442360e+03 
3.292500e-01 3.430393e+03 
3.304800e-01 3.417981e+03 
3.317100e-01 3.405685e+03 
3.328900e-01 3.393995e+03 
3.340700e-01 3.382410e+03 
3.353600e-01 3.369858e+03 
3.365300e-01 3.358577e+03 
3.377100e-01 3.347299e+03 
3.389200e-01 3.335838e+03 
3.401600e-01 3.324199e+03 
3.413700e-01 3.312943e+03 
3.425300e-01 3.302245e+03 
3.437700e-01 3.290910e+03 
3.449800e-01 3.279949e+03 
3.461800e-01 3.269174e+03 
3.473600e-01 3.258645e+03 
3.485800e-01 3.247792e+03 
3.498100e-01 3.236948e+03 
3.510200e-01 3.226373e+03 
3.522000e-01 3.216150e+03 
3.533900e-01 3.205927e+03 
3.546400e-01 3.195367e+03 
3.558400e-01 3.185323e+03 
3.570600e-01 3.175199e+03 
3.582700e-01 3.165245e+03 
3.595000e-01 3.155214e+03 
3.607100e-01 3.145426e+03 
3.618900e-01 3.135957e+03 
3.631200e-01 3.126170e+03 
3.643200e-01 3.116703e+03 
3.655500e-01 3.107082e+03 
3.667300e-01 3.097929e+03 
3.679500e-01 3.088489e+03 
3.691900e-01 3.078975e+03 
3.703600e-01 3.070074e+03 
3.715700e-01 3.060943e+03 
3.727700e-01 3.051962e+03 
3.739900e-01 3.042920e+03 
3.752000e-01 3.034050e+03 
3.763900e-01 3.025398e+03 
3.775800e-01 3.016816e+03 
3.788200e-01 3.007946e+03 
3.800300e-01 2.999363e+03 
3.812100e-01 2.990963e+03 
3.824200e-01 2.982352e+03 
3.836100e-01 2.973952e+03 
3.848600e-01 2.965199e+03 
3.860400e-01 2.957003e+03 
3.872400e-01 2.948734e+03 
3.884600e-01 2.940367e+03 
3.896500e-01 2.932260e+03 
3.908700e-01 2.924015e+03 
3.920600e-01 2.916036e+03 
3.933100e-01 2.907722e+03 
3.945300e-01 2.899672e+03 
3.957200e-01 2.891881e+03 
3.969300e-01 2.884022e+03 
3.981700e-01 2.876031e+03 
3.993500e-01 2.868486e+03 
4.094840e-01 2.805113e+03 
4.272360e-01 2.701230e+03 
4.454600e-01 2.601893e+03 
4.630560e-01 2.513073e+03 
4.804610e-01 2.430475e+03 
4.980690e-01 2.352134e+03 
5.159230e-01 2.277490e+03 
5.317440e-01 2.214747e+03 
5.489640e-01 2.150224e+03 
5.671990e-01 2.085207e+03 
5.838690e-01 2.028761e+03 
6.018840e-01 1.970807e+03 
6.202330e-01 1.914488e+03 
6.379250e-01 1.862829e+03 
6.545410e-01 1.815908e+03 
6.714560e-01 1.770088e+03 
6.892080e-01 1.723638e+03 
7.066010e-01 1.679898e+03 
7.240540e-01 1.637648e+03 
7.420450e-01 1.595161e+03 
7.593780e-01 1.555907e+03 
7.764720e-01 1.518310e+03 
7.942840e-01 1.480505e+03 
8.116170e-01 1.444699e+03 
8.288310e-01 1.410209e+03 
8.462240e-01 1.376354e+03 
8.631980e-01 1.344436e+03 
8.810700e-01 1.311707e+03 
8.989410e-01 1.280079e+03 
9.166330e-01 1.249626e+03 
9.345640e-01 1.219666e+03 
9.515980e-01 1.192050e+03 
9.688720e-01 1.164763e+03 
9.865640e-01 1.137583e+03 
1.031870e+00 1.071910e+03 
1.063490e+00 1.028862e+03 
1.097920e+00 9.843998e+02 
1.134370e+00 9.400725e+02 
1.167730e+00 9.018782e+02 
1.203830e+00 8.628062e+02 
1.240470e+00 8.254653e+02 
1.275790e+00 7.914201e+02 
1.309140e+00 7.610751e+02 
1.342970e+00 7.318848e+02 
1.378420e+00 7.029311e+02 
1.413200e+00 6.760423e+02 
1.448110e+00 6.504252e+02 
1.484090e+00 6.254244e+02 
1.518820e+00 6.025127e+02 
1.552880e+00 5.812082e+02 
1.588630e+00 5.599790e+02 
1.623230e+00 5.404560e+02 
1.657720e+00 5.219704e+02 
1.692450e+00 5.042185e+02 
1.726400e+00 4.876775e+02 
1.762200e+00 4.710371e+02 
1.797880e+00 4.552543e+02 
1.833270e+00 4.403587e+02 
1.869070e+00 4.259493e+02 
1.903200e+00 4.128642e+02 
1.937740e+00 4.001799e+02 
1.973190e+00 3.877199e+02 
2.007440e+00 3.762124e+02 
2.042160e+00 3.650663e+02 
2.077900e+00 3.540167e+02 
2.112390e+00 3.438405e+02 
2.146220e+00 3.342577e+02 
2.181600e+00 3.246213e+02 
2.216930e+00 3.154242e+02 
2.250760e+00 3.069434e+02 
2.286500e+00 2.983191e+02 
2.321770e+00 2.901631e+02 
2.355950e+00 2.825535e+02 
2.391280e+00 2.750180e+02 
2.426240e+00 2.678085e+02 
2.460670e+00 2.609658e+02 
2.495640e+00 2.542885e+02 
2.531080e+00 2.477564e+02 
2.566220e+00 2.415082e+02 
2.600830e+00 2.355831e+02 
2.635080e+00 2.299394e+02 
2.670340e+00 2.243173e+02 
2.705970e+00 2.188313e+02 
2.740040e+00 2.137600e+02 
2.774520e+00 2.087892e+02 
2.809730e+00 2.038997e+02 
2.844390e+00 1.992494e+02 
2.879960e+00 1.946272e+02 
2.914860e+00 1.902353e+02 
2.949410e+00 1.860268e+02 
2.984440e+00 1.819075e+02 
3.019760e+00 1.778819e+02 
3.054730e+00 1.740181e+02 
3.089030e+00 1.703401e+02 
3.124060e+00 1.666953e+02 
3.159560e+00 1.631117e+02 
3.194710e+00 1.596810e+02 
3.229010e+00 1.564335e+02 
3.263320e+00 1.532744e+02 
3.297930e+00 1.501830e+02 
3.332830e+00 1.471647e+02 
3.368040e+00 1.442036e+02 
3.403300e+00 1.413202e+02 
3.438450e+00 1.385246e+02 
3.473060e+00 1.358466e+02 
3.508440e+00 1.331963e+02 
3.543110e+00 1.306687e+02 
3.577470e+00 1.282280e+02 
3.613040e+00 1.257710e+02 
3.648120e+00 1.234207e+02 
3.682910e+00 1.211492e+02 
3.718050e+00 1.189123e+02 
3.753320e+00 1.167290e+02 
3.787980e+00 1.146443e+02 
3.822290e+00 1.126307e+02 
3.857020e+00 1.106415e+02 
3.891920e+00 1.086908e+02 
3.926650e+00 1.067958e+02 
3.961970e+00 1.049179e+02 
3.997360e+00 1.030886e+02 
4.031670e+00 1.013587e+02 
4.066330e+00 9.965926e+01 
4.101420e+00 9.797865e+01 
4.136200e+00 9.635054e+01 
4.170810e+00 9.476723e+01 
4.206250e+00 9.318948e+01 
4.241580e+00 9.165370e+01 
4.276300e+00 9.017726e+01 
4.310970e+00 8.873491e+01 
4.346120e+00 8.730761e+01 
4.380600e+00 8.594272e+01 
4.414730e+00 8.462044e+01 
4.450350e+00 8.326964e+01 
4.485320e+00 8.197213e+01 
4.519810e+00 8.072362e+01 
4.555430e+00 7.946332e+01 
4.590870e+00 7.823574e+01 
4.625480e+00 7.706123e+01 
4.659910e+00 7.591665e+01 
4.695230e+00 7.477194e+01 
4.729960e+00 7.367010e+01 
4.764450e+00 7.259954e+01 
4.799530e+00 7.153537e+01 
4.834910e+00 7.048362e+01 
4.869700e+00 6.947424e+01 
4.904370e+00 6.848864e+01 
4.939450e+00 6.751043e+01 
4.973940e+00 6.656632e+01 
5.008430e+00 6.564014e+01 
5.043810e+00 6.470795e+01 
5.078840e+00 6.380250e+01 
5.113500e+00 6.292350e+01 
5.148890e+00 6.205141e+01 
5.184210e+00 6.119778e+01 
5.219060e+00 6.037093e+01 
5.253660e+00 5.956436e+01 
5.288570e+00 5.876536e+01 
5.323420e+00 5.798190e+01 
5.358440e+00 5.720850e+01 
5.393590e+00 5.644625e+01 
5.428310e+00 5.571175e+01 
5.462800e+00 5.499753e+01 
5.497640e+00 5.428866e+01 
5.532670e+00 5.358753e+01 
5.567280e+00 5.290654e+01 
5.602000e+00 5.223514e+01 
5.637270e+00 5.156444e+01 
5.672410e+00 5.090765e+01 
5.707020e+00 5.027178e+01 
5.742040e+00 4.964172e+01 
5.777430e+00 4.901633e+01 
5.812210e+00 4.841204e+01 
5.846820e+00 4.782244e+01 
5.881610e+00 4.723996e+01 
5.916510e+00 4.666523e+01 
5.951600e+00 4.609635e+01 
5.986560e+00 4.553861e+01 
6.021830e+00 4.498510e+01 
6.056490e+00 4.445274e+01 
6.091160e+00 4.393105e+01 
6.125830e+00 4.341760e+01 
6.161090e+00 4.290262e+01 
6.195760e+00 4.240199e+01 
6.230420e+00 4.190931e+01 
6.265690e+00 4.141588e+01 
6.300950e+00 4.093238e+01 
6.335620e+00 4.046433e+01 
6.370880e+00 3.999564e+01 
6.405550e+00 3.954314e+01 
6.440220e+00 3.909798e+01 
6.475480e+00 3.865212e+01 
6.510150e+00 3.822018e+01 
6.544810e+00 3.779447e+01 
6.580080e+00 3.736774e+01 
6.614750e+00 3.695452e+01 
6.649410e+00 3.654902e+01 
6.684080e+00 3.614963e+01 
6.719340e+00 3.574939e+01 
6.754010e+00 3.536142e+01 
6.788680e+00 3.497865e+01 
6.823940e+00 3.459499e+01 
6.859800e+00 3.421053e+01 
6.894470e+00 3.384528e+01 
6.929140e+00 3.348560e+01 
6.963800e+00 3.313108e+01 
6.999070e+00 3.277540e+01 
7.033730e+00 3.243048e+01 
7.068400e+00 3.209027e+01 
7.103660e+00 3.174910e+01 
7.138330e+00 3.141876e+01 
7.173600e+00 3.108830e+01 
7.208260e+00 3.076804e+01 
7.243530e+00 3.044660e+01 
7.277600e+00 3.014018e+01 
7.312860e+00 2.982722e+01 
7.348120e+00 2.951854e+01 
7.382790e+00 2.921912e+01 
7.417460e+00 2.892446e+01 
7.452720e+00 2.862918e+01 
7.487390e+00 2.834272e+01 
7.522650e+00 2.805524e+01 
7.557320e+00 2.777612e+01 
7.591990e+00 2.750057e+01 
7.627250e+00 2.722400e+01 
7.662510e+00 2.695109e+01 
7.697180e+00 2.668606e+01 
7.731850e+00 2.642438e+01 
7.766510e+00 2.616613e+01 
7.801180e+00 2.591111e+01 
7.836440e+00 2.565583e+01 
7.871110e+00 2.540849e+01 
7.906380e+00 2.516008e+01 
7.941040e+00 2.491904e+01 
7.976310e+00 2.467614e+01 
8.011570e+00 2.443552e+01 
8.046240e+00 2.420190e+01 
8.080900e+00 2.397124e+01 
8.115570e+00 2.374385e+01 
8.150830e+00 2.351729e+01 
8.185500e+00 2.329725e+01 
8.220770e+00 2.307616e+01 
8.255430e+00 2.286156e+01 
8.290100e+00 2.264852e+01 
8.324770e+00 2.243795e+01 
8.359430e+00 2.222998e+01 
8.394700e+00 2.202090e+01 
8.429960e+00 2.181484e+01 
8.464630e+00 2.161508e+01 
8.499890e+00 2.141435e+01 
8.534560e+00 2.121933e+01 
8.569200e+00 2.102677e+01 
