# Parameters:
# omega_b = 0.023421, omega_m = 0.140669, n_s = 0.988583, h = 72.007874, w = -1.000000, sigma_8 = 0.841732
# z = 0.100000
#
# k[1/Mpc] # P(k):
8.694000e-04 1.307347e+04 
2.077466e-03 2.851845e+04 
3.285532e-03 4.080688e+04 
4.493598e-03 5.039484e+04 
5.701664e-03 5.758863e+04 
6.909730e-03 6.275720e+04 
8.117797e-03 6.633477e+04 
9.325863e-03 6.854147e+04 
1.053393e-02 6.959252e+04 
1.174199e-02 6.968766e+04 
1.295006e-02 6.896060e+04 
1.415813e-02 6.759668e+04 
1.536619e-02 6.575304e+04 
1.657426e-02 6.355357e+04 
1.778233e-02 6.113093e+04 
1.899039e-02 5.858011e+04 
2.019846e-02 5.591379e+04 
2.140652e-02 5.324093e+04 
2.261459e-02 5.064259e+04 
2.382266e-02 4.817572e+04 
2.503072e-02 4.587401e+04 
2.623879e-02 4.374932e+04 
2.744685e-02 4.180823e+04 
2.865492e-02 4.005159e+04 
2.986299e-02 3.847209e+04 
3.100100e-02 3.714157e+04 
3.220400e-02 3.588781e+04 
3.288100e-02 3.524849e+04 
3.424300e-02 3.408872e+04 
3.555100e-02 3.310987e+04 
3.686000e-02 3.224246e+04 
3.795000e-02 3.159351e+04 
3.929100e-02 3.086168e+04 
4.039800e-02 3.029362e+04 
4.164000e-02 2.969129e+04 
4.294400e-02 2.906125e+04 
4.415000e-02 2.848861e+04 
4.542900e-02 2.785796e+04 
4.660900e-02 2.726911e+04 
4.782300e-02 2.661659e+04 
4.892900e-02 2.601196e+04 
5.031200e-02 2.522165e+04 
5.155900e-02 2.447702e+04 
5.238100e-02 2.397591e+04 
5.378200e-02 2.311183e+04 
5.513400e-02 2.226840e+04 
5.627600e-02 2.155564e+04 
5.735300e-02 2.089352e+04 
5.870100e-02 2.008655e+04 
5.988700e-02 1.940422e+04 
6.113500e-02 1.871598e+04 
6.225900e-02 1.813004e+04 
6.340100e-02 1.756857e+04 
6.480200e-02 1.692591e+04 
6.601100e-02 1.642083e+04 
6.725500e-02 1.594496e+04 
6.829100e-02 1.558640e+04 
6.958600e-02 1.517239e+04 
7.071100e-02 1.485103e+04 
7.192300e-02 1.453776e+04 
7.307400e-02 1.426702e+04 
7.412300e-02 1.404122e+04 
7.550400e-02 1.377487e+04 
7.663100e-02 1.357489e+04 
7.791200e-02 1.336463e+04 
7.912700e-02 1.317813e+04 
8.027600e-02 1.300879e+04 
8.138400e-02 1.284961e+04 
8.272200e-02 1.265910e+04 
8.406100e-02 1.246576e+04 
8.534100e-02 1.227573e+04 
8.653800e-02 1.209059e+04 
8.759800e-02 1.192344e+04 
8.900300e-02 1.169517e+04 
9.009000e-02 1.150988e+04 
9.113300e-02 1.132746e+04 
9.239600e-02 1.110430e+04 
9.358000e-02 1.089015e+04 
9.496100e-02 1.063591e+04 
9.608400e-02 1.042988e+04 
9.727500e-02 1.021348e+04 
9.852600e-02 9.986468e+03 
9.973800e-02 9.773849e+03 
1.009000e-01 9.576571e+03 
1.020900e-01 9.381502e+03 
1.034000e-01 9.175900e+03 
1.046000e-01 8.996152e+03 
1.057200e-01 8.839854e+03 
1.069100e-01 8.681040e+03 
1.082500e-01 8.515676e+03 
1.093900e-01 8.384508e+03 
1.105400e-01 8.258795e+03 
1.116900e-01 8.144483e+03 
1.129600e-01 8.024297e+03 
1.142000e-01 7.916908e+03 
1.153300e-01 7.823315e+03 
1.166400e-01 7.720395e+03 
1.177800e-01 7.635683e+03 
1.190000e-01 7.548436e+03 
1.201200e-01 7.469562e+03 
1.213400e-01 7.385555e+03 
1.227100e-01 7.291575e+03 
1.238900e-01 7.211754e+03 
1.250700e-01 7.130608e+03 
1.263200e-01 7.045424e+03 
1.275500e-01 6.960823e+03 
1.287500e-01 6.877990e+03 
1.299900e-01 6.790876e+03 
1.311300e-01 6.711325e+03 
1.323500e-01 6.626179e+03 
1.335900e-01 6.540258e+03 
1.347100e-01 6.462557e+03 
1.359800e-01 6.375815e+03 
1.372100e-01 6.292592e+03 
1.384300e-01 6.211460e+03 
1.395700e-01 6.136285e+03 
1.407700e-01 6.058830e+03 
1.420300e-01 5.979655e+03 
1.432800e-01 5.902820e+03 
1.444500e-01 5.832820e+03 
1.456300e-01 5.763638e+03 
1.468900e-01 5.692629e+03 
1.480500e-01 5.628977e+03 
1.491700e-01 5.569116e+03 
1.503800e-01 5.506237e+03 
1.516400e-01 5.442489e+03 
1.528200e-01 5.385774e+03 
1.540200e-01 5.329193e+03 
1.551900e-01 5.276294e+03 
1.564300e-01 5.221588e+03 
1.576600e-01 5.168788e+03 
1.588700e-01 5.118333e+03 
1.600900e-01 5.068434e+03 
1.612700e-01 5.021564e+03 
1.625400e-01 4.972049e+03 
1.637600e-01 4.925655e+03 
1.649500e-01 4.881376e+03 
1.662200e-01 4.834901e+03 
1.674000e-01 4.792071e+03 
1.685000e-01 4.752805e+03 
1.697500e-01 4.708692e+03 
1.710300e-01 4.664092e+03 
1.722200e-01 4.623354e+03 
1.734400e-01 4.581278e+03 
1.746400e-01 4.540551e+03 
1.758700e-01 4.499293e+03 
1.770900e-01 4.458617e+03 
1.782700e-01 4.419925e+03 
1.794600e-01 4.381184e+03 
1.807000e-01 4.341245e+03 
1.819100e-01 4.302917e+03 
1.830100e-01 4.268416e+03 
1.842200e-01 4.231016e+03 
1.855000e-01 4.192118e+03 
1.867000e-01 4.156580e+03 
1.879200e-01 4.121020e+03 
1.890900e-01 4.087437e+03 
1.902800e-01 4.053750e+03 
1.915200e-01 4.019194e+03 
1.926900e-01 3.987269e+03 
1.939000e-01 3.955338e+03 
1.951700e-01 3.922345e+03 
1.963100e-01 3.893218e+03 
1.975100e-01 3.863121e+03 
1.987800e-01 3.831753e+03 
2.000100e-01 3.801878e+03 
2.012500e-01 3.772306e+03 
2.023400e-01 3.746677e+03 
2.036100e-01 3.717319e+03 
2.048900e-01 3.688487e+03 
2.060400e-01 3.662957e+03 
2.072200e-01 3.637132e+03 
2.084200e-01 3.611358e+03 
2.096900e-01 3.584473e+03 
2.109200e-01 3.558813e+03 
2.121100e-01 3.534234e+03 
2.132700e-01 3.510593e+03 
2.145200e-01 3.485468e+03 
2.157200e-01 3.461659e+03 
2.168800e-01 3.438940e+03 
2.180700e-01 3.415940e+03 
2.193400e-01 3.391720e+03 
2.206000e-01 3.368007e+03 
2.217500e-01 3.346652e+03 
2.229500e-01 3.324655e+03 
2.241400e-01 3.303168e+03 
2.253500e-01 3.281606e+03 
2.264900e-01 3.261548e+03 
2.277100e-01 3.240483e+03 
2.289900e-01 3.218818e+03 
2.301500e-01 3.199439e+03 
2.313600e-01 3.179478e+03 
2.325600e-01 3.159989e+03 
2.337700e-01 3.140585e+03 
2.350000e-01 3.121111e+03 
2.362000e-01 3.102545e+03 
2.374100e-01 3.084288e+03 
2.386500e-01 3.065813e+03 
2.399100e-01 3.047279e+03 
2.410400e-01 3.030990e+03 
2.422500e-01 3.013770e+03 
2.435000e-01 2.996202e+03 
2.447300e-01 2.979162e+03 
2.458700e-01 2.963687e+03 
2.470600e-01 2.947720e+03 
2.483300e-01 2.930887e+03 
2.495600e-01 2.914813e+03 
2.507600e-01 2.899358e+03 
2.519600e-01 2.884084e+03 
2.532200e-01 2.868237e+03 
2.543700e-01 2.853961e+03 
2.555500e-01 2.839488e+03 
2.568000e-01 2.824336e+03 
2.580100e-01 2.809841e+03 
2.592400e-01 2.795182e+03 
2.604100e-01 2.781355e+03 
2.616100e-01 2.767332e+03 
2.628400e-01 2.753121e+03 
2.640600e-01 2.739274e+03 
2.652200e-01 2.726289e+03 
2.664300e-01 2.712892e+03 
2.676500e-01 2.699536e+03 
2.688400e-01 2.686469e+03 
2.700700e-01 2.672997e+03 
2.712400e-01 2.660322e+03 
2.724800e-01 2.647035e+03 
2.736700e-01 2.634361e+03 
2.748800e-01 2.621548e+03 
2.761000e-01 2.608768e+03 
2.773200e-01 2.596128e+03 
2.785400e-01 2.583621e+03 
2.797000e-01 2.571848e+03 
2.808900e-01 2.559896e+03 
2.821400e-01 2.547474e+03 
2.833900e-01 2.535179e+03 
2.845500e-01 2.523698e+03 
2.857800e-01 2.511650e+03 
2.870300e-01 2.499535e+03 
2.882100e-01 2.488218e+03 
2.893900e-01 2.476961e+03 
2.906300e-01 2.465224e+03 
2.918900e-01 2.453423e+03 
2.930500e-01 2.442669e+03 
2.942500e-01 2.431641e+03 
2.954200e-01 2.420949e+03 
2.966500e-01 2.409820e+03 
2.978900e-01 2.398716e+03 
2.990400e-01 2.388519e+03 
3.002700e-01 2.377674e+03 
3.015100e-01 2.366830e+03 
3.026800e-01 2.356699e+03 
3.038500e-01 2.346663e+03 
3.050300e-01 2.336637e+03 
3.062600e-01 2.326228e+03 
3.075000e-01 2.315837e+03 
3.087000e-01 2.305880e+03 
3.099100e-01 2.295935e+03 
3.111200e-01 2.286066e+03 
3.123100e-01 2.276418e+03 
3.135300e-01 2.266619e+03 
3.147300e-01 2.257073e+03 
3.159900e-01 2.247145e+03 
3.171800e-01 2.237942e+03 
3.183700e-01 2.228877e+03 
3.196300e-01 2.219370e+03 
3.208400e-01 2.210327e+03 
3.220300e-01 2.201515e+03 
3.232000e-01 2.192809e+03 
3.244300e-01 2.183693e+03 
3.256700e-01 2.174589e+03 
3.269200e-01 2.165497e+03 
3.280800e-01 2.157136e+03 
3.292500e-01 2.148881e+03 
3.304800e-01 2.140312e+03 
3.317100e-01 2.131821e+03 
3.328900e-01 2.123749e+03 
3.340700e-01 2.115747e+03 
3.353600e-01 2.107090e+03 
3.365300e-01 2.099314e+03 
3.377100e-01 2.091538e+03 
3.389200e-01 2.083635e+03 
3.401600e-01 2.075607e+03 
3.413700e-01 2.067850e+03 
3.425300e-01 2.060482e+03 
3.437700e-01 2.052673e+03 
3.449800e-01 2.045120e+03 
3.461800e-01 2.037695e+03 
3.473600e-01 2.030440e+03 
3.485800e-01 2.022965e+03 
3.498100e-01 2.015495e+03 
3.510200e-01 2.008210e+03 
3.522000e-01 2.001165e+03 
3.533900e-01 1.994119e+03 
3.546400e-01 1.986860e+03 
3.558400e-01 1.979956e+03 
3.570600e-01 1.972995e+03 
3.582700e-01 1.966150e+03 
3.595000e-01 1.959250e+03 
3.607100e-01 1.952523e+03 
3.618900e-01 1.946020e+03 
3.631200e-01 1.939298e+03 
3.643200e-01 1.932793e+03 
3.655500e-01 1.926182e+03 
3.667300e-01 1.919891e+03 
3.679500e-01 1.913430e+03 
3.691900e-01 1.906918e+03 
3.703600e-01 1.900824e+03 
3.715700e-01 1.894571e+03 
3.727700e-01 1.888420e+03 
3.739900e-01 1.882226e+03 
3.752000e-01 1.876149e+03 
3.763900e-01 1.870220e+03 
3.775800e-01 1.864337e+03 
3.788200e-01 1.858256e+03 
3.800300e-01 1.852370e+03 
3.812100e-01 1.846633e+03 
3.824200e-01 1.840767e+03 
3.836100e-01 1.835043e+03 
3.848600e-01 1.829078e+03 
3.860400e-01 1.823491e+03 
3.872400e-01 1.817853e+03 
3.884600e-01 1.812166e+03 
3.896500e-01 1.806662e+03 
3.908700e-01 1.801063e+03 
3.920600e-01 1.795644e+03 
3.933100e-01 1.789995e+03 
3.945300e-01 1.784525e+03 
3.957200e-01 1.779237e+03 
3.969300e-01 1.773902e+03 
3.981700e-01 1.768478e+03 
3.993500e-01 1.763355e+03 
4.094840e-01 1.720523e+03 
4.272360e-01 1.650898e+03 
4.454600e-01 1.585010e+03 
4.630560e-01 1.526581e+03 
4.804610e-01 1.472812e+03 
4.980690e-01 1.422219e+03 
5.159230e-01 1.374442e+03 
5.317440e-01 1.334565e+03 
5.489640e-01 1.293908e+03 
5.671990e-01 1.253354e+03 
5.838690e-01 1.218429e+03 
6.018840e-01 1.182871e+03 
6.202330e-01 1.148696e+03 
6.379250e-01 1.117576e+03 
6.545410e-01 1.089632e+03 
6.714560e-01 1.062528e+03 
6.892080e-01 1.035327e+03 
7.066010e-01 1.009903e+03 
7.240540e-01 9.855106e+02 
7.420450e-01 9.611977e+02 
7.593780e-01 9.388768e+02 
7.764720e-01 9.176078e+02 
7.942840e-01 8.963429e+02 
8.116170e-01 8.762886e+02 
8.288310e-01 8.570620e+02 
8.462240e-01 8.382438e+02 
8.631980e-01 8.205615e+02 
8.810700e-01 8.024618e+02 
8.989410e-01 7.850000e+02 
9.166330e-01 7.682083e+02 
9.345640e-01 7.517012e+02 
9.515980e-01 7.364858e+02 
9.688720e-01 7.214567e+02 
9.865640e-01 7.064731e+02 
1.031870e+00 6.702312e+02 
1.063490e+00 6.463931e+02 
1.097920e+00 6.216990e+02 
1.134370e+00 5.969581e+02 
1.167730e+00 5.755480e+02 
1.203830e+00 5.535264e+02 
1.240470e+00 5.323734e+02 
1.275790e+00 5.129685e+02 
1.309140e+00 4.955767e+02 
1.342970e+00 4.787527e+02 
1.378420e+00 4.619779e+02 
1.413200e+00 4.462980e+02 
1.448110e+00 4.312751e+02 
1.484090e+00 4.165304e+02 
1.518820e+00 4.029382e+02 
1.552880e+00 3.902273e+02 
1.588630e+00 3.774981e+02 
1.623230e+00 3.657273e+02 
1.657720e+00 3.545300e+02 
1.692450e+00 3.437253e+02 
1.726400e+00 3.335976e+02 
1.762200e+00 3.233611e+02 
1.797880e+00 3.136017e+02 
1.833270e+00 3.043528e+02 
1.869070e+00 2.953564e+02 
1.903200e+00 2.871544e+02 
1.937740e+00 2.791696e+02 
1.973190e+00 2.712909e+02 
2.007440e+00 2.639847e+02 
2.042160e+00 2.568803e+02 
2.077900e+00 2.498052e+02 
2.112390e+00 2.432685e+02 
2.146220e+00 2.370855e+02 
2.181600e+00 2.308446e+02 
2.216930e+00 2.248681e+02 
2.250760e+00 2.193366e+02 
2.286500e+00 2.136914e+02 
2.321770e+00 2.083359e+02 
2.355950e+00 2.033222e+02 
2.391280e+00 1.983406e+02 
2.426240e+00 1.935575e+02 
2.460670e+00 1.890041e+02 
2.495640e+00 1.845493e+02 
2.531080e+00 1.801747e+02 
2.566220e+00 1.759776e+02 
2.600830e+00 1.719877e+02 
2.635080e+00 1.681785e+02 
2.670340e+00 1.643697e+02 
2.705970e+00 1.606434e+02 
2.740040e+00 1.571904e+02 
2.774520e+00 1.537957e+02 
2.809730e+00 1.504485e+02 
2.844390e+00 1.472583e+02 
2.879960e+00 1.440784e+02 
2.914860e+00 1.410486e+02 
2.949410e+00 1.381399e+02 
2.984440e+00 1.352857e+02 
3.019760e+00 1.324901e+02 
3.054730e+00 1.298020e+02 
3.089030e+00 1.272347e+02 
3.124060e+00 1.246862e+02 
3.159560e+00 1.221752e+02 
3.194710e+00 1.197660e+02 
3.229010e+00 1.174824e+02 
3.263320e+00 1.152547e+02 
3.297930e+00 1.130717e+02 
3.332830e+00 1.109361e+02 
3.368040e+00 1.088370e+02 
3.403300e+00 1.067896e+02 
3.438450e+00 1.047998e+02 
3.473060e+00 1.028916e+02 
3.508440e+00 1.009984e+02 
3.543110e+00 9.919111e+01 
3.577470e+00 9.744181e+01 
3.613040e+00 9.567892e+01 
3.648120e+00 9.398948e+01 
3.682910e+00 9.235462e+01 
3.718050e+00 9.074166e+01 
3.753320e+00 8.916543e+01 
3.787980e+00 8.765790e+01 
3.822290e+00 8.619999e+01 
3.857020e+00 8.475723e+01 
3.891920e+00 8.334083e+01 
3.926650e+00 8.196263e+01 
3.961970e+00 8.059550e+01 
3.997360e+00 7.926148e+01 
4.031670e+00 7.799897e+01 
4.066330e+00 7.675667e+01 
4.101420e+00 7.552740e+01 
4.136200e+00 7.433407e+01 
4.170810e+00 7.317299e+01 
4.206250e+00 7.201415e+01 
4.241580e+00 7.088534e+01 
4.276300e+00 6.979857e+01 
4.310970e+00 6.873578e+01 
4.346120e+00 6.768313e+01 
4.380600e+00 6.667528e+01 
4.414730e+00 6.569840e+01 
4.450350e+00 6.469864e+01 
4.485320e+00 6.373789e+01 
4.519810e+00 6.281228e+01 
4.555430e+00 6.187720e+01 
4.590870e+00 6.096563e+01 
4.625480e+00 6.009239e+01 
4.659910e+00 5.924104e+01 
4.695230e+00 5.838846e+01 
4.729960e+00 5.756735e+01 
4.764450e+00 5.676893e+01 
4.799530e+00 5.597445e+01 
4.834910e+00 5.518893e+01 
4.869700e+00 5.443416e+01 
4.904370e+00 5.369679e+01 
4.939450e+00 5.296445e+01 
4.973940e+00 5.225685e+01 
5.008430e+00 5.156242e+01 
5.043810e+00 5.086274e+01 
5.078840e+00 5.018258e+01 
5.113500e+00 4.952205e+01 
5.148890e+00 4.886620e+01 
5.184210e+00 4.822399e+01 
5.219060e+00 4.760151e+01 
5.253660e+00 4.699362e+01 
5.288570e+00 4.639121e+01 
5.323420e+00 4.580007e+01 
5.358440e+00 4.521604e+01 
5.393590e+00 4.464020e+01 
5.428310e+00 4.408499e+01 
5.462800e+00 4.354484e+01 
5.497640e+00 4.300854e+01 
5.532670e+00 4.247759e+01 
5.567280e+00 4.196161e+01 
5.602000e+00 4.145270e+01 
5.637270e+00 4.094383e+01 
5.672410e+00 4.044526e+01 
5.707020e+00 3.996240e+01 
5.742040e+00 3.948361e+01 
5.777430e+00 3.900815e+01 
5.812210e+00 3.854858e+01 
5.846820e+00 3.809984e+01 
5.881610e+00 3.765632e+01 
5.916510e+00 3.721855e+01 
5.951600e+00 3.678486e+01 
5.986560e+00 3.635942e+01 
6.021830e+00 3.593706e+01 
6.056490e+00 3.553067e+01 
6.091160e+00 3.513227e+01 
6.125830e+00 3.474003e+01 
6.161090e+00 3.434639e+01 
6.195760e+00 3.396337e+01 
6.230420e+00 3.358630e+01 
6.265690e+00 3.320853e+01 
6.300950e+00 3.283807e+01 
6.335620e+00 3.247932e+01 
6.370880e+00 3.211996e+01 
6.405550e+00 3.177281e+01 
6.440220e+00 3.143117e+01 
6.475480e+00 3.108887e+01 
6.510150e+00 3.075708e+01 
6.544810e+00 3.042980e+01 
6.580080e+00 3.010164e+01 
6.614750e+00 2.978376e+01 
6.649410e+00 2.947161e+01 
6.684080e+00 2.916405e+01 
6.719340e+00 2.885573e+01 
6.754010e+00 2.855671e+01 
6.788680e+00 2.826146e+01 
6.823940e+00 2.796543e+01 
6.859800e+00 2.766868e+01 
6.894470e+00 2.738660e+01 
6.929140e+00 2.710869e+01 
6.963800e+00 2.683468e+01 
6.999070e+00 2.655969e+01 
7.033730e+00 2.629278e+01 
7.068400e+00 2.602942e+01 
7.103660e+00 2.576523e+01 
7.138330e+00 2.550931e+01 
7.173600e+00 2.525313e+01 
7.208260e+00 2.500476e+01 
7.243530e+00 2.475541e+01 
7.277600e+00 2.451756e+01 
7.312860e+00 2.427449e+01 
7.348120e+00 2.403467e+01 
7.382790e+00 2.380197e+01 
7.417460e+00 2.357281e+01 
7.452720e+00 2.334308e+01 
7.487390e+00 2.312013e+01 
7.522650e+00 2.289632e+01 
7.557320e+00 2.267884e+01 
7.591990e+00 2.246403e+01 
7.627250e+00 2.224836e+01 
7.662510e+00 2.203547e+01 
7.697180e+00 2.182855e+01 
7.731850e+00 2.162413e+01 
7.766510e+00 2.142234e+01 
7.801180e+00 2.122300e+01 
7.836440e+00 2.102333e+01 
7.871110e+00 2.082979e+01 
7.906380e+00 2.063533e+01 
7.941040e+00 2.044661e+01 
7.976310e+00 2.025626e+01 
8.011570e+00 2.006754e+01 
8.046240e+00 1.988426e+01 
8.080900e+00 1.970324e+01 
8.115570e+00 1.952473e+01 
8.150830e+00 1.934675e+01 
8.185500e+00 1.917385e+01 
8.220770e+00 1.900007e+01 
8.255430e+00 1.883134e+01 
8.290100e+00 1.866363e+01 
8.324770e+00 1.849780e+01 
8.359430e+00 1.833396e+01 
8.394700e+00 1.816921e+01 
8.429960e+00 1.800673e+01 
8.464630e+00 1.784912e+01 
8.499890e+00 1.769069e+01 
8.534560e+00 1.753673e+01 
8.569200e+00 1.738467e+01 
