# Parameters:
# omega_b = 0.022177, omega_m = 0.139567, n_s = 0.887795, h = 77.204724, w = -1.000000, sigma_8 = 0.786614
# z = 0.100000
#
# k[1/Mpc] # P(k):
8.694000e-04 1.698693e+04 
2.077466e-03 3.383833e+04 
3.285532e-03 4.621955e+04 
4.493598e-03 5.527472e+04 
5.701664e-03 6.166272e+04 
6.909730e-03 6.591732e+04 
8.117797e-03 6.856294e+04 
9.325863e-03 6.987106e+04 
1.053393e-02 7.009230e+04 
1.174199e-02 6.944998e+04 
1.295006e-02 6.808763e+04 
1.415813e-02 6.619122e+04 
1.536619e-02 6.391533e+04 
1.657426e-02 6.142619e+04 
1.778233e-02 5.900721e+04 
1.899039e-02 5.662913e+04 
2.019846e-02 5.395590e+04 
2.140652e-02 5.110704e+04 
2.261459e-02 4.831615e+04 
2.382266e-02 4.569047e+04 
2.503072e-02 4.326402e+04 
2.623879e-02 4.104297e+04 
2.744685e-02 3.902915e+04 
2.865492e-02 3.721778e+04 
2.986299e-02 3.559754e+04 
3.100100e-02 3.423931e+04 
3.220400e-02 3.296488e+04 
3.288100e-02 3.231765e+04 
3.424300e-02 3.114760e+04 
3.555100e-02 3.016516e+04 
3.686000e-02 2.929957e+04 
3.795000e-02 2.865511e+04 
3.929100e-02 2.793349e+04 
4.039800e-02 2.737688e+04 
4.164000e-02 2.678907e+04 
4.294400e-02 2.617802e+04 
4.415000e-02 2.562364e+04 
4.542900e-02 2.501441e+04 
4.660900e-02 2.444564e+04 
4.782300e-02 2.381562e+04 
4.892900e-02 2.323112e+04 
5.031200e-02 2.246717e+04 
5.155900e-02 2.174749e+04 
5.238100e-02 2.126347e+04 
5.378200e-02 2.042975e+04 
5.513400e-02 1.961794e+04 
5.627600e-02 1.893421e+04 
5.735300e-02 1.830124e+04 
5.870100e-02 1.753322e+04 
5.988700e-02 1.688723e+04 
6.113500e-02 1.623952e+04 
6.225900e-02 1.569143e+04 
6.340100e-02 1.516963e+04 
6.480200e-02 1.457636e+04 
6.601100e-02 1.411375e+04 
6.725500e-02 1.368095e+04 
6.829100e-02 1.335709e+04 
6.958600e-02 1.298512e+04 
7.071100e-02 1.269793e+04 
7.192300e-02 1.241905e+04 
7.307400e-02 1.217874e+04 
7.412300e-02 1.197859e+04 
7.550400e-02 1.174238e+04 
7.663100e-02 1.156474e+04 
7.791200e-02 1.137722e+04 
7.912700e-02 1.120992e+04 
8.027600e-02 1.105727e+04 
8.138400e-02 1.091320e+04 
8.272200e-02 1.074018e+04 
8.406100e-02 1.056435e+04 
8.534100e-02 1.039152e+04 
8.653800e-02 1.022356e+04 
8.759800e-02 1.007226e+04 
8.900300e-02 9.866341e+03 
9.009000e-02 9.699978e+03 
9.113300e-02 9.536729e+03 
9.239600e-02 9.337527e+03 
9.358000e-02 9.146970e+03 
9.496100e-02 8.921257e+03 
9.608400e-02 8.738582e+03 
9.727500e-02 8.546900e+03 
9.852600e-02 8.345754e+03 
9.973800e-02 8.157275e+03 
1.009000e-01 7.982325e+03 
1.020900e-01 7.809110e+03 
1.034000e-01 7.626501e+03 
1.046000e-01 7.466781e+03 
1.057200e-01 7.327829e+03 
1.069100e-01 7.186704e+03 
1.082500e-01 7.039859e+03 
1.093900e-01 6.923630e+03 
1.105400e-01 6.812391e+03 
1.116900e-01 6.711646e+03 
1.129600e-01 6.605918e+03 
1.142000e-01 6.511976e+03 
1.153300e-01 6.430377e+03 
1.166400e-01 6.341069e+03 
1.177800e-01 6.267877e+03 
1.190000e-01 6.192644e+03 
1.201200e-01 6.125001e+03 
1.213400e-01 6.053016e+03 
1.227100e-01 5.972697e+03 
1.238900e-01 5.904483e+03 
1.250700e-01 5.835140e+03 
1.263200e-01 5.762286e+03 
1.275500e-01 5.689801e+03 
1.287500e-01 5.618748e+03 
1.299900e-01 5.543898e+03 
1.311300e-01 5.475413e+03 
1.323500e-01 5.401917e+03 
1.335900e-01 5.327630e+03 
1.347100e-01 5.260290e+03 
1.359800e-01 5.185015e+03 
1.372100e-01 5.112582e+03 
1.384300e-01 5.041924e+03 
1.395700e-01 4.976317e+03 
1.407700e-01 4.908725e+03 
1.420300e-01 4.839459e+03 
1.432800e-01 4.772265e+03 
1.444500e-01 4.711003e+03 
1.456300e-01 4.650478e+03 
1.468900e-01 4.588406e+03 
1.480500e-01 4.532791e+03 
1.491700e-01 4.480575e+03 
1.503800e-01 4.425834e+03 
1.516400e-01 4.370392e+03 
1.528200e-01 4.321253e+03 
1.540200e-01 4.272240e+03 
1.551900e-01 4.226645e+03 
1.564300e-01 4.179556e+03 
1.576600e-01 4.134251e+03 
1.588700e-01 4.091130e+03 
1.600900e-01 4.048501e+03 
1.612700e-01 4.008700e+03 
1.625400e-01 3.966657e+03 
1.637600e-01 3.927373e+03 
1.649500e-01 3.889948e+03 
1.662200e-01 3.850679e+03 
1.674000e-01 3.814558e+03 
1.685000e-01 3.781446e+03 
1.697500e-01 3.744257e+03 
1.710300e-01 3.706667e+03 
1.722200e-01 3.672336e+03 
1.734400e-01 3.636833e+03 
1.746400e-01 3.602470e+03 
1.758700e-01 3.567638e+03 
1.770900e-01 3.533252e+03 
1.782700e-01 3.500546e+03 
1.794600e-01 3.467749e+03 
1.807000e-01 3.433906e+03 
1.819100e-01 3.401431e+03 
1.830100e-01 3.372149e+03 
1.842200e-01 3.340402e+03 
1.855000e-01 3.307385e+03 
1.867000e-01 3.277149e+03 
1.879200e-01 3.246899e+03 
1.890900e-01 3.218331e+03 
1.902800e-01 3.189665e+03 
1.915200e-01 3.160264e+03 
1.926900e-01 3.133096e+03 
1.939000e-01 3.105897e+03 
1.951700e-01 3.077797e+03 
1.963100e-01 3.052997e+03 
1.975100e-01 3.027386e+03 
1.987800e-01 3.000695e+03 
2.000100e-01 2.975286e+03 
2.012500e-01 2.950157e+03 
2.023400e-01 2.928381e+03 
2.036100e-01 2.903444e+03 
2.048900e-01 2.878977e+03 
2.060400e-01 2.857314e+03 
2.072200e-01 2.835405e+03 
2.084200e-01 2.813582e+03 
2.096900e-01 2.790821e+03 
2.109200e-01 2.769098e+03 
2.121100e-01 2.748364e+03 
2.132700e-01 2.728427e+03 
2.145200e-01 2.707239e+03 
2.157200e-01 2.687207e+03 
2.168800e-01 2.668113e+03 
2.180700e-01 2.648785e+03 
2.193400e-01 2.628462e+03 
2.206000e-01 2.608619e+03 
2.217500e-01 2.590751e+03 
2.229500e-01 2.572346e+03 
2.241400e-01 2.554430e+03 
2.253500e-01 2.536453e+03 
2.264900e-01 2.519732e+03 
2.277100e-01 2.502192e+03 
2.289900e-01 2.484178e+03 
2.301500e-01 2.468065e+03 
2.313600e-01 2.451469e+03 
2.325600e-01 2.435295e+03 
2.337700e-01 2.419192e+03 
2.350000e-01 2.403031e+03 
2.362000e-01 2.387617e+03 
2.374100e-01 2.372449e+03 
2.386500e-01 2.357101e+03 
2.399100e-01 2.341705e+03 
2.410400e-01 2.328153e+03 
2.422500e-01 2.313825e+03 
2.435000e-01 2.299205e+03 
2.447300e-01 2.285018e+03 
2.458700e-01 2.272103e+03 
2.470600e-01 2.258776e+03 
2.483300e-01 2.244726e+03 
2.495600e-01 2.231296e+03 
2.507600e-01 2.218362e+03 
2.519600e-01 2.205579e+03 
2.532200e-01 2.192317e+03 
2.543700e-01 2.180357e+03 
2.555500e-01 2.168225e+03 
2.568000e-01 2.155522e+03 
2.580100e-01 2.143369e+03 
2.592400e-01 2.131083e+03 
2.604100e-01 2.119497e+03 
2.616100e-01 2.107745e+03 
2.628400e-01 2.095835e+03 
2.640600e-01 2.084231e+03 
2.652200e-01 2.073349e+03 
2.664300e-01 2.062121e+03 
2.676500e-01 2.050925e+03 
2.688400e-01 2.039997e+03 
2.700700e-01 2.028745e+03 
2.712400e-01 2.018158e+03 
2.724800e-01 2.007059e+03 
2.736700e-01 1.996486e+03 
2.748800e-01 1.985810e+03 
2.761000e-01 1.975162e+03 
2.773200e-01 1.964629e+03 
2.785400e-01 1.954212e+03 
2.797000e-01 1.944419e+03 
2.808900e-01 1.934474e+03 
2.821400e-01 1.924139e+03 
2.833900e-01 1.913910e+03 
2.845500e-01 1.904379e+03 
2.857800e-01 1.894377e+03 
2.870300e-01 1.884319e+03 
2.882100e-01 1.874923e+03 
2.893900e-01 1.865584e+03 
2.906300e-01 1.855852e+03 
2.918900e-01 1.846066e+03 
2.930500e-01 1.837148e+03 
2.942500e-01 1.828005e+03 
2.954200e-01 1.819151e+03 
2.966500e-01 1.809935e+03 
2.978900e-01 1.800738e+03 
2.990400e-01 1.792292e+03 
3.002700e-01 1.783315e+03 
3.015100e-01 1.774342e+03 
3.026800e-01 1.765957e+03 
3.038500e-01 1.757651e+03 
3.050300e-01 1.749353e+03 
3.062600e-01 1.740761e+03 
3.075000e-01 1.732184e+03 
3.087000e-01 1.723964e+03 
3.099100e-01 1.715754e+03 
3.111200e-01 1.707610e+03 
3.123100e-01 1.699656e+03 
3.135300e-01 1.691579e+03 
3.147300e-01 1.683708e+03 
3.159900e-01 1.675523e+03 
3.171800e-01 1.667932e+03 
3.183700e-01 1.660455e+03 
3.196300e-01 1.652611e+03 
3.208400e-01 1.645150e+03 
3.220300e-01 1.637879e+03 
3.232000e-01 1.630727e+03 
3.244300e-01 1.623249e+03 
3.256700e-01 1.615781e+03 
3.269200e-01 1.608323e+03 
3.280800e-01 1.601464e+03 
3.292500e-01 1.594689e+03 
3.304800e-01 1.587656e+03 
3.317100e-01 1.580686e+03 
3.328900e-01 1.574060e+03 
3.340700e-01 1.567491e+03 
3.353600e-01 1.560401e+03 
3.365300e-01 1.554038e+03 
3.377100e-01 1.547676e+03 
3.389200e-01 1.541208e+03 
3.401600e-01 1.534639e+03 
3.413700e-01 1.528303e+03 
3.425300e-01 1.522294e+03 
3.437700e-01 1.515925e+03 
3.449800e-01 1.509764e+03 
3.461800e-01 1.503707e+03 
3.473600e-01 1.497793e+03 
3.485800e-01 1.491714e+03 
3.498100e-01 1.485638e+03 
3.510200e-01 1.479712e+03 
3.522000e-01 1.473980e+03 
3.533900e-01 1.468248e+03 
3.546400e-01 1.462361e+03 
3.558400e-01 1.456763e+03 
3.570600e-01 1.451119e+03 
3.582700e-01 1.445567e+03 
3.595000e-01 1.439971e+03 
3.607100e-01 1.434525e+03 
3.618900e-01 1.429267e+03 
3.631200e-01 1.423831e+03 
3.643200e-01 1.418571e+03 
3.655500e-01 1.413224e+03 
3.667300e-01 1.408135e+03 
3.679500e-01 1.402935e+03 
3.691900e-01 1.397692e+03 
3.703600e-01 1.392785e+03 
3.715700e-01 1.387750e+03 
3.727700e-01 1.382797e+03 
3.739900e-01 1.377811e+03 
3.752000e-01 1.372922e+03 
3.763900e-01 1.368153e+03 
3.775800e-01 1.363420e+03 
3.788200e-01 1.358527e+03 
3.800300e-01 1.353791e+03 
3.812100e-01 1.349189e+03 
3.824200e-01 1.344494e+03 
3.836100e-01 1.339911e+03 
3.848600e-01 1.335136e+03 
3.860400e-01 1.330663e+03 
3.872400e-01 1.326148e+03 
3.884600e-01 1.321607e+03 
3.896500e-01 1.317217e+03 
3.908700e-01 1.312750e+03 
3.920600e-01 1.308427e+03 
3.933100e-01 1.303920e+03 
3.945300e-01 1.299555e+03 
3.957200e-01 1.295340e+03 
3.969300e-01 1.291091e+03 
3.981700e-01 1.286769e+03 
3.993500e-01 1.282686e+03 
4.094840e-01 1.248654e+03 
4.272360e-01 1.193613e+03 
4.454600e-01 1.141830e+03 
4.630560e-01 1.096082e+03 
4.804610e-01 1.054200e+03 
4.980690e-01 1.014936e+03 
5.159230e-01 9.780219e+02 
5.317440e-01 9.473382e+02 
5.489640e-01 9.161974e+02 
5.671990e-01 8.853264e+02 
5.838690e-01 8.588885e+02 
6.018840e-01 8.321086e+02 
6.202330e-01 8.065669e+02 
6.379250e-01 7.834218e+02 
6.545410e-01 7.628159e+02 
6.714560e-01 7.429293e+02 
6.892080e-01 7.231246e+02 
7.066010e-01 7.047176e+02 
7.240540e-01 6.871561e+02 
7.420450e-01 6.697826e+02 
7.593780e-01 6.539157e+02 
7.764720e-01 6.388704e+02 
7.942840e-01 6.239054e+02 
8.116170e-01 6.098532e+02 
8.288310e-01 5.964491e+02 
8.462240e-01 5.833728e+02 
8.631980e-01 5.711311e+02 
8.810700e-01 5.586394e+02 
8.989410e-01 5.466177e+02 
9.166330e-01 5.350885e+02 
9.345640e-01 5.237821e+02 
9.515980e-01 5.133778e+02 
9.688720e-01 5.031192e+02 
9.865640e-01 4.929045e+02 
1.031870e+00 4.682438e+02 
1.063490e+00 4.520461e+02 
1.097920e+00 4.352827e+02 
1.134370e+00 4.184844e+02 
1.167730e+00 4.039446e+02 
1.203830e+00 3.889789e+02 
1.240470e+00 3.745944e+02 
1.275790e+00 3.613846e+02 
1.309140e+00 3.495288e+02 
1.342970e+00 3.380466e+02 
1.378420e+00 3.265828e+02 
1.413200e+00 3.158470e+02 
1.448110e+00 3.055488e+02 
1.484090e+00 2.954233e+02 
1.518820e+00 2.860766e+02 
1.552880e+00 2.773186e+02 
1.588630e+00 2.685376e+02 
1.623230e+00 2.604036e+02 
1.657720e+00 2.526550e+02 
1.692450e+00 2.451700e+02 
1.726400e+00 2.381397e+02 
1.762200e+00 2.310245e+02 
1.797880e+00 2.242295e+02 
1.833270e+00 2.177831e+02 
1.869070e+00 2.115010e+02 
1.903200e+00 2.057677e+02 
1.937740e+00 2.001790e+02 
1.973190e+00 1.946575e+02 
2.007440e+00 1.895310e+02 
2.042160e+00 1.845399e+02 
2.077900e+00 1.795632e+02 
2.112390e+00 1.749608e+02 
2.146220e+00 1.706014e+02 
2.181600e+00 1.661962e+02 
2.216930e+00 1.619735e+02 
2.250760e+00 1.580611e+02 
2.286500e+00 1.540643e+02 
2.321770e+00 1.502695e+02 
2.355950e+00 1.467129e+02 
2.391280e+00 1.431756e+02 
2.426240e+00 1.397757e+02 
2.460670e+00 1.365363e+02 
2.495640e+00 1.333648e+02 
2.531080e+00 1.302470e+02 
2.566220e+00 1.272535e+02 
2.600830e+00 1.244056e+02 
2.635080e+00 1.216849e+02 
2.670340e+00 1.189614e+02 
2.705970e+00 1.162951e+02 
2.740040e+00 1.138230e+02 
2.774520e+00 1.113904e+02 
2.809730e+00 1.089902e+02 
2.844390e+00 1.067016e+02 
2.879960e+00 1.044183e+02 
2.914860e+00 1.022412e+02 
2.949410e+00 1.001500e+02 
2.984440e+00 9.809681e+01 
3.019760e+00 9.608446e+01 
3.054730e+00 9.414866e+01 
3.089030e+00 9.229816e+01 
3.124060e+00 9.046059e+01 
3.159560e+00 8.864910e+01 
3.194710e+00 8.691002e+01 
3.229010e+00 8.526112e+01 
3.263320e+00 8.365113e+01 
3.297930e+00 8.207315e+01 
3.332830e+00 8.052869e+01 
3.368040e+00 7.900988e+01 
3.403300e+00 7.752799e+01 
3.438450e+00 7.608690e+01 
3.473060e+00 7.470472e+01 
3.508440e+00 7.333247e+01 
3.543110e+00 7.202230e+01 
3.577470e+00 7.075336e+01 
3.613040e+00 6.947436e+01 
3.648120e+00 6.824804e+01 
3.682910e+00 6.706108e+01 
3.718050e+00 6.588954e+01 
3.753320e+00 6.474444e+01 
3.787980e+00 6.364893e+01 
3.822290e+00 6.258923e+01 
3.857020e+00 6.154018e+01 
3.891920e+00 6.051011e+01 
3.926650e+00 5.950745e+01 
3.961970e+00 5.851272e+01 
3.997360e+00 5.754173e+01 
4.031670e+00 5.662273e+01 
4.066330e+00 5.571814e+01 
4.101420e+00 5.482305e+01 
4.136200e+00 5.395377e+01 
4.170810e+00 5.310801e+01 
4.206250e+00 5.226358e+01 
4.241580e+00 5.144100e+01 
4.276300e+00 5.064890e+01 
4.310970e+00 4.987422e+01 
4.346120e+00 4.910686e+01 
4.380600e+00 4.837202e+01 
4.414730e+00 4.765979e+01 
4.450350e+00 4.693071e+01 
4.485320e+00 4.623011e+01 
4.519810e+00 4.555504e+01 
4.555430e+00 4.487304e+01 
4.590870e+00 4.420815e+01 
4.625480e+00 4.357108e+01 
4.659910e+00 4.295001e+01 
4.695230e+00 4.232802e+01 
4.729960e+00 4.172902e+01 
4.764450e+00 4.114657e+01 
4.799530e+00 4.056698e+01 
4.834910e+00 3.999396e+01 
4.869700e+00 3.944331e+01 
4.904370e+00 3.890537e+01 
4.939450e+00 3.837112e+01 
4.973940e+00 3.785493e+01 
5.008430e+00 3.734838e+01 
5.043810e+00 3.683802e+01 
5.078840e+00 3.634194e+01 
5.113500e+00 3.586019e+01 
5.148890e+00 3.538191e+01 
5.184210e+00 3.491360e+01 
5.219060e+00 3.445970e+01 
5.253660e+00 3.401644e+01 
5.288570e+00 3.357719e+01 
5.323420e+00 3.314624e+01 
5.358440e+00 3.272057e+01 
5.393590e+00 3.230089e+01 
5.428310e+00 3.189631e+01 
5.462800e+00 3.150275e+01 
5.497640e+00 3.111201e+01 
5.532670e+00 3.072524e+01 
5.567280e+00 3.034943e+01 
5.602000e+00 2.997878e+01 
5.637270e+00 2.960827e+01 
5.672410e+00 2.924529e+01 
5.707020e+00 2.889377e+01 
5.742040e+00 2.854529e+01 
5.777430e+00 2.819926e+01 
5.812210e+00 2.786482e+01 
5.846820e+00 2.753838e+01 
5.881610e+00 2.721578e+01 
5.916510e+00 2.689738e+01 
5.951600e+00 2.658208e+01 
5.986560e+00 2.627283e+01 
6.021830e+00 2.596584e+01 
6.056490e+00 2.567052e+01 
6.091160e+00 2.538107e+01 
6.125830e+00 2.509610e+01 
6.161090e+00 2.481018e+01 
6.195760e+00 2.453209e+01 
6.230420e+00 2.425834e+01 
6.265690e+00 2.398409e+01 
6.300950e+00 2.371529e+01 
6.335620e+00 2.345500e+01 
6.370880e+00 2.319428e+01 
6.405550e+00 2.294255e+01 
6.440220e+00 2.269487e+01 
6.475480e+00 2.244672e+01 
6.510150e+00 2.220623e+01 
6.544810e+00 2.196911e+01 
6.580080e+00 2.173136e+01 
6.614750e+00 2.150106e+01 
6.649410e+00 2.127508e+01 
6.684080e+00 2.105245e+01 
6.719340e+00 2.082928e+01 
6.754010e+00 2.061289e+01 
6.788680e+00 2.039933e+01 
6.823940e+00 2.018521e+01 
6.859800e+00 1.997058e+01 
6.894470e+00 1.976666e+01 
6.929140e+00 1.956580e+01 
6.963800e+00 1.936777e+01 
6.999070e+00 1.916904e+01 
7.033730e+00 1.897630e+01 
7.068400e+00 1.878614e+01 
7.103660e+00 1.859538e+01 
7.138330e+00 1.841064e+01 
7.173600e+00 1.822582e+01 
7.208260e+00 1.804664e+01 
7.243530e+00 1.786676e+01 
7.277600e+00 1.769524e+01 
7.312860e+00 1.752001e+01 
7.348120e+00 1.734713e+01 
7.382790e+00 1.717938e+01 
7.417460e+00 1.701430e+01 
7.452720e+00 1.684887e+01 
7.487390e+00 1.668832e+01 
7.522650e+00 1.652715e+01 
7.557320e+00 1.637063e+01 
7.591990e+00 1.621606e+01 
7.627250e+00 1.606088e+01 
7.662510e+00 1.590769e+01 
7.697180e+00 1.575890e+01 
7.731850e+00 1.561193e+01 
7.766510e+00 1.546685e+01 
7.801180e+00 1.532353e+01 
7.836440e+00 1.518007e+01 
7.871110e+00 1.504105e+01 
7.906380e+00 1.490138e+01 
7.941040e+00 1.476582e+01 
7.976310e+00 1.462915e+01 
8.011570e+00 1.449371e+01 
8.046240e+00 1.436217e+01 
8.080900e+00 1.423225e+01 
8.115570e+00 1.410415e+01 
8.150830e+00 1.397655e+01 
8.185500e+00 1.385259e+01 
8.220770e+00 1.372798e+01 
8.255430e+00 1.360700e+01 
8.290100e+00 1.348683e+01 
8.324770e+00 1.336802e+01 
8.359430e+00 1.325062e+01 
8.394700e+00 1.313257e+01 
8.429960e+00 1.301620e+01 
8.464630e+00 1.290337e+01 
8.499890e+00 1.278994e+01 
8.534560e+00 1.267971e+01 
8.569200e+00 1.257084e+01 
