# Parameters:
# omega_b = 0.023043, omega_m = 0.152520, n_s = 0.971260, h = 75.551181, w = -1.000000, sigma_8 = 0.884252
# z = 0.100000
#
# k[1/Mpc] # P(k):
8.694000e-04 1.145236e+04 
2.077466e-03 2.477029e+04 
3.285532e-03 3.544227e+04 
4.493598e-03 4.389760e+04 
5.701664e-03 5.037383e+04 
6.909730e-03 5.516389e+04 
8.117797e-03 5.861896e+04 
9.325863e-03 6.091528e+04 
1.053393e-02 6.222509e+04 
1.174199e-02 6.270808e+04 
1.295006e-02 6.247140e+04 
1.415813e-02 6.166603e+04 
1.536619e-02 6.042051e+04 
1.657426e-02 5.888862e+04 
1.778233e-02 5.734813e+04 
1.899039e-02 5.574330e+04 
2.019846e-02 5.372544e+04 
2.140652e-02 5.143125e+04 
2.261459e-02 4.910582e+04 
2.382266e-02 4.686463e+04 
2.503072e-02 4.475099e+04 
2.623879e-02 4.278016e+04 
2.744685e-02 4.096006e+04 
2.865492e-02 3.929794e+04 
2.986299e-02 3.779110e+04 
3.100100e-02 3.651162e+04 
3.220400e-02 3.529853e+04 
3.288100e-02 3.467723e+04 
3.424300e-02 3.354771e+04 
3.555100e-02 3.259409e+04 
3.686000e-02 3.175146e+04 
3.795000e-02 3.112459e+04 
3.929100e-02 3.042504e+04 
4.039800e-02 2.988827e+04 
4.164000e-02 2.932542e+04 
4.294400e-02 2.874463e+04 
4.415000e-02 2.822085e+04 
4.542900e-02 2.764695e+04 
4.660900e-02 2.711155e+04 
4.782300e-02 2.651542e+04 
4.892900e-02 2.596067e+04 
5.031200e-02 2.522958e+04 
5.155900e-02 2.453364e+04 
5.238100e-02 2.406157e+04 
5.378200e-02 2.324109e+04 
5.513400e-02 2.243164e+04 
5.627600e-02 2.174125e+04 
5.735300e-02 2.109528e+04 
5.870100e-02 2.030221e+04 
5.988700e-02 1.962712e+04 
6.113500e-02 1.894200e+04 
6.225900e-02 1.835535e+04 
6.340100e-02 1.779036e+04 
6.480200e-02 1.714077e+04 
6.601100e-02 1.662745e+04 
6.725500e-02 1.614169e+04 
6.829100e-02 1.577398e+04 
6.958600e-02 1.534814e+04 
7.071100e-02 1.501626e+04 
7.192300e-02 1.469178e+04 
7.307400e-02 1.441072e+04 
7.412300e-02 1.417602e+04 
7.550400e-02 1.389908e+04 
7.663100e-02 1.369149e+04 
7.791200e-02 1.347444e+04 
7.912700e-02 1.328373e+04 
8.027600e-02 1.311239e+04 
8.138400e-02 1.295309e+04 
8.272200e-02 1.276510e+04 
8.406100e-02 1.257714e+04 
8.534100e-02 1.239551e+04 
8.653800e-02 1.222063e+04 
8.759800e-02 1.206380e+04 
8.900300e-02 1.185085e+04 
9.009000e-02 1.167836e+04 
9.113300e-02 1.150852e+04 
9.239600e-02 1.130033e+04 
9.358000e-02 1.109958e+04 
9.496100e-02 1.085909e+04 
9.608400e-02 1.066261e+04 
9.727500e-02 1.045487e+04 
9.852600e-02 1.023316e+04 
9.973800e-02 1.002372e+04 
1.009000e-01 9.827908e+03 
1.020900e-01 9.630540e+03 
1.034000e-01 9.420882e+03 
1.046000e-01 9.235892e+03 
1.057200e-01 9.072587e+03 
1.069100e-01 8.905885e+03 
1.082500e-01 8.730300e+03 
1.093900e-01 8.590170e+03 
1.105400e-01 8.455361e+03 
1.116900e-01 8.332168e+03 
1.129600e-01 8.202585e+03 
1.142000e-01 8.086953e+03 
1.153300e-01 7.986590e+03 
1.166400e-01 7.876871e+03 
1.177800e-01 7.787614e+03 
1.190000e-01 7.696191e+03 
1.201200e-01 7.615262e+03 
1.213400e-01 7.529371e+03 
1.227100e-01 7.435758e+03 
1.238900e-01 7.356703e+03 
1.250700e-01 7.277741e+03 
1.263200e-01 7.195265e+03 
1.275500e-01 7.114257e+03 
1.287500e-01 7.035137e+03 
1.299900e-01 6.952225e+03 
1.311300e-01 6.876456e+03 
1.323500e-01 6.795280e+03 
1.335900e-01 6.713017e+03 
1.347100e-01 6.638175e+03 
1.359800e-01 6.554206e+03 
1.372100e-01 6.472828e+03 
1.384300e-01 6.393073e+03 
1.395700e-01 6.318195e+03 
1.407700e-01 6.240908e+03 
1.420300e-01 6.160581e+03 
1.432800e-01 6.082623e+03 
1.444500e-01 6.010432e+03 
1.456300e-01 5.939083e+03 
1.468900e-01 5.865229e+03 
1.480500e-01 5.798840e+03 
1.491700e-01 5.736244e+03 
1.503800e-01 5.670283e+03 
1.516400e-01 5.603412e+03 
1.528200e-01 5.543913e+03 
1.540200e-01 5.484556e+03 
1.551900e-01 5.429312e+03 
1.564300e-01 5.372243e+03 
1.576600e-01 5.317389e+03 
1.588700e-01 5.265245e+03 
1.600900e-01 5.213704e+03 
1.612700e-01 5.165843e+03 
1.625400e-01 5.115281e+03 
1.637600e-01 5.068223e+03 
1.649500e-01 5.023498e+03 
1.662200e-01 4.976614e+03 
1.674000e-01 4.933737e+03 
1.685000e-01 4.894429e+03 
1.697500e-01 4.850376e+03 
1.710300e-01 4.805942e+03 
1.722200e-01 4.765356e+03 
1.734400e-01 4.723483e+03 
1.746400e-01 4.682954e+03 
1.758700e-01 4.641865e+03 
1.770900e-01 4.601292e+03 
1.782700e-01 4.562695e+03 
1.794600e-01 4.523948e+03 
1.807000e-01 4.483932e+03 
1.819100e-01 4.445528e+03 
1.830100e-01 4.410780e+03 
1.842200e-01 4.373080e+03 
1.855000e-01 4.333861e+03 
1.867000e-01 4.297816e+03 
1.879200e-01 4.261748e+03 
1.890900e-01 4.227651e+03 
1.902800e-01 4.193274e+03 
1.915200e-01 4.158008e+03 
1.926900e-01 4.125392e+03 
1.939000e-01 4.092650e+03 
1.951700e-01 4.058820e+03 
1.963100e-01 4.028925e+03 
1.975100e-01 3.997959e+03 
1.987800e-01 3.965685e+03 
2.000100e-01 3.934934e+03 
2.012500e-01 3.904462e+03 
2.023400e-01 3.878053e+03 
2.036100e-01 3.847805e+03 
2.048900e-01 3.818113e+03 
2.060400e-01 3.791821e+03 
2.072200e-01 3.765229e+03 
2.084200e-01 3.738746e+03 
2.096900e-01 3.711121e+03 
2.109200e-01 3.684755e+03 
2.121100e-01 3.659584e+03 
2.132700e-01 3.635377e+03 
2.145200e-01 3.609651e+03 
2.157200e-01 3.585343e+03 
2.168800e-01 3.562180e+03 
2.180700e-01 3.538732e+03 
2.193400e-01 3.514075e+03 
2.206000e-01 3.490000e+03 
2.217500e-01 3.468320e+03 
2.229500e-01 3.445988e+03 
2.241400e-01 3.424258e+03 
2.253500e-01 3.402454e+03 
2.264900e-01 3.382172e+03 
2.277100e-01 3.360897e+03 
2.289900e-01 3.339045e+03 
2.301500e-01 3.319499e+03 
2.313600e-01 3.299366e+03 
2.325600e-01 3.279720e+03 
2.337700e-01 3.260160e+03 
2.350000e-01 3.240529e+03 
2.362000e-01 3.221802e+03 
2.374100e-01 3.203371e+03 
2.386500e-01 3.184721e+03 
2.399100e-01 3.166012e+03 
2.410400e-01 3.149510e+03 
2.422500e-01 3.132059e+03 
2.435000e-01 3.114255e+03 
2.447300e-01 3.096971e+03 
2.458700e-01 3.081207e+03 
2.470600e-01 3.064944e+03 
2.483300e-01 3.047798e+03 
2.495600e-01 3.031391e+03 
2.507600e-01 3.015565e+03 
2.519600e-01 2.999924e+03 
2.532200e-01 2.983699e+03 
2.543700e-01 2.969045e+03 
2.555500e-01 2.954167e+03 
2.568000e-01 2.938589e+03 
2.580100e-01 2.923687e+03 
2.592400e-01 2.908595e+03 
2.604100e-01 2.894349e+03 
2.616100e-01 2.879901e+03 
2.628400e-01 2.865260e+03 
2.640600e-01 2.850995e+03 
2.652200e-01 2.837617e+03 
2.664300e-01 2.823816e+03 
2.676500e-01 2.810056e+03 
2.688400e-01 2.796604e+03 
2.700700e-01 2.782741e+03 
2.712400e-01 2.769698e+03 
2.724800e-01 2.756025e+03 
2.736700e-01 2.742996e+03 
2.748800e-01 2.729837e+03 
2.761000e-01 2.716712e+03 
2.773200e-01 2.703731e+03 
2.785400e-01 2.690894e+03 
2.797000e-01 2.678829e+03 
2.808900e-01 2.666579e+03 
2.821400e-01 2.653849e+03 
2.833900e-01 2.641250e+03 
2.845500e-01 2.629503e+03 
2.857800e-01 2.617175e+03 
2.870300e-01 2.604780e+03 
2.882100e-01 2.593201e+03 
2.893900e-01 2.581692e+03 
2.906300e-01 2.569697e+03 
2.918900e-01 2.557637e+03 
2.930500e-01 2.546647e+03 
2.942500e-01 2.535377e+03 
2.954200e-01 2.524457e+03 
2.966500e-01 2.513090e+03 
2.978900e-01 2.501749e+03 
2.990400e-01 2.491334e+03 
3.002700e-01 2.480260e+03 
3.015100e-01 2.469187e+03 
3.026800e-01 2.458843e+03 
3.038500e-01 2.448596e+03 
3.050300e-01 2.438359e+03 
3.062600e-01 2.427728e+03 
3.075000e-01 2.417117e+03 
3.087000e-01 2.406948e+03 
3.099100e-01 2.396793e+03 
3.111200e-01 2.386714e+03 
3.123100e-01 2.376857e+03 
3.135300e-01 2.366847e+03 
3.147300e-01 2.357095e+03 
3.159900e-01 2.346954e+03 
3.171800e-01 2.337552e+03 
3.183700e-01 2.328292e+03 
3.196300e-01 2.318580e+03 
3.208400e-01 2.309342e+03 
3.220300e-01 2.300341e+03 
3.232000e-01 2.291441e+03 
3.244300e-01 2.282118e+03 
3.256700e-01 2.272807e+03 
3.269200e-01 2.263510e+03 
3.280800e-01 2.254960e+03 
3.292500e-01 2.246517e+03 
3.304800e-01 2.237754e+03 
3.317100e-01 2.229071e+03 
3.328900e-01 2.220816e+03 
3.340700e-01 2.212633e+03 
3.353600e-01 2.203775e+03 
3.365300e-01 2.195816e+03 
3.377100e-01 2.187859e+03 
3.389200e-01 2.179771e+03 
3.401600e-01 2.171556e+03 
3.413700e-01 2.163614e+03 
3.425300e-01 2.156067e+03 
3.437700e-01 2.148070e+03 
3.449800e-01 2.140335e+03 
3.461800e-01 2.132730e+03 
3.473600e-01 2.125298e+03 
3.485800e-01 2.117638e+03 
3.498100e-01 2.109982e+03 
3.510200e-01 2.102515e+03 
3.522000e-01 2.095295e+03 
3.533900e-01 2.088074e+03 
3.546400e-01 2.080631e+03 
3.558400e-01 2.073552e+03 
3.570600e-01 2.066415e+03 
3.582700e-01 2.059396e+03 
3.595000e-01 2.052322e+03 
3.607100e-01 2.045423e+03 
3.618900e-01 2.038751e+03 
3.631200e-01 2.031853e+03 
3.643200e-01 2.025180e+03 
3.655500e-01 2.018397e+03 
3.667300e-01 2.011944e+03 
3.679500e-01 2.005310e+03 
3.691900e-01 1.998625e+03 
3.703600e-01 1.992367e+03 
3.715700e-01 1.985948e+03 
3.727700e-01 1.979634e+03 
3.739900e-01 1.973274e+03 
3.752000e-01 1.967033e+03 
3.763900e-01 1.960944e+03 
3.775800e-01 1.954903e+03 
3.788200e-01 1.948659e+03 
3.800300e-01 1.942615e+03 
3.812100e-01 1.936721e+03 
3.824200e-01 1.930692e+03 
3.836100e-01 1.924810e+03 
3.848600e-01 1.918679e+03 
3.860400e-01 1.912938e+03 
3.872400e-01 1.907145e+03 
3.884600e-01 1.901298e+03 
3.896500e-01 1.895639e+03 
3.908700e-01 1.889882e+03 
3.920600e-01 1.884309e+03 
3.933100e-01 1.878502e+03 
3.945300e-01 1.872878e+03 
3.957200e-01 1.867439e+03 
3.969300e-01 1.861952e+03 
3.981700e-01 1.856373e+03 
3.993500e-01 1.851104e+03 
4.094840e-01 1.807037e+03 
4.272360e-01 1.735352e+03 
4.454600e-01 1.667455e+03 
4.630560e-01 1.607209e+03 
4.804610e-01 1.551724e+03 
4.980690e-01 1.499484e+03 
5.159230e-01 1.450117e+03 
5.317440e-01 1.408882e+03 
5.489640e-01 1.366809e+03 
5.671990e-01 1.324800e+03 
5.838690e-01 1.288587e+03 
6.018840e-01 1.251684e+03 
6.202330e-01 1.216169e+03 
6.379250e-01 1.183799e+03 
6.545410e-01 1.154689e+03 
6.714560e-01 1.126425e+03 
6.892080e-01 1.098020e+03 
7.066010e-01 1.071441e+03 
7.240540e-01 1.045911e+03 
7.420450e-01 1.020427e+03 
7.593780e-01 9.970062e+02 
7.764720e-01 9.746651e+02 
7.942840e-01 9.523053e+02 
8.116170e-01 9.311957e+02 
8.288310e-01 9.109355e+02 
8.462240e-01 8.910896e+02 
8.631980e-01 8.724265e+02 
8.810700e-01 8.533069e+02 
8.989410e-01 8.348482e+02 
9.166330e-01 8.170852e+02 
9.345640e-01 7.996120e+02 
9.515980e-01 7.834961e+02 
9.688720e-01 7.675692e+02 
9.865640e-01 7.516816e+02 
1.031870e+00 7.132278e+02 
1.063490e+00 6.879135e+02 
1.097920e+00 6.616749e+02 
1.134370e+00 6.353745e+02 
1.167730e+00 6.126062e+02 
1.203830e+00 5.891798e+02 
1.240470e+00 5.666717e+02 
1.275790e+00 5.460183e+02 
1.309140e+00 5.275057e+02 
1.342970e+00 5.095949e+02 
1.378420e+00 4.917354e+02 
1.413200e+00 4.750408e+02 
1.448110e+00 4.590445e+02 
1.484090e+00 4.433446e+02 
1.518820e+00 4.288709e+02 
1.552880e+00 4.153367e+02 
1.588630e+00 4.017827e+02 
1.623230e+00 3.892500e+02 
1.657720e+00 3.773284e+02 
1.692450e+00 3.658244e+02 
1.726400e+00 3.550420e+02 
1.762200e+00 3.441447e+02 
1.797880e+00 3.337557e+02 
1.833270e+00 3.239103e+02 
1.869070e+00 3.143348e+02 
1.903200e+00 3.056048e+02 
1.937740e+00 2.971066e+02 
1.973190e+00 2.887216e+02 
2.007440e+00 2.809465e+02 
2.042160e+00 2.733867e+02 
2.077900e+00 2.658582e+02 
2.112390e+00 2.589030e+02 
2.146220e+00 2.523247e+02 
2.181600e+00 2.456852e+02 
2.216930e+00 2.393273e+02 
2.250760e+00 2.334432e+02 
2.286500e+00 2.274382e+02 
2.321770e+00 2.217414e+02 
2.355950e+00 2.164089e+02 
2.391280e+00 2.111107e+02 
2.426240e+00 2.060238e+02 
2.460670e+00 2.011816e+02 
2.495640e+00 1.964444e+02 
2.531080e+00 1.917926e+02 
2.566220e+00 1.873297e+02 
2.600830e+00 1.830872e+02 
2.635080e+00 1.790372e+02 
2.670340e+00 1.749879e+02 
2.705970e+00 1.710264e+02 
2.740040e+00 1.673554e+02 
2.774520e+00 1.637467e+02 
2.809730e+00 1.601885e+02 
2.844390e+00 1.567974e+02 
2.879960e+00 1.534172e+02 
2.914860e+00 1.501969e+02 
2.949410e+00 1.471054e+02 
2.984440e+00 1.440719e+02 
3.019760e+00 1.411007e+02 
3.054730e+00 1.382438e+02 
3.089030e+00 1.355154e+02 
3.124060e+00 1.328070e+02 
3.159560e+00 1.301385e+02 
3.194710e+00 1.275783e+02 
3.229010e+00 1.251516e+02 
3.263320e+00 1.227844e+02 
3.297930e+00 1.204648e+02 
3.332830e+00 1.181955e+02 
3.368040e+00 1.159650e+02 
3.403300e+00 1.137895e+02 
3.438450e+00 1.116752e+02 
3.473060e+00 1.096477e+02 
3.508440e+00 1.076362e+02 
3.543110e+00 1.057159e+02 
3.577470e+00 1.038573e+02 
3.613040e+00 1.019842e+02 
3.648120e+00 1.001893e+02 
3.682910e+00 9.845226e+01 
3.718050e+00 9.673859e+01 
3.753320e+00 9.506390e+01 
3.787980e+00 9.346216e+01 
3.822290e+00 9.191314e+01 
3.857020e+00 9.038023e+01 
3.891920e+00 8.887533e+01 
3.926650e+00 8.741103e+01 
3.961970e+00 8.595848e+01 
3.997360e+00 8.454111e+01 
4.031670e+00 8.319968e+01 
4.066330e+00 8.187972e+01 
4.101420e+00 8.057357e+01 
4.136200e+00 7.930559e+01 
4.170810e+00 7.807184e+01 
4.206250e+00 7.684051e+01 
4.241580e+00 7.564107e+01 
4.276300e+00 7.448625e+01 
4.310970e+00 7.335688e+01 
4.346120e+00 7.223826e+01 
4.380600e+00 7.116723e+01 
4.414730e+00 7.012909e+01 
4.450350e+00 6.906660e+01 
4.485320e+00 6.804552e+01 
4.519810e+00 6.706177e+01 
4.555430e+00 6.606791e+01 
4.590870e+00 6.509904e+01 
4.625480e+00 6.417090e+01 
4.659910e+00 6.326599e+01 
4.695230e+00 6.235971e+01 
4.729960e+00 6.148686e+01 
4.764450e+00 6.063808e+01 
4.799530e+00 5.979346e+01 
4.834910e+00 5.895831e+01 
4.869700e+00 5.815585e+01 
4.904370e+00 5.737186e+01 
4.939450e+00 5.659319e+01 
4.973940e+00 5.584078e+01 
5.008430e+00 5.510235e+01 
5.043810e+00 5.435827e+01 
5.078840e+00 5.363492e+01 
5.113500e+00 5.293241e+01 
5.148890e+00 5.223485e+01 
5.184210e+00 5.155177e+01 
5.219060e+00 5.088964e+01 
5.253660e+00 5.024301e+01 
5.288570e+00 4.960217e+01 
5.323420e+00 4.897326e+01 
5.358440e+00 4.835185e+01 
5.393590e+00 4.773914e+01 
5.428310e+00 4.714833e+01 
5.462800e+00 4.657352e+01 
5.497640e+00 4.600278e+01 
5.532670e+00 4.543768e+01 
5.567280e+00 4.488848e+01 
5.602000e+00 4.434679e+01 
5.637270e+00 4.380507e+01 
5.672410e+00 4.327428e+01 
5.707020e+00 4.276020e+01 
5.742040e+00 4.225041e+01 
5.777430e+00 4.174415e+01 
5.812210e+00 4.125478e+01 
5.846820e+00 4.077687e+01 
5.881610e+00 4.030449e+01 
5.916510e+00 3.983822e+01 
5.951600e+00 3.937622e+01 
5.986560e+00 3.892298e+01 
6.021830e+00 3.847299e+01 
6.056490e+00 3.803999e+01 
6.091160e+00 3.761548e+01 
6.125830e+00 3.719751e+01 
6.161090e+00 3.677802e+01 
6.195760e+00 3.636976e+01 
6.230420e+00 3.596785e+01 
6.265690e+00 3.556517e+01 
6.300950e+00 3.517019e+01 
6.335620e+00 3.478770e+01 
6.370880e+00 3.440455e+01 
6.405550e+00 3.403436e+01 
6.440220e+00 3.367000e+01 
6.475480e+00 3.330492e+01 
6.510150e+00 3.295103e+01 
6.544810e+00 3.260190e+01 
6.580080e+00 3.225182e+01 
6.614750e+00 3.191270e+01 
6.649410e+00 3.157960e+01 
6.684080e+00 3.125138e+01 
6.719340e+00 3.092235e+01 
6.754010e+00 3.060321e+01 
6.788680e+00 3.028802e+01 
6.823940e+00 2.997201e+01 
6.859800e+00 2.965522e+01 
6.894470e+00 2.935403e+01 
6.929140e+00 2.905727e+01 
6.963800e+00 2.876468e+01 
6.999070e+00 2.847101e+01 
7.033730e+00 2.818590e+01 
7.068400e+00 2.790458e+01 
7.103660e+00 2.762237e+01 
7.138330e+00 2.734895e+01 
7.173600e+00 2.707520e+01 
7.208260e+00 2.680979e+01 
7.243530e+00 2.654333e+01 
7.277600e+00 2.628911e+01 
7.312860e+00 2.602929e+01 
7.348120e+00 2.577293e+01 
7.382790e+00 2.552418e+01 
7.417460e+00 2.527917e+01 
7.452720e+00 2.503350e+01 
7.487390e+00 2.479508e+01 
7.522650e+00 2.455574e+01 
7.557320e+00 2.432311e+01 
7.591990e+00 2.409332e+01 
7.627250e+00 2.386262e+01 
7.662510e+00 2.363488e+01 
7.697180e+00 2.341347e+01 
7.731850e+00 2.319472e+01 
7.766510e+00 2.297877e+01 
7.801180e+00 2.276545e+01 
7.836440e+00 2.255174e+01 
7.871110e+00 2.234454e+01 
7.906380e+00 2.213637e+01 
7.941040e+00 2.193433e+01 
7.976310e+00 2.173053e+01 
8.011570e+00 2.152842e+01 
8.046240e+00 2.133214e+01 
8.080900e+00 2.113829e+01 
8.115570e+00 2.094710e+01 
8.150830e+00 2.075642e+01 
8.185500e+00 2.057119e+01 
8.220770e+00 2.038501e+01 
8.255430e+00 2.020424e+01 
8.290100e+00 2.002451e+01 
8.324770e+00 1.984679e+01 
8.359430e+00 1.967121e+01 
8.394700e+00 1.949464e+01 
8.429960e+00 1.932048e+01 
8.464630e+00 1.915151e+01 
8.499890e+00 1.898167e+01 
8.534560e+00 1.881661e+01 
8.569200e+00 1.865359e+01 
