# Parameters:
# omega_b = 0.022287, omega_m = 0.123031, n_s = 0.857874, h = 84.055118, w = -1.000000, sigma_8 = 0.747244
# z = 0.100000
#
# k[1/Mpc] # P(k):
8.694000e-04 2.375153e+04 
2.077466e-03 4.529504e+04 
3.285532e-03 6.012177e+04 
4.493598e-03 7.017186e+04 
5.701664e-03 7.661187e+04 
6.909730e-03 8.029990e+04 
8.117797e-03 8.200461e+04 
9.325863e-03 8.212159e+04 
1.053393e-02 8.100108e+04 
1.174199e-02 7.894562e+04 
1.295006e-02 7.614670e+04 
1.415813e-02 7.284355e+04 
1.536619e-02 6.922943e+04 
1.657426e-02 6.549794e+04 
1.778233e-02 6.195570e+04 
1.899039e-02 5.858216e+04 
2.019846e-02 5.503513e+04 
2.140652e-02 5.144023e+04 
2.261459e-02 4.803475e+04 
2.382266e-02 4.491790e+04 
2.503072e-02 4.210908e+04 
2.623879e-02 3.960027e+04 
2.744685e-02 3.738515e+04 
2.865492e-02 3.543886e+04 
2.986299e-02 3.373661e+04 
3.100100e-02 3.234285e+04 
3.220400e-02 3.106217e+04 
3.288100e-02 3.042357e+04 
3.424300e-02 2.928528e+04 
3.555100e-02 2.834330e+04 
3.686000e-02 2.752100e+04 
3.795000e-02 2.690966e+04 
3.929100e-02 2.621964e+04 
4.039800e-02 2.567878e+04 
4.164000e-02 2.509673e+04 
4.294400e-02 2.447250e+04 
4.415000e-02 2.389389e+04 
4.542900e-02 2.324236e+04 
4.660900e-02 2.262627e+04 
4.782300e-02 2.193715e+04 
4.892900e-02 2.129599e+04 
5.031200e-02 2.046023e+04 
5.155900e-02 1.967900e+04 
5.238100e-02 1.915797e+04 
5.378200e-02 1.826953e+04 
5.513400e-02 1.741839e+04 
5.627600e-02 1.671343e+04 
5.735300e-02 1.607057e+04 
5.870100e-02 1.530384e+04 
5.988700e-02 1.467045e+04 
6.113500e-02 1.404700e+04 
6.225900e-02 1.352954e+04 
6.340100e-02 1.304625e+04 
6.480200e-02 1.250699e+04 
6.601100e-02 1.209685e+04 
6.725500e-02 1.172154e+04 
6.829100e-02 1.144764e+04 
6.958600e-02 1.113875e+04 
7.071100e-02 1.090595e+04 
7.192300e-02 1.068428e+04 
7.307400e-02 1.049646e+04 
7.412300e-02 1.034189e+04 
7.550400e-02 1.016112e+04 
7.663100e-02 1.002505e+04 
7.791200e-02 9.879062e+03 
7.912700e-02 9.744753e+03 
8.027600e-02 9.618017e+03 
8.138400e-02 9.494307e+03 
8.272200e-02 9.339629e+03 
8.406100e-02 9.175998e+03 
8.534100e-02 9.008264e+03 
8.653800e-02 8.840732e+03 
8.759800e-02 8.687592e+03 
8.900300e-02 8.476542e+03 
9.009000e-02 8.305143e+03 
9.113300e-02 8.136762e+03 
9.239600e-02 7.931911e+03 
9.358000e-02 7.737466e+03 
9.496100e-02 7.510355e+03 
9.608400e-02 7.329031e+03 
9.727500e-02 7.140898e+03 
9.852600e-02 6.948912e+03 
9.973800e-02 6.771687e+03 
1.009000e-01 6.609385e+03 
1.020900e-01 6.454156e+03 
1.034000e-01 6.293026e+03 
1.046000e-01 6.154674e+03 
1.057200e-01 6.038187e+03 
1.069100e-01 5.921210e+03 
1.082500e-01 5.803073e+03 
1.093900e-01 5.711398e+03 
1.105400e-01 5.624757e+03 
1.116900e-01 5.548190e+03 
1.129600e-01 5.468327e+03 
1.142000e-01 5.398233e+03 
1.153300e-01 5.337183e+03 
1.166400e-01 5.270114e+03 
1.177800e-01 5.214128e+03 
1.190000e-01 5.156091e+03 
1.201200e-01 5.101619e+03 
1.213400e-01 5.043242e+03 
1.227100e-01 4.974304e+03 
1.238900e-01 4.914984e+03 
1.250700e-01 4.852234e+03 
1.263200e-01 4.785495e+03 
1.275500e-01 4.717313e+03 
1.287500e-01 4.649926e+03 
1.299900e-01 4.578090e+03 
1.311300e-01 4.512203e+03 
1.323500e-01 4.441245e+03 
1.335900e-01 4.369828e+03 
1.347100e-01 4.305456e+03 
1.359800e-01 4.233987e+03 
1.372100e-01 4.166112e+03 
1.384300e-01 4.100455e+03 
1.395700e-01 4.040707e+03 
1.407700e-01 3.979363e+03 
1.420300e-01 3.918231e+03 
1.432800e-01 3.858962e+03 
1.444500e-01 3.806588e+03 
1.456300e-01 3.754861e+03 
1.468900e-01 3.702819e+03 
1.480500e-01 3.656499e+03 
1.491700e-01 3.613374e+03 
1.503800e-01 3.568629e+03 
1.516400e-01 3.523389e+03 
1.528200e-01 3.483623e+03 
1.540200e-01 3.443960e+03 
1.551900e-01 3.407064e+03 
1.564300e-01 3.368958e+03 
1.576600e-01 3.332163e+03 
1.588700e-01 3.296980e+03 
1.600900e-01 3.262174e+03 
1.612700e-01 3.229207e+03 
1.625400e-01 3.194384e+03 
1.637600e-01 3.161504e+03 
1.649500e-01 3.129979e+03 
1.662200e-01 3.096824e+03 
1.674000e-01 3.065882e+03 
1.685000e-01 3.037519e+03 
1.697500e-01 3.005469e+03 
1.710300e-01 2.972879e+03 
1.722200e-01 2.943120e+03 
1.734400e-01 2.912105e+03 
1.746400e-01 2.882084e+03 
1.758700e-01 2.851636e+03 
1.770900e-01 2.821539e+03 
1.782700e-01 2.792919e+03 
1.794600e-01 2.764259e+03 
1.807000e-01 2.734714e+03 
1.819100e-01 2.706372e+03 
1.830100e-01 2.680957e+03 
1.842200e-01 2.653432e+03 
1.855000e-01 2.624823e+03 
1.867000e-01 2.598822e+03 
1.879200e-01 2.572814e+03 
1.890900e-01 2.548299e+03 
1.902800e-01 2.523911e+03 
1.915200e-01 2.498902e+03 
1.926900e-01 2.475844e+03 
1.939000e-01 2.452913e+03 
1.951700e-01 2.429226e+03 
1.963100e-01 2.408369e+03 
1.975100e-01 2.386954e+03 
1.987800e-01 2.364640e+03 
2.000100e-01 2.343430e+03 
2.012500e-01 2.322526e+03 
2.023400e-01 2.304413e+03 
2.036100e-01 2.283677e+03 
2.048900e-01 2.263349e+03 
2.060400e-01 2.245353e+03 
2.072200e-01 2.227151e+03 
2.084200e-01 2.208986e+03 
2.096900e-01 2.190043e+03 
2.109200e-01 2.171964e+03 
2.121100e-01 2.154643e+03 
2.132700e-01 2.137984e+03 
2.145200e-01 2.120282e+03 
2.157200e-01 2.103474e+03 
2.168800e-01 2.087420e+03 
2.180700e-01 2.071170e+03 
2.193400e-01 2.054043e+03 
2.206000e-01 2.037245e+03 
2.217500e-01 2.022120e+03 
2.229500e-01 2.006543e+03 
2.241400e-01 1.991264e+03 
2.253500e-01 1.975931e+03 
2.264900e-01 1.961671e+03 
2.277100e-01 1.946661e+03 
2.289900e-01 1.931184e+03 
2.301500e-01 1.917343e+03 
2.313600e-01 1.903087e+03 
2.325600e-01 1.889115e+03 
2.337700e-01 1.875205e+03 
2.350000e-01 1.861247e+03 
2.362000e-01 1.847906e+03 
2.374100e-01 1.834745e+03 
2.386500e-01 1.821428e+03 
2.399100e-01 1.808070e+03 
2.410400e-01 1.796304e+03 
2.422500e-01 1.783864e+03 
2.435000e-01 1.771172e+03 
2.447300e-01 1.758861e+03 
2.458700e-01 1.747669e+03 
2.470600e-01 1.736121e+03 
2.483300e-01 1.723947e+03 
2.495600e-01 1.712336e+03 
2.507600e-01 1.701189e+03 
2.519600e-01 1.690173e+03 
2.532200e-01 1.678744e+03 
2.543700e-01 1.668482e+03 
2.555500e-01 1.658105e+03 
2.568000e-01 1.647239e+03 
2.580100e-01 1.636845e+03 
2.592400e-01 1.626401e+03 
2.604100e-01 1.616580e+03 
2.616100e-01 1.606620e+03 
2.628400e-01 1.596526e+03 
2.640600e-01 1.586741e+03 
2.652200e-01 1.577585e+03 
2.664300e-01 1.568138e+03 
2.676500e-01 1.558719e+03 
2.688400e-01 1.549578e+03 
2.700700e-01 1.540200e+03 
2.712400e-01 1.531376e+03 
2.724800e-01 1.522125e+03 
2.736700e-01 1.513342e+03 
2.748800e-01 1.504505e+03 
2.761000e-01 1.495691e+03 
2.773200e-01 1.486972e+03 
2.785400e-01 1.478362e+03 
2.797000e-01 1.470295e+03 
2.808900e-01 1.462103e+03 
2.821400e-01 1.453590e+03 
2.833900e-01 1.445165e+03 
2.845500e-01 1.437352e+03 
2.857800e-01 1.429153e+03 
2.870300e-01 1.420908e+03 
2.882100e-01 1.413205e+03 
2.893900e-01 1.405566e+03 
2.906300e-01 1.397612e+03 
2.918900e-01 1.389614e+03 
2.930500e-01 1.382326e+03 
2.942500e-01 1.374859e+03 
2.954200e-01 1.367643e+03 
2.966500e-01 1.360133e+03 
2.978900e-01 1.352639e+03 
2.990400e-01 1.345756e+03 
3.002700e-01 1.338452e+03 
3.015100e-01 1.331156e+03 
3.026800e-01 1.324339e+03 
3.038500e-01 1.317586e+03 
3.050300e-01 1.310840e+03 
3.062600e-01 1.303873e+03 
3.075000e-01 1.296918e+03 
3.087000e-01 1.290253e+03 
3.099100e-01 1.283597e+03 
3.111200e-01 1.276999e+03 
3.123100e-01 1.270563e+03 
3.135300e-01 1.264027e+03 
3.147300e-01 1.257659e+03 
3.159900e-01 1.251036e+03 
3.171800e-01 1.244897e+03 
3.183700e-01 1.238850e+03 
3.196300e-01 1.232508e+03 
3.208400e-01 1.226475e+03 
3.220300e-01 1.220595e+03 
3.232000e-01 1.214828e+03 
3.244300e-01 1.208805e+03 
3.256700e-01 1.202789e+03 
3.269200e-01 1.196781e+03 
3.280800e-01 1.191257e+03 
3.292500e-01 1.185799e+03 
3.304800e-01 1.180134e+03 
3.317100e-01 1.174521e+03 
3.328900e-01 1.169183e+03 
3.340700e-01 1.163892e+03 
3.353600e-01 1.158189e+03 
3.365300e-01 1.153075e+03 
3.377100e-01 1.147962e+03 
3.389200e-01 1.142763e+03 
3.401600e-01 1.137483e+03 
3.413700e-01 1.132395e+03 
3.425300e-01 1.127574e+03 
3.437700e-01 1.122464e+03 
3.449800e-01 1.117521e+03 
3.461800e-01 1.112660e+03 
3.473600e-01 1.107918e+03 
3.485800e-01 1.103049e+03 
3.498100e-01 1.098183e+03 
3.510200e-01 1.093436e+03 
3.522000e-01 1.088846e+03 
3.533900e-01 1.084254e+03 
3.546400e-01 1.079545e+03 
3.558400e-01 1.075066e+03 
3.570600e-01 1.070551e+03 
3.582700e-01 1.066109e+03 
3.595000e-01 1.061632e+03 
3.607100e-01 1.057279e+03 
3.618900e-01 1.053079e+03 
3.631200e-01 1.048738e+03 
3.643200e-01 1.044536e+03 
3.655500e-01 1.040265e+03 
3.667300e-01 1.036200e+03 
3.679500e-01 1.032055e+03 
3.691900e-01 1.027876e+03 
3.703600e-01 1.023965e+03 
3.715700e-01 1.019951e+03 
3.727700e-01 1.016003e+03 
3.739900e-01 1.012028e+03 
3.752000e-01 1.008134e+03 
3.763900e-01 1.004334e+03 
3.775800e-01 1.000563e+03 
3.788200e-01 9.966646e+02 
3.800300e-01 9.928905e+02 
3.812100e-01 9.892302e+02 
3.824200e-01 9.855001e+02 
3.836100e-01 9.818598e+02 
3.848600e-01 9.780657e+02 
3.860400e-01 9.745116e+02 
3.872400e-01 9.709245e+02 
3.884600e-01 9.673219e+02 
3.896500e-01 9.638408e+02 
3.908700e-01 9.602989e+02 
3.920600e-01 9.568700e+02 
3.933100e-01 9.532957e+02 
3.945300e-01 9.498339e+02 
3.957200e-01 9.464949e+02 
3.969300e-01 9.431285e+02 
3.981700e-01 9.397047e+02 
3.993500e-01 9.364707e+02 
4.094840e-01 9.095635e+02 
4.272360e-01 8.662320e+02 
4.454600e-01 8.256933e+02 
4.630560e-01 7.900463e+02 
4.804610e-01 7.575954e+02 
4.980690e-01 7.273156e+02 
5.159230e-01 6.989884e+02 
5.317440e-01 6.755487e+02 
5.489640e-01 6.518715e+02 
5.671990e-01 6.285331e+02 
5.838690e-01 6.086454e+02 
6.018840e-01 5.886015e+02 
6.202330e-01 5.696105e+02 
6.379250e-01 5.524830e+02 
6.545410e-01 5.373491e+02 
6.714560e-01 5.228116e+02 
6.892080e-01 5.084370e+02 
7.066010e-01 4.951516e+02 
7.240540e-01 4.825446e+02 
7.420450e-01 4.701630e+02 
7.593780e-01 4.589168e+02 
7.764720e-01 4.483068e+02 
7.942840e-01 4.378076e+02 
8.116170e-01 4.280007e+02 
8.288310e-01 4.186932e+02 
8.462240e-01 4.096489e+02 
8.631980e-01 4.012156e+02 
8.810700e-01 3.926405e+02 
8.989410e-01 3.844154e+02 
9.166330e-01 3.765505e+02 
9.345640e-01 3.688577e+02 
9.515980e-01 3.617955e+02 
9.688720e-01 3.548471e+02 
9.865640e-01 3.479404e+02 
1.031870e+00 3.313025e+02 
1.063490e+00 3.203949e+02 
1.097920e+00 3.091188e+02 
1.134370e+00 2.978172e+02 
1.167730e+00 2.880331e+02 
1.203830e+00 2.779533e+02 
1.240470e+00 2.682540e+02 
1.275790e+00 2.593330e+02 
1.309140e+00 2.513111e+02 
1.342970e+00 2.435282e+02 
1.378420e+00 2.357424e+02 
1.413200e+00 2.284325e+02 
1.448110e+00 2.214050e+02 
1.484090e+00 2.144792e+02 
1.518820e+00 2.080704e+02 
1.552880e+00 2.020495e+02 
1.588630e+00 1.960001e+02 
1.623230e+00 1.903819e+02 
1.657720e+00 1.850183e+02 
1.692450e+00 1.798265e+02 
1.726400e+00 1.749363e+02 
1.762200e+00 1.699751e+02 
1.797880e+00 1.652258e+02 
1.833270e+00 1.607117e+02 
1.869070e+00 1.563001e+02 
1.903200e+00 1.522669e+02 
1.937740e+00 1.483270e+02 
1.973190e+00 1.444260e+02 
2.007440e+00 1.407966e+02 
2.042160e+00 1.372561e+02 
2.077900e+00 1.337181e+02 
2.112390e+00 1.304410e+02 
2.146220e+00 1.273299e+02 
2.181600e+00 1.241800e+02 
2.216930e+00 1.211556e+02 
2.250760e+00 1.183482e+02 
2.286500e+00 1.154754e+02 
2.321770e+00 1.127436e+02 
2.355950e+00 1.101787e+02 
2.391280e+00 1.076233e+02 
2.426240e+00 1.051626e+02 
2.460670e+00 1.028145e+02 
2.495640e+00 1.005126e+02 
2.531080e+00 9.824557e+01 
2.566220e+00 9.606566e+01 
2.600830e+00 9.398920e+01 
2.635080e+00 9.200307e+01 
2.670340e+00 9.001085e+01 
2.705970e+00 8.805813e+01 
2.740040e+00 8.624542e+01 
2.774520e+00 8.445894e+01 
2.809730e+00 8.269423e+01 
2.844390e+00 8.100981e+01 
2.879960e+00 7.932686e+01 
2.914860e+00 7.771969e+01 
2.949410e+00 7.617460e+01 
2.984440e+00 7.465568e+01 
3.019760e+00 7.316527e+01 
3.054730e+00 7.173032e+01 
3.089030e+00 7.035629e+01 
3.124060e+00 6.899076e+01 
3.159560e+00 6.764316e+01 
3.194710e+00 6.634798e+01 
3.229010e+00 6.511921e+01 
3.263320e+00 6.391749e+01 
3.297930e+00 6.273901e+01 
3.332830e+00 6.158451e+01 
3.368040e+00 6.044804e+01 
3.403300e+00 5.933830e+01 
3.438450e+00 5.825783e+01 
3.473060e+00 5.722106e+01 
3.508440e+00 5.619041e+01 
3.543110e+00 5.520598e+01 
3.577470e+00 5.425132e+01 
3.613040e+00 5.328865e+01 
3.648120e+00 5.236477e+01 
3.682910e+00 5.147002e+01 
3.718050e+00 5.058602e+01 
3.753320e+00 4.972156e+01 
3.787980e+00 4.889398e+01 
3.822290e+00 4.809297e+01 
3.857020e+00 4.729933e+01 
3.891920e+00 4.651963e+01 
3.926650e+00 4.576004e+01 
3.961970e+00 4.500615e+01 
3.997360e+00 4.426968e+01 
4.031670e+00 4.357245e+01 
4.066330e+00 4.288559e+01 
4.101420e+00 4.220584e+01 
4.136200e+00 4.154505e+01 
4.170810e+00 4.090206e+01 
4.206250e+00 4.025951e+01 
4.241580e+00 3.963343e+01 
4.276300e+00 3.903018e+01 
4.310970e+00 3.843996e+01 
4.346120e+00 3.785511e+01 
4.380600e+00 3.729473e+01 
4.414730e+00 3.675154e+01 
4.450350e+00 3.619503e+01 
4.485320e+00 3.566021e+01 
4.519810e+00 3.514462e+01 
4.555430e+00 3.462358e+01 
4.590870e+00 3.411544e+01 
4.625480e+00 3.362826e+01 
4.659910e+00 3.315328e+01 
4.695230e+00 3.267737e+01 
4.729960e+00 3.221899e+01 
4.764450e+00 3.177316e+01 
4.799530e+00 3.132938e+01 
4.834910e+00 3.089058e+01 
4.869700e+00 3.046871e+01 
4.904370e+00 3.005652e+01 
4.939450e+00 2.964707e+01 
4.973940e+00 2.925128e+01 
5.008430e+00 2.886286e+01 
5.043810e+00 2.847140e+01 
5.078840e+00 2.809082e+01 
5.113500e+00 2.772121e+01 
5.148890e+00 2.735416e+01 
5.184210e+00 2.699473e+01 
5.219060e+00 2.664630e+01 
5.253660e+00 2.630590e+01 
5.288570e+00 2.596856e+01 
5.323420e+00 2.563755e+01 
5.358440e+00 2.531056e+01 
5.393590e+00 2.498816e+01 
5.428310e+00 2.467732e+01 
5.462800e+00 2.437493e+01 
5.497640e+00 2.407469e+01 
5.532670e+00 2.377744e+01 
5.567280e+00 2.348858e+01 
5.602000e+00 2.320367e+01 
5.637270e+00 2.291882e+01 
5.672410e+00 2.263976e+01 
5.707020e+00 2.236948e+01 
5.742040e+00 2.210150e+01 
5.777430e+00 2.183538e+01 
5.812210e+00 2.157815e+01 
5.846820e+00 2.132710e+01 
5.881610e+00 2.107899e+01 
5.916510e+00 2.083410e+01 
5.951600e+00 2.059160e+01 
5.986560e+00 2.035374e+01 
6.021830e+00 2.011761e+01 
6.056490e+00 1.989046e+01 
6.091160e+00 1.966781e+01 
6.125830e+00 1.944859e+01 
6.161090e+00 1.922865e+01 
6.195760e+00 1.901472e+01 
6.230420e+00 1.880413e+01 
6.265690e+00 1.859314e+01 
6.300950e+00 1.838636e+01 
6.335620e+00 1.818612e+01 
6.370880e+00 1.798553e+01 
6.405550e+00 1.779190e+01 
6.440220e+00 1.760140e+01 
6.475480e+00 1.741051e+01 
6.510150e+00 1.722553e+01 
6.544810e+00 1.704313e+01 
6.580080e+00 1.686023e+01 
6.614750e+00 1.668306e+01 
6.649410e+00 1.650927e+01 
6.684080e+00 1.633805e+01 
6.719340e+00 1.616642e+01 
6.754010e+00 1.599999e+01 
6.788680e+00 1.583576e+01 
6.823940e+00 1.567110e+01 
6.859800e+00 1.550602e+01 
6.894470e+00 1.534922e+01 
6.929140e+00 1.519477e+01 
6.963800e+00 1.504248e+01 
6.999070e+00 1.488965e+01 
7.033730e+00 1.474148e+01 
7.068400e+00 1.459527e+01 
7.103660e+00 1.444859e+01 
7.138330e+00 1.430656e+01 
7.173600e+00 1.416451e+01 
7.208260e+00 1.402678e+01 
7.243530e+00 1.388850e+01 
7.277600e+00 1.375666e+01 
7.312860e+00 1.362197e+01 
7.348120e+00 1.348908e+01 
7.382790e+00 1.336012e+01 
7.417460e+00 1.323327e+01 
7.452720e+00 1.310616e+01 
7.487390e+00 1.298279e+01 
7.522650e+00 1.285893e+01 
7.557320e+00 1.273867e+01 
7.591990e+00 1.261991e+01 
7.627250e+00 1.250067e+01 
7.662510e+00 1.238295e+01 
7.697180e+00 1.226863e+01 
7.731850e+00 1.215572e+01 
7.766510e+00 1.204425e+01 
7.801180e+00 1.193412e+01 
7.836440e+00 1.182392e+01 
7.871110e+00 1.171714e+01 
7.906380e+00 1.160986e+01 
7.941040e+00 1.150572e+01 
7.976310e+00 1.140074e+01 
8.011570e+00 1.129671e+01 
8.046240e+00 1.119567e+01 
8.080900e+00 1.109586e+01 
8.115570e+00 1.099746e+01 
8.150830e+00 1.089949e+01 
8.185500e+00 1.080431e+01 
8.220770e+00 1.070862e+01 
8.255430e+00 1.061571e+01 
8.290100e+00 1.052344e+01 
8.324770e+00 1.043220e+01 
8.359430e+00 1.034204e+01 
8.394700e+00 1.025137e+01 
8.429960e+00 1.016200e+01 
8.464630e+00 1.007536e+01 
8.499890e+00 9.988265e+00 
8.534560e+00 9.903609e+00 
8.569200e+00 9.819985e+00 
