# Parameters:
# omega_b = 0.023217, omega_m = 0.140394, n_s = 0.908268, h = 62.795276, w = -1.000000, sigma_8 = 0.780315
# z = 0.100000
#
# k[1/Mpc] # P(k):
8.694000e-04 1.948883e+04 
2.077466e-03 3.963654e+04 
3.285532e-03 5.467467e+04 
4.493598e-03 6.585082e+04 
5.701664e-03 7.384985e+04 
6.909730e-03 7.927595e+04 
8.117797e-03 8.274447e+04 
9.325863e-03 8.457086e+04 
1.053393e-02 8.504968e+04 
1.174199e-02 8.444623e+04 
1.295006e-02 8.293115e+04 
1.415813e-02 8.073050e+04 
1.536619e-02 7.803229e+04 
1.657426e-02 7.490460e+04 
1.778233e-02 7.126826e+04 
1.899039e-02 6.743950e+04 
2.019846e-02 6.390759e+04 
2.140652e-02 6.071157e+04 
2.261459e-02 5.770047e+04 
2.382266e-02 5.485110e+04 
2.503072e-02 5.218732e+04 
2.623879e-02 4.971872e+04 
2.744685e-02 4.744779e+04 
2.865492e-02 4.537649e+04 
2.986299e-02 4.349645e+04 
3.100100e-02 4.189299e+04 
3.220400e-02 4.036146e+04 
3.288100e-02 3.956956e+04 
3.424300e-02 3.811307e+04 
3.555100e-02 3.686219e+04 
3.686000e-02 3.573460e+04 
3.795000e-02 3.487961e+04 
3.929100e-02 3.390624e+04 
4.039800e-02 3.315067e+04 
4.164000e-02 3.235259e+04 
4.294400e-02 3.153538e+04 
4.415000e-02 3.080628e+04 
4.542900e-02 3.003043e+04 
4.660900e-02 2.932404e+04 
4.782300e-02 2.857117e+04 
4.892900e-02 2.788918e+04 
5.031200e-02 2.702107e+04 
5.155900e-02 2.622265e+04 
5.238100e-02 2.569296e+04 
5.378200e-02 2.479035e+04 
5.513400e-02 2.391889e+04 
5.627600e-02 2.318656e+04 
5.735300e-02 2.250725e+04 
5.870100e-02 2.167833e+04 
5.988700e-02 2.097463e+04 
6.113500e-02 2.026032e+04 
6.225900e-02 1.964669e+04 
6.340100e-02 1.905235e+04 
6.480200e-02 1.836436e+04 
6.601100e-02 1.781431e+04 
6.725500e-02 1.728773e+04 
6.829100e-02 1.688322e+04 
6.958600e-02 1.640949e+04 
7.071100e-02 1.603446e+04 
7.192300e-02 1.566270e+04 
7.307400e-02 1.533641e+04 
7.412300e-02 1.506069e+04 
7.550400e-02 1.473052e+04 
7.663100e-02 1.448064e+04 
7.791200e-02 1.421694e+04 
7.912700e-02 1.398398e+04 
8.027600e-02 1.377440e+04 
8.138400e-02 1.357974e+04 
8.272200e-02 1.335099e+04 
8.406100e-02 1.312415e+04 
8.534100e-02 1.290723e+04 
8.653800e-02 1.270077e+04 
8.759800e-02 1.251712e+04 
8.900300e-02 1.227032e+04 
9.009000e-02 1.207300e+04 
9.113300e-02 1.188095e+04 
9.239600e-02 1.164772e+04 
9.358000e-02 1.142564e+04 
9.496100e-02 1.116396e+04 
9.608400e-02 1.095274e+04 
9.727500e-02 1.073147e+04 
9.852600e-02 1.050023e+04 
9.973800e-02 1.028374e+04 
1.009000e-01 1.008293e+04 
1.020900e-01 9.883888e+03 
1.034000e-01 9.673508e+03 
1.046000e-01 9.488941e+03 
1.057200e-01 9.326892e+03 
1.069100e-01 9.161495e+03 
1.082500e-01 8.986874e+03 
1.093900e-01 8.846667e+03 
1.105400e-01 8.711273e+03 
1.116900e-01 8.585482e+03 
1.129600e-01 8.452283e+03 
1.142000e-01 8.330837e+03 
1.153300e-01 8.224243e+03 
1.166400e-01 8.105832e+03 
1.177800e-01 8.007652e+03 
1.190000e-01 7.906179e+03 
1.201200e-01 7.814910e+03 
1.213400e-01 7.717776e+03 
1.227100e-01 7.610765e+03 
1.238900e-01 7.520372e+03 
1.250700e-01 7.430145e+03 
1.263200e-01 7.336142e+03 
1.275500e-01 7.244349e+03 
1.287500e-01 7.155305e+03 
1.299900e-01 7.062938e+03 
1.311300e-01 6.979198e+03 
1.323500e-01 6.890469e+03 
1.335900e-01 6.801340e+03 
1.347100e-01 6.721269e+03 
1.359800e-01 6.632016e+03 
1.372100e-01 6.546660e+03 
1.384300e-01 6.463437e+03 
1.395700e-01 6.386306e+03 
1.407700e-01 6.306800e+03 
1.420300e-01 6.225208e+03 
1.432800e-01 6.146023e+03 
1.444500e-01 6.073358e+03 
1.456300e-01 6.001540e+03 
1.468900e-01 5.927365e+03 
1.480500e-01 5.860737e+03 
1.491700e-01 5.797824e+03 
1.503800e-01 5.731414e+03 
1.516400e-01 5.663984e+03 
1.528200e-01 5.603534e+03 
1.540200e-01 5.543230e+03 
1.551900e-01 5.486491e+03 
1.564300e-01 5.427727e+03 
1.576600e-01 5.370892e+03 
1.588700e-01 5.316437e+03 
1.600900e-01 5.262576e+03 
1.612700e-01 5.211848e+03 
1.625400e-01 5.158260e+03 
1.637600e-01 5.108075e+03 
1.649500e-01 5.060196e+03 
1.662200e-01 5.009967e+03 
1.674000e-01 4.963818e+03 
1.685000e-01 4.921511e+03 
1.697500e-01 4.874122e+03 
1.710300e-01 4.826348e+03 
1.722200e-01 4.782714e+03 
1.734400e-01 4.737952e+03 
1.746400e-01 4.694639e+03 
1.758700e-01 4.650859e+03 
1.770900e-01 4.607893e+03 
1.782700e-01 4.567023e+03 
1.794600e-01 4.526240e+03 
1.807000e-01 4.484287e+03 
1.819100e-01 4.444027e+03 
1.830100e-01 4.407921e+03 
1.842200e-01 4.368803e+03 
1.855000e-01 4.328124e+03 
1.867000e-01 4.291048e+03 
1.879200e-01 4.253950e+03 
1.890900e-01 4.218920e+03 
1.902800e-01 4.183817e+03 
1.915200e-01 4.147809e+03 
1.926900e-01 4.114537e+03 
1.939000e-01 4.081242e+03 
1.951700e-01 4.046839e+03 
1.963100e-01 4.016457e+03 
1.975100e-01 3.985031e+03 
1.987800e-01 3.952277e+03 
2.000100e-01 3.921067e+03 
2.012500e-01 3.890138e+03 
2.023400e-01 3.863333e+03 
2.036100e-01 3.832613e+03 
2.048900e-01 3.802385e+03 
2.060400e-01 3.775619e+03 
2.072200e-01 3.748538e+03 
2.084200e-01 3.721447e+03 
2.096900e-01 3.693189e+03 
2.109200e-01 3.666218e+03 
2.121100e-01 3.640322e+03 
2.132700e-01 3.615409e+03 
2.145200e-01 3.588933e+03 
2.157200e-01 3.563788e+03 
2.168800e-01 3.539767e+03 
2.180700e-01 3.515449e+03 
2.193400e-01 3.489810e+03 
2.206000e-01 3.464649e+03 
2.217500e-01 3.441990e+03 
2.229500e-01 3.418652e+03 
2.241400e-01 3.395740e+03 
2.253500e-01 3.372745e+03 
2.264900e-01 3.351355e+03 
2.277100e-01 3.328840e+03 
2.289900e-01 3.305628e+03 
2.301500e-01 3.284865e+03 
2.313600e-01 3.263479e+03 
2.325600e-01 3.242515e+03 
2.337700e-01 3.221642e+03 
2.350000e-01 3.200695e+03 
2.362000e-01 3.180698e+03 
2.374100e-01 3.161002e+03 
2.386500e-01 3.141071e+03 
2.399100e-01 3.121076e+03 
2.410400e-01 3.103512e+03 
2.422500e-01 3.084945e+03 
2.435000e-01 3.066001e+03 
2.447300e-01 3.047638e+03 
2.458700e-01 3.031004e+03 
2.470600e-01 3.013841e+03 
2.483300e-01 2.995746e+03 
2.495600e-01 2.978507e+03 
2.507600e-01 2.961983e+03 
2.519600e-01 2.945652e+03 
2.532200e-01 2.928708e+03 
2.543700e-01 2.913499e+03 
2.555500e-01 2.898119e+03 
2.568000e-01 2.882015e+03 
2.580100e-01 2.866609e+03 
2.592400e-01 2.851097e+03 
2.604100e-01 2.836495e+03 
2.616100e-01 2.821685e+03 
2.628400e-01 2.806677e+03 
2.640600e-01 2.792097e+03 
2.652200e-01 2.778440e+03 
2.664300e-01 2.764350e+03 
2.676500e-01 2.750302e+03 
2.688400e-01 2.736583e+03 
2.700700e-01 2.722454e+03 
2.712400e-01 2.709160e+03 
2.724800e-01 2.695223e+03 
2.736700e-01 2.681935e+03 
2.748800e-01 2.668508e+03 
2.761000e-01 2.655117e+03 
2.773200e-01 2.641869e+03 
2.785400e-01 2.628760e+03 
2.797000e-01 2.616414e+03 
2.808900e-01 2.603879e+03 
2.821400e-01 2.590853e+03 
2.833900e-01 2.577957e+03 
2.845500e-01 2.565889e+03 
2.857800e-01 2.553224e+03 
2.870300e-01 2.540490e+03 
2.882100e-01 2.528593e+03 
2.893900e-01 2.516745e+03 
2.906300e-01 2.504384e+03 
2.918900e-01 2.491956e+03 
2.930500e-01 2.480629e+03 
2.942500e-01 2.469008e+03 
2.954200e-01 2.457725e+03 
2.966500e-01 2.445982e+03 
2.978900e-01 2.434263e+03 
2.990400e-01 2.423501e+03 
3.002700e-01 2.412040e+03 
3.015100e-01 2.400572e+03 
3.026800e-01 2.389856e+03 
3.038500e-01 2.379242e+03 
3.050300e-01 2.368637e+03 
3.062600e-01 2.357620e+03 
3.075000e-01 2.346622e+03 
3.087000e-01 2.336083e+03 
3.099100e-01 2.325557e+03 
3.111200e-01 2.315111e+03 
3.123100e-01 2.304898e+03 
3.135300e-01 2.294527e+03 
3.147300e-01 2.284422e+03 
3.159900e-01 2.273912e+03 
3.171800e-01 2.264165e+03 
3.183700e-01 2.254561e+03 
3.196300e-01 2.244488e+03 
3.208400e-01 2.234907e+03 
3.220300e-01 2.225570e+03 
3.232000e-01 2.216365e+03 
3.244300e-01 2.206735e+03 
3.256700e-01 2.197117e+03 
3.269200e-01 2.187512e+03 
3.280800e-01 2.178678e+03 
3.292500e-01 2.169959e+03 
3.304800e-01 2.160910e+03 
3.317100e-01 2.151944e+03 
3.328900e-01 2.143418e+03 
3.340700e-01 2.134967e+03 
3.353600e-01 2.125840e+03 
3.365300e-01 2.117647e+03 
3.377100e-01 2.109455e+03 
3.389200e-01 2.101128e+03 
3.401600e-01 2.092669e+03 
3.413700e-01 2.084512e+03 
3.425300e-01 2.076774e+03 
3.437700e-01 2.068573e+03 
3.449800e-01 2.060641e+03 
3.461800e-01 2.052842e+03 
3.473600e-01 2.045228e+03 
3.485800e-01 2.037400e+03 
3.498100e-01 2.029576e+03 
3.510200e-01 2.021944e+03 
3.522000e-01 2.014565e+03 
3.533900e-01 2.007184e+03 
3.546400e-01 1.999602e+03 
3.558400e-01 1.992392e+03 
3.570600e-01 1.985122e+03 
3.582700e-01 1.977973e+03 
3.595000e-01 1.970766e+03 
3.607100e-01 1.963751e+03 
3.618900e-01 1.956978e+03 
3.631200e-01 1.949975e+03 
3.643200e-01 1.943200e+03 
3.655500e-01 1.936313e+03 
3.667300e-01 1.929759e+03 
3.679500e-01 1.923053e+03 
3.691900e-01 1.916293e+03 
3.703600e-01 1.909966e+03 
3.715700e-01 1.903475e+03 
3.727700e-01 1.897089e+03 
3.739900e-01 1.890661e+03 
3.752000e-01 1.884361e+03 
3.763900e-01 1.878215e+03 
3.775800e-01 1.872116e+03 
3.788200e-01 1.865812e+03 
3.800300e-01 1.859709e+03 
3.812100e-01 1.853770e+03 
3.824200e-01 1.847705e+03 
3.836100e-01 1.841786e+03 
3.848600e-01 1.835617e+03 
3.860400e-01 1.829840e+03 
3.872400e-01 1.824009e+03 
3.884600e-01 1.818138e+03 
3.896500e-01 1.812459e+03 
3.908700e-01 1.806682e+03 
3.920600e-01 1.801090e+03 
3.933100e-01 1.795261e+03 
3.945300e-01 1.789617e+03 
3.957200e-01 1.784165e+03 
3.969300e-01 1.778666e+03 
3.981700e-01 1.773074e+03 
3.993500e-01 1.767793e+03 
4.094840e-01 1.723665e+03 
4.272360e-01 1.651965e+03 
4.454600e-01 1.584079e+03 
4.630560e-01 1.523770e+03 
4.804610e-01 1.468186e+03 
4.980690e-01 1.415786e+03 
5.159230e-01 1.366238e+03 
5.317440e-01 1.324856e+03 
5.489640e-01 1.282628e+03 
5.671990e-01 1.240508e+03 
5.838690e-01 1.204259e+03 
6.018840e-01 1.167343e+03 
6.202330e-01 1.131899e+03 
6.379250e-01 1.099629e+03 
6.545410e-01 1.070690e+03 
6.714560e-01 1.042640e+03 
6.892080e-01 1.014517e+03 
7.066010e-01 9.882423e+02 
7.240540e-01 9.630573e+02 
7.420450e-01 9.379842e+02 
7.593780e-01 9.149764e+02 
7.764720e-01 8.930728e+02 
7.942840e-01 8.711934e+02 
8.116170e-01 8.505675e+02 
8.288310e-01 8.308209e+02 
8.462240e-01 8.115043e+02 
8.631980e-01 7.933687e+02 
8.810700e-01 7.748275e+02 
8.989410e-01 7.569478e+02 
9.166330e-01 7.397761e+02 
9.345640e-01 7.229175e+02 
9.515980e-01 7.073922e+02 
9.688720e-01 6.920714e+02 
9.865640e-01 6.768159e+02 
1.031870e+00 6.399838e+02 
1.063490e+00 6.158241e+02 
1.097920e+00 5.908543e+02 
1.134370e+00 5.659024e+02 
1.167730e+00 5.443582e+02 
1.203830e+00 5.222562e+02 
1.240470e+00 5.010817e+02 
1.275790e+00 4.817134e+02 
1.309140e+00 4.643940e+02 
1.342970e+00 4.476833e+02 
1.378420e+00 4.310585e+02 
1.413200e+00 4.155585e+02 
1.448110e+00 4.007498e+02 
1.484090e+00 3.862452e+02 
1.518820e+00 3.729129e+02 
1.552880e+00 3.604697e+02 
1.588630e+00 3.480385e+02 
1.623230e+00 3.365685e+02 
1.657720e+00 3.256781e+02 
1.692450e+00 3.151950e+02 
1.726400e+00 3.053903e+02 
1.762200e+00 2.955020e+02 
1.797880e+00 2.860934e+02 
1.833270e+00 2.771941e+02 
1.869070e+00 2.685568e+02 
1.903200e+00 2.606966e+02 
1.937740e+00 2.530586e+02 
1.973190e+00 2.455373e+02 
2.007440e+00 2.385751e+02 
2.042160e+00 2.318161e+02 
2.077900e+00 2.250994e+02 
2.112390e+00 2.189024e+02 
2.146220e+00 2.130520e+02 
2.181600e+00 2.071566e+02 
2.216930e+00 2.015196e+02 
2.250760e+00 1.963111e+02 
2.286500e+00 1.910043e+02 
2.321770e+00 1.859774e+02 
2.355950e+00 1.812780e+02 
2.391280e+00 1.766159e+02 
2.426240e+00 1.721469e+02 
2.460670e+00 1.678984e+02 
2.495640e+00 1.637469e+02 
2.531080e+00 1.596773e+02 
2.566220e+00 1.557787e+02 
2.600830e+00 1.520768e+02 
2.635080e+00 1.485461e+02 
2.670340e+00 1.450219e+02 
2.705970e+00 1.415786e+02 
2.740040e+00 1.383916e+02 
2.774520e+00 1.352628e+02 
2.809730e+00 1.321812e+02 
2.844390e+00 1.292474e+02 
2.879960e+00 1.263268e+02 
2.914860e+00 1.235478e+02 
2.949410e+00 1.208825e+02 
2.984440e+00 1.182703e+02 
3.019760e+00 1.157145e+02 
3.054730e+00 1.132593e+02 
3.089030e+00 1.109181e+02 
3.124060e+00 1.085963e+02 
3.159560e+00 1.063112e+02 
3.194710e+00 1.041211e+02 
3.229010e+00 1.020466e+02 
3.263320e+00 1.000256e+02 
3.297930e+00 9.804676e+01 
3.332830e+00 9.611278e+01 
3.368040e+00 9.421378e+01 
3.403300e+00 9.236327e+01 
3.438450e+00 9.056700e+01 
3.473060e+00 8.884555e+01 
3.508440e+00 8.713971e+01 
3.543110e+00 8.551222e+01 
3.577470e+00 8.393891e+01 
3.613040e+00 8.235438e+01 
3.648120e+00 8.083726e+01 
3.682910e+00 7.937026e+01 
3.718050e+00 7.792442e+01 
3.753320e+00 7.651252e+01 
3.787980e+00 7.516335e+01 
3.822290e+00 7.385959e+01 
3.857020e+00 7.257066e+01 
3.891920e+00 7.130616e+01 
3.926650e+00 7.007689e+01 
3.961970e+00 6.885825e+01 
3.997360e+00 6.767020e+01 
4.031670e+00 6.654644e+01 
4.066330e+00 6.544171e+01 
4.101420e+00 6.434904e+01 
4.136200e+00 6.328958e+01 
4.170810e+00 6.225917e+01 
4.206250e+00 6.123169e+01 
4.241580e+00 6.023133e+01 
4.276300e+00 5.926912e+01 
4.310970e+00 5.832882e+01 
4.346120e+00 5.739804e+01 
4.380600e+00 5.650756e+01 
4.414730e+00 5.564479e+01 
4.450350e+00 5.476287e+01 
4.485320e+00 5.391568e+01 
4.519810e+00 5.310015e+01 
4.555430e+00 5.227674e+01 
4.590870e+00 5.147450e+01 
4.625480e+00 5.070661e+01 
4.659910e+00 4.995825e+01 
4.695230e+00 4.920953e+01 
4.729960e+00 4.848878e+01 
4.764450e+00 4.778836e+01 
4.799530e+00 4.709194e+01 
4.834910e+00 4.640360e+01 
4.869700e+00 4.574276e+01 
4.904370e+00 4.509743e+01 
4.939450e+00 4.445686e+01 
4.973940e+00 4.383851e+01 
5.008430e+00 4.323188e+01 
5.043810e+00 4.262119e+01 
5.078840e+00 4.202794e+01 
5.113500e+00 4.145199e+01 
5.148890e+00 4.088055e+01 
5.184210e+00 4.032119e+01 
5.219060e+00 3.977931e+01 
5.253660e+00 3.925059e+01 
5.288570e+00 3.872682e+01 
5.323420e+00 3.821323e+01 
5.358440e+00 3.770625e+01 
5.393590e+00 3.720655e+01 
5.428310e+00 3.672505e+01 
5.462800e+00 3.625684e+01 
5.497640e+00 3.579211e+01 
5.532670e+00 3.533246e+01 
5.567280e+00 3.488601e+01 
5.602000e+00 3.444582e+01 
5.637270e+00 3.400611e+01 
5.672410e+00 3.357552e+01 
5.707020e+00 3.315861e+01 
5.742040e+00 3.274558e+01 
5.777430e+00 3.233558e+01 
5.812210e+00 3.193941e+01 
5.846820e+00 3.155294e+01 
5.881610e+00 3.117115e+01 
5.916510e+00 3.079441e+01 
5.951600e+00 3.042157e+01 
5.986560e+00 3.005606e+01 
6.021830e+00 2.969330e+01 
6.056490e+00 2.934445e+01 
6.091160e+00 2.900265e+01 
6.125830e+00 2.866622e+01 
6.161090e+00 2.832882e+01 
6.195760e+00 2.800088e+01 
6.230420e+00 2.767814e+01 
6.265690e+00 2.735489e+01 
6.300950e+00 2.703827e+01 
6.335620e+00 2.673174e+01 
6.370880e+00 2.642478e+01 
6.405550e+00 2.612853e+01 
6.440220e+00 2.583713e+01 
6.475480e+00 2.554524e+01 
6.510150e+00 2.526249e+01 
6.544810e+00 2.498387e+01 
6.580080e+00 2.470456e+01 
6.614750e+00 2.443408e+01 
6.649410e+00 2.416880e+01 
6.684080e+00 2.390752e+01 
6.719340e+00 2.364568e+01 
6.754010e+00 2.339188e+01 
6.788680e+00 2.314155e+01 
6.823940e+00 2.289062e+01 
6.859800e+00 2.263915e+01 
6.894470e+00 2.240034e+01 
6.929140e+00 2.216520e+01 
6.963800e+00 2.193341e+01 
6.999070e+00 2.170086e+01 
7.033730e+00 2.147548e+01 
7.068400e+00 2.125315e+01 
7.103660e+00 2.103018e+01 
7.138330e+00 2.081432e+01 
7.173600e+00 2.059847e+01 
7.208260e+00 2.038925e+01 
7.243530e+00 2.017925e+01 
7.277600e+00 1.997912e+01 
7.312860e+00 1.977476e+01 
7.348120e+00 1.957317e+01 
7.382790e+00 1.937761e+01 
7.417460e+00 1.918526e+01 
7.452720e+00 1.899255e+01 
7.487390e+00 1.880557e+01 
7.522650e+00 1.861791e+01 
7.557320e+00 1.843577e+01 
7.591990e+00 1.825598e+01 
7.627250e+00 1.807551e+01 
7.662510e+00 1.789740e+01 
7.697180e+00 1.772451e+01 
7.731850e+00 1.755381e+01 
7.766510e+00 1.738533e+01 
7.801180e+00 1.721893e+01 
7.836440e+00 1.705244e+01 
7.871110e+00 1.689117e+01 
7.906380e+00 1.672918e+01 
7.941040e+00 1.657198e+01 
7.976310e+00 1.641359e+01 
8.011570e+00 1.625672e+01 
8.046240e+00 1.610440e+01 
8.080900e+00 1.595399e+01 
8.115570e+00 1.580572e+01 
8.150830e+00 1.565809e+01 
8.185500e+00 1.551470e+01 
8.220770e+00 1.537060e+01 
8.255430e+00 1.523071e+01 
8.290100e+00 1.509190e+01 
8.324770e+00 1.495469e+01 
8.359430e+00 1.481915e+01 
8.394700e+00 1.468287e+01 
8.429960e+00 1.454859e+01 
8.464630e+00 1.441846e+01 
8.499890e+00 1.428768e+01 
8.534560e+00 1.416059e+01 
8.569200e+00 1.403510e+01 
