# Parameters:
# omega_b = 0.023059, omega_m = 0.122205, n_s = 0.963386, h = 66.338583, w = -1.000000, sigma_8 = 0.838583
# z = 0.100000
#
# k[1/Mpc] # P(k):
8.694000e-04 2.474336e+04 
2.077466e-03 5.202148e+04 
3.285532e-03 7.250621e+04 
4.493598e-03 8.750825e+04 
5.701664e-03 9.795775e+04 
6.909730e-03 1.047282e+05 
8.117797e-03 1.087205e+05 
9.325863e-03 1.103995e+05 
1.053393e-02 1.102017e+05 
1.174199e-02 1.085212e+05 
1.295006e-02 1.056152e+05 
1.415813e-02 1.018219e+05 
1.536619e-02 9.742061e+04 
1.657426e-02 9.249953e+04 
1.778233e-02 8.690064e+04 
1.899039e-02 8.113878e+04 
2.019846e-02 7.601420e+04 
2.140652e-02 7.153798e+04 
2.261459e-02 6.743421e+04 
2.382266e-02 6.364133e+04 
2.503072e-02 6.017397e+04 
2.623879e-02 5.703316e+04 
2.744685e-02 5.421894e+04 
2.865492e-02 5.171216e+04 
2.986299e-02 4.948921e+04 
3.100100e-02 4.764032e+04 
3.220400e-02 4.591317e+04 
3.288100e-02 4.503718e+04 
3.424300e-02 4.344928e+04 
3.555100e-02 4.210427e+04 
3.686000e-02 4.090073e+04 
3.795000e-02 3.998771e+04 
3.929100e-02 3.893634e+04 
4.039800e-02 3.810420e+04 
4.164000e-02 3.720657e+04 
4.294400e-02 3.625344e+04 
4.415000e-02 3.538164e+04 
4.542900e-02 3.442408e+04 
4.660900e-02 3.353611e+04 
4.782300e-02 3.257132e+04 
4.892900e-02 3.169030e+04 
5.031200e-02 3.056420e+04 
5.155900e-02 2.953059e+04 
5.238100e-02 2.884833e+04 
5.378200e-02 2.769421e+04 
5.513400e-02 2.659551e+04 
5.627600e-02 2.568650e+04 
5.735300e-02 2.485562e+04 
5.870100e-02 2.385903e+04 
5.988700e-02 2.302812e+04 
6.113500e-02 2.220010e+04 
6.225900e-02 2.150256e+04 
6.340100e-02 2.083950e+04 
6.480200e-02 2.008525e+04 
6.601100e-02 1.949603e+04 
6.725500e-02 1.894263e+04 
6.829100e-02 1.852631e+04 
6.958600e-02 1.804534e+04 
7.071100e-02 1.767136e+04 
7.192300e-02 1.730562e+04 
7.307400e-02 1.698793e+04 
7.412300e-02 1.672132e+04 
7.550400e-02 1.640367e+04 
7.663100e-02 1.616278e+04 
7.791200e-02 1.590525e+04 
7.912700e-02 1.567251e+04 
8.027600e-02 1.545769e+04 
8.138400e-02 1.525274e+04 
8.272200e-02 1.500350e+04 
8.406100e-02 1.474696e+04 
8.534100e-02 1.449118e+04 
8.653800e-02 1.424016e+04 
8.759800e-02 1.401286e+04 
8.900300e-02 1.370221e+04 
9.009000e-02 1.345117e+04 
9.113300e-02 1.320552e+04 
9.239600e-02 1.290711e+04 
9.358000e-02 1.262415e+04 
9.496100e-02 1.229436e+04 
9.608400e-02 1.203131e+04 
9.727500e-02 1.175847e+04 
9.852600e-02 1.148131e+04 
9.973800e-02 1.122586e+04 
1.009000e-01 1.099226e+04 
1.020900e-01 1.076946e+04 
1.034000e-01 1.053800e+04 
1.046000e-01 1.033917e+04 
1.057200e-01 1.017106e+04 
1.069100e-01 1.000162e+04 
1.082500e-01 9.828622e+03 
1.093900e-01 9.692485e+03 
1.105400e-01 9.562667e+03 
1.116900e-01 9.444689e+03 
1.129600e-01 9.320327e+03 
1.142000e-01 9.207595e+03 
1.153300e-01 9.107970e+03 
1.166400e-01 8.996241e+03 
1.177800e-01 8.901418e+03 
1.190000e-01 8.802379e+03 
1.201200e-01 8.708938e+03 
1.213400e-01 8.608715e+03 
1.227100e-01 8.491549e+03 
1.238900e-01 8.391229e+03 
1.250700e-01 8.286799e+03 
1.263200e-01 8.176608e+03 
1.275500e-01 8.065937e+03 
1.287500e-01 7.957612e+03 
1.299900e-01 7.843743e+03 
1.311300e-01 7.740307e+03 
1.323500e-01 7.630395e+03 
1.335900e-01 7.520617e+03 
1.347100e-01 7.422793e+03 
1.359800e-01 7.314722e+03 
1.372100e-01 7.213251e+03 
1.384300e-01 7.115349e+03 
1.395700e-01 7.027016e+03 
1.407700e-01 6.936311e+03 
1.420300e-01 6.846646e+03 
1.432800e-01 6.759627e+03 
1.444500e-01 6.682828e+03 
1.456300e-01 6.606915e+03 
1.468900e-01 6.530176e+03 
1.480500e-01 6.461738e+03 
1.491700e-01 6.397552e+03 
1.503800e-01 6.330360e+03 
1.516400e-01 6.262147e+03 
1.528200e-01 6.201091e+03 
1.540200e-01 6.140174e+03 
1.551900e-01 6.082269e+03 
1.564300e-01 6.022149e+03 
1.576600e-01 5.963435e+03 
1.588700e-01 5.906494e+03 
1.600900e-01 5.850099e+03 
1.612700e-01 5.795628e+03 
1.625400e-01 5.738083e+03 
1.637600e-01 5.683399e+03 
1.649500e-01 5.630761e+03 
1.662200e-01 5.575394e+03 
1.674000e-01 5.523713e+03 
1.685000e-01 5.476335e+03 
1.697500e-01 5.422998e+03 
1.710300e-01 5.368961e+03 
1.722200e-01 5.319608e+03 
1.734400e-01 5.268833e+03 
1.746400e-01 5.219698e+03 
1.758700e-01 5.170100e+03 
1.770900e-01 5.121557e+03 
1.782700e-01 5.075382e+03 
1.794600e-01 5.029545e+03 
1.807000e-01 4.982554e+03 
1.819100e-01 4.937459e+03 
1.830100e-01 4.897407e+03 
1.842200e-01 4.854082e+03 
1.855000e-01 4.809049e+03 
1.867000e-01 4.768477e+03 
1.879200e-01 4.727880e+03 
1.890900e-01 4.689612e+03 
1.902800e-01 4.651607e+03 
1.915200e-01 4.612621e+03 
1.926900e-01 4.576671e+03 
1.939000e-01 4.540938e+03 
1.951700e-01 4.504015e+03 
1.963100e-01 4.471448e+03 
1.975100e-01 4.437874e+03 
1.987800e-01 4.402881e+03 
2.000100e-01 4.369542e+03 
2.012500e-01 4.336518e+03 
2.023400e-01 4.307897e+03 
2.036100e-01 4.275077e+03 
2.048900e-01 4.242716e+03 
2.060400e-01 4.214060e+03 
2.072200e-01 4.185055e+03 
2.084200e-01 4.155887e+03 
2.096900e-01 4.125463e+03 
2.109200e-01 4.096425e+03 
2.121100e-01 4.068349e+03 
2.132700e-01 4.041330e+03 
2.145200e-01 4.012615e+03 
2.157200e-01 3.985215e+03 
2.168800e-01 3.958980e+03 
2.180700e-01 3.932421e+03 
2.193400e-01 3.904363e+03 
2.206000e-01 3.876723e+03 
2.217500e-01 3.851832e+03 
2.229500e-01 3.826193e+03 
2.241400e-01 3.800940e+03 
2.253500e-01 3.775592e+03 
2.264900e-01 3.752014e+03 
2.277100e-01 3.727186e+03 
2.289900e-01 3.701577e+03 
2.301500e-01 3.678670e+03 
2.313600e-01 3.655076e+03 
2.325600e-01 3.631992e+03 
2.337700e-01 3.609010e+03 
2.350000e-01 3.585944e+03 
2.362000e-01 3.563978e+03 
2.374100e-01 3.542405e+03 
2.386500e-01 3.520575e+03 
2.399100e-01 3.498676e+03 
2.410400e-01 3.479548e+03 
2.422500e-01 3.459343e+03 
2.435000e-01 3.438729e+03 
2.447300e-01 3.418771e+03 
2.458700e-01 3.400794e+03 
2.470600e-01 3.382246e+03 
2.483300e-01 3.362691e+03 
2.495600e-01 3.344107e+03 
2.507600e-01 3.326359e+03 
2.519600e-01 3.308820e+03 
2.532200e-01 3.290623e+03 
2.543700e-01 3.274324e+03 
2.555500e-01 3.257867e+03 
2.568000e-01 3.240637e+03 
2.580100e-01 3.224154e+03 
2.592400e-01 3.207560e+03 
2.604100e-01 3.191940e+03 
2.616100e-01 3.176098e+03 
2.628400e-01 3.160045e+03 
2.640600e-01 3.144433e+03 
2.652200e-01 3.129805e+03 
2.664300e-01 3.114714e+03 
2.676500e-01 3.099669e+03 
2.688400e-01 3.084939e+03 
2.700700e-01 3.069747e+03 
2.712400e-01 3.055454e+03 
2.724800e-01 3.040471e+03 
2.736700e-01 3.026158e+03 
2.748800e-01 3.011667e+03 
2.761000e-01 2.997216e+03 
2.773200e-01 2.982920e+03 
2.785400e-01 2.968762e+03 
2.797000e-01 2.955403e+03 
2.808900e-01 2.941840e+03 
2.821400e-01 2.927745e+03 
2.833900e-01 2.913792e+03 
2.845500e-01 2.900706e+03 
2.857800e-01 2.886974e+03 
2.870300e-01 2.873167e+03 
2.882100e-01 2.860268e+03 
2.893900e-01 2.847413e+03 
2.906300e-01 2.833998e+03 
2.918900e-01 2.820509e+03 
2.930500e-01 2.808217e+03 
2.942500e-01 2.795605e+03 
2.954200e-01 2.783357e+03 
2.966500e-01 2.770609e+03 
2.978900e-01 2.757889e+03 
2.990400e-01 2.746208e+03 
3.002700e-01 2.733773e+03 
3.015100e-01 2.721333e+03 
3.026800e-01 2.709711e+03 
3.038500e-01 2.698198e+03 
3.050300e-01 2.686696e+03 
3.062600e-01 2.674733e+03 
3.075000e-01 2.662791e+03 
3.087000e-01 2.651348e+03 
3.099100e-01 2.639919e+03 
3.111200e-01 2.628579e+03 
3.123100e-01 2.617497e+03 
3.135300e-01 2.606244e+03 
3.147300e-01 2.595279e+03 
3.159900e-01 2.583877e+03 
3.171800e-01 2.573312e+03 
3.183700e-01 2.562912e+03 
3.196300e-01 2.552003e+03 
3.208400e-01 2.541627e+03 
3.220300e-01 2.531516e+03 
3.232000e-01 2.521520e+03 
3.244300e-01 2.511051e+03 
3.256700e-01 2.500594e+03 
3.269200e-01 2.490152e+03 
3.280800e-01 2.480550e+03 
3.292500e-01 2.471078e+03 
3.304800e-01 2.461251e+03 
3.317100e-01 2.451514e+03 
3.328900e-01 2.442256e+03 
3.340700e-01 2.433079e+03 
3.353600e-01 2.423155e+03 
3.365300e-01 2.414241e+03 
3.377100e-01 2.405329e+03 
3.389200e-01 2.396269e+03 
3.401600e-01 2.387068e+03 
3.413700e-01 2.378180e+03 
3.425300e-01 2.369739e+03 
3.437700e-01 2.360794e+03 
3.449800e-01 2.352142e+03 
3.461800e-01 2.343635e+03 
3.473600e-01 2.335327e+03 
3.485800e-01 2.326776e+03 
3.498100e-01 2.318229e+03 
3.510200e-01 2.309893e+03 
3.522000e-01 2.301832e+03 
3.533900e-01 2.293771e+03 
3.546400e-01 2.285459e+03 
3.558400e-01 2.277551e+03 
3.570600e-01 2.269580e+03 
3.582700e-01 2.261741e+03 
3.595000e-01 2.253840e+03 
3.607100e-01 2.246138e+03 
3.618900e-01 2.238693e+03 
3.631200e-01 2.230997e+03 
3.643200e-01 2.223552e+03 
3.655500e-01 2.215983e+03 
3.667300e-01 2.208781e+03 
3.679500e-01 2.201378e+03 
3.691900e-01 2.193916e+03 
3.703600e-01 2.186933e+03 
3.715700e-01 2.179768e+03 
3.727700e-01 2.172720e+03 
3.739900e-01 2.165624e+03 
3.752000e-01 2.158664e+03 
3.763900e-01 2.151875e+03 
3.775800e-01 2.145139e+03 
3.788200e-01 2.138176e+03 
3.800300e-01 2.131436e+03 
3.812100e-01 2.124859e+03 
3.824200e-01 2.118129e+03 
3.836100e-01 2.111562e+03 
3.848600e-01 2.104719e+03 
3.860400e-01 2.098310e+03 
3.872400e-01 2.091842e+03 
3.884600e-01 2.085313e+03 
3.896500e-01 2.078991e+03 
3.908700e-01 2.072560e+03 
3.920600e-01 2.066336e+03 
3.933100e-01 2.059848e+03 
3.945300e-01 2.053566e+03 
3.957200e-01 2.047494e+03 
3.969300e-01 2.041369e+03 
3.981700e-01 2.035140e+03 
3.993500e-01 2.029258e+03 
4.094840e-01 1.979992e+03 
4.272360e-01 1.899696e+03 
4.454600e-01 1.823485e+03 
4.630560e-01 1.755750e+03 
4.804610e-01 1.693239e+03 
4.980690e-01 1.634308e+03 
5.159230e-01 1.578523e+03 
5.317440e-01 1.531900e+03 
5.489640e-01 1.484253e+03 
5.671990e-01 1.436602e+03 
5.838690e-01 1.395493e+03 
6.018840e-01 1.353555e+03 
6.202330e-01 1.313142e+03 
6.379250e-01 1.276286e+03 
6.545410e-01 1.243115e+03 
6.714560e-01 1.210898e+03 
6.892080e-01 1.178507e+03 
7.066010e-01 1.148195e+03 
7.240540e-01 1.119086e+03 
7.420450e-01 1.090036e+03 
7.593780e-01 1.063347e+03 
7.764720e-01 1.037910e+03 
7.942840e-01 1.012459e+03 
8.116170e-01 9.884700e+02 
8.288310e-01 9.654674e+02 
8.462240e-01 9.429634e+02 
8.631980e-01 9.218190e+02 
8.810700e-01 9.001965e+02 
8.989410e-01 8.793547e+02 
9.166330e-01 8.593299e+02 
9.345640e-01 8.396632e+02 
9.515980e-01 8.215634e+02 
9.688720e-01 8.037022e+02 
9.865640e-01 7.859270e+02 
1.031870e+00 7.430147e+02 
1.063490e+00 7.148921e+02 
1.097920e+00 6.858388e+02 
1.134370e+00 6.568326e+02 
1.167730e+00 6.318059e+02 
1.203830e+00 6.061535e+02 
1.240470e+00 5.815853e+02 
1.275790e+00 5.591286e+02 
1.309140e+00 5.390598e+02 
1.342970e+00 5.197050e+02 
1.378420e+00 5.004565e+02 
1.413200e+00 4.825236e+02 
1.448110e+00 4.653893e+02 
1.484090e+00 4.486190e+02 
1.518820e+00 4.332025e+02 
1.552880e+00 4.188237e+02 
1.588630e+00 4.044574e+02 
1.623230e+00 3.912054e+02 
1.657720e+00 3.786250e+02 
1.692450e+00 3.665127e+02 
1.726400e+00 3.551901e+02 
1.762200e+00 3.437677e+02 
1.797880e+00 3.329035e+02 
1.833270e+00 3.226264e+02 
1.869070e+00 3.126530e+02 
1.903200e+00 3.035764e+02 
1.937740e+00 2.947561e+02 
1.973190e+00 2.860698e+02 
2.007440e+00 2.780281e+02 
2.042160e+00 2.702214e+02 
2.077900e+00 2.624624e+02 
2.112390e+00 2.553031e+02 
2.146220e+00 2.485439e+02 
2.181600e+00 2.417318e+02 
2.216930e+00 2.352174e+02 
2.250760e+00 2.291974e+02 
2.286500e+00 2.230631e+02 
2.321770e+00 2.172514e+02 
2.355950e+00 2.118179e+02 
2.391280e+00 2.064265e+02 
2.426240e+00 2.012574e+02 
2.460670e+00 1.963425e+02 
2.495640e+00 1.915391e+02 
2.531080e+00 1.868299e+02 
2.566220e+00 1.823176e+02 
2.600830e+00 1.780321e+02 
2.635080e+00 1.739445e+02 
2.670340e+00 1.698632e+02 
2.705970e+00 1.658748e+02 
2.740040e+00 1.621826e+02 
2.774520e+00 1.585571e+02 
2.809730e+00 1.549859e+02 
2.844390e+00 1.515853e+02 
2.879960e+00 1.481994e+02 
2.914860e+00 1.449766e+02 
2.949410e+00 1.418850e+02 
2.984440e+00 1.388545e+02 
3.019760e+00 1.358890e+02 
3.054730e+00 1.330396e+02 
3.089030e+00 1.303219e+02 
3.124060e+00 1.276261e+02 
3.159560e+00 1.249722e+02 
3.194710e+00 1.224281e+02 
3.229010e+00 1.200180e+02 
3.263320e+00 1.176692e+02 
3.297930e+00 1.153691e+02 
3.332830e+00 1.131209e+02 
3.368040e+00 1.109126e+02 
3.403300e+00 1.087602e+02 
3.438450e+00 1.066704e+02 
3.473060e+00 1.046673e+02 
3.508440e+00 1.026819e+02 
3.543110e+00 1.007874e+02 
3.577470e+00 9.895531e+01 
3.613040e+00 9.710988e+01 
3.648120e+00 9.534266e+01 
3.682910e+00 9.363340e+01 
3.718050e+00 9.194821e+01 
3.753320e+00 9.030239e+01 
3.787980e+00 8.872948e+01 
3.822290e+00 8.720915e+01 
3.857020e+00 8.570561e+01 
3.891920e+00 8.423024e+01 
3.926650e+00 8.279552e+01 
3.961970e+00 8.137300e+01 
3.997360e+00 7.998590e+01 
4.031670e+00 7.867366e+01 
4.066330e+00 7.738331e+01 
4.101420e+00 7.610690e+01 
4.136200e+00 7.486887e+01 
4.170810e+00 7.366463e+01 
4.206250e+00 7.246339e+01 
4.241580e+00 7.129368e+01 
4.276300e+00 7.016827e+01 
4.310970e+00 6.906824e+01 
4.346120e+00 6.797915e+01 
4.380600e+00 6.693696e+01 
4.414730e+00 6.592709e+01 
4.450350e+00 6.489437e+01 
4.485320e+00 6.390220e+01 
4.519810e+00 6.294685e+01 
4.555430e+00 6.198209e+01 
4.590870e+00 6.104194e+01 
4.625480e+00 6.014175e+01 
4.659910e+00 5.926435e+01 
4.695230e+00 5.838626e+01 
4.729960e+00 5.754086e+01 
4.764450e+00 5.671916e+01 
4.799530e+00 5.590195e+01 
4.834910e+00 5.509414e+01 
4.869700e+00 5.431837e+01 
4.904370e+00 5.356069e+01 
4.939450e+00 5.280845e+01 
4.973940e+00 5.208199e+01 
5.008430e+00 5.136923e+01 
5.043810e+00 5.065149e+01 
5.078840e+00 4.995410e+01 
5.113500e+00 4.927699e+01 
5.148890e+00 4.860492e+01 
5.184210e+00 4.794699e+01 
5.219060e+00 4.730950e+01 
5.253660e+00 4.668728e+01 
5.288570e+00 4.607082e+01 
5.323420e+00 4.546619e+01 
5.358440e+00 4.486915e+01 
5.393590e+00 4.428063e+01 
5.428310e+00 4.371341e+01 
5.462800e+00 4.316176e+01 
5.497640e+00 4.261416e+01 
5.532670e+00 4.207232e+01 
5.567280e+00 4.154594e+01 
5.602000e+00 4.102689e+01 
5.637270e+00 4.050822e+01 
5.672410e+00 4.000021e+01 
5.707020e+00 3.950832e+01 
5.742040e+00 3.902077e+01 
5.777430e+00 3.853674e+01 
5.812210e+00 3.806899e+01 
5.846820e+00 3.761253e+01 
5.881610e+00 3.716153e+01 
5.916510e+00 3.671648e+01 
5.951600e+00 3.627587e+01 
5.986560e+00 3.584382e+01 
6.021830e+00 3.541499e+01 
6.056490e+00 3.500249e+01 
6.091160e+00 3.459821e+01 
6.125830e+00 3.420026e+01 
6.161090e+00 3.380107e+01 
6.195760e+00 3.341291e+01 
6.230420e+00 3.303087e+01 
6.265690e+00 3.264820e+01 
6.300950e+00 3.227318e+01 
6.335620e+00 3.191010e+01 
6.370880e+00 3.154648e+01 
6.405550e+00 3.119541e+01 
6.440220e+00 3.085002e+01 
6.475480e+00 3.050403e+01 
6.510150e+00 3.016880e+01 
6.544810e+00 2.983834e+01 
6.580080e+00 2.950704e+01 
6.614750e+00 2.918620e+01 
6.649410e+00 2.887136e+01 
6.684080e+00 2.856124e+01 
6.719340e+00 2.825043e+01 
6.754010e+00 2.794911e+01 
6.788680e+00 2.765178e+01 
6.823940e+00 2.735374e+01 
6.859800e+00 2.705503e+01 
6.894470e+00 2.677124e+01 
6.929140e+00 2.649174e+01 
6.963800e+00 2.621622e+01 
6.999070e+00 2.593977e+01 
7.033730e+00 2.567168e+01 
7.068400e+00 2.540721e+01 
7.103660e+00 2.514197e+01 
7.138330e+00 2.488513e+01 
7.173600e+00 2.462821e+01 
7.208260e+00 2.437918e+01 
7.243530e+00 2.412921e+01 
7.277600e+00 2.389089e+01 
7.312860e+00 2.364745e+01 
7.348120e+00 2.340730e+01 
7.382790e+00 2.317434e+01 
7.417460e+00 2.294509e+01 
7.452720e+00 2.271536e+01 
7.487390e+00 2.249246e+01 
7.522650e+00 2.226874e+01 
7.557320e+00 2.205151e+01 
7.591990e+00 2.183702e+01 
7.627250e+00 2.162172e+01 
7.662510e+00 2.140923e+01 
7.697180e+00 2.120287e+01 
7.731850e+00 2.099909e+01 
7.766510e+00 2.079795e+01 
7.801180e+00 2.059930e+01 
7.836440e+00 2.040046e+01 
7.871110e+00 2.020780e+01 
7.906380e+00 2.001428e+01 
7.941040e+00 1.982648e+01 
7.976310e+00 1.963719e+01 
8.011570e+00 1.944966e+01 
8.046240e+00 1.926755e+01 
8.080900e+00 1.908773e+01 
8.115570e+00 1.891045e+01 
8.150830e+00 1.873385e+01 
8.185500e+00 1.856231e+01 
8.220770e+00 1.838993e+01 
8.255430e+00 1.822257e+01 
8.290100e+00 1.805641e+01 
8.324770e+00 1.789215e+01 
8.359430e+00 1.772988e+01 
8.394700e+00 1.756674e+01 
8.429960e+00 1.740594e+01 
8.464630e+00 1.725005e+01 
8.499890e+00 1.709337e+01 
8.534560e+00 1.694114e+01 
8.569200e+00 1.679080e+01 
