# Parameters:
# omega_b = 0.022382, omega_m = 0.128543, n_s = 0.879921, h = 69.645669, w = -1.000000, sigma_8 = 0.781890
# z = 0.100000
#
# k[1/Mpc] # P(k):
8.694000e-04 2.540652e+04 
2.077466e-03 4.992053e+04 
3.285532e-03 6.729917e+04 
4.493598e-03 7.949983e+04 
5.701664e-03 8.768157e+04 
6.909730e-03 9.272599e+04 
8.117797e-03 9.545777e+04 
9.325863e-03 9.630440e+04 
1.053393e-02 9.565476e+04 
1.174199e-02 9.385121e+04 
1.295006e-02 9.110922e+04 
1.415813e-02 8.770209e+04 
1.536619e-02 8.385370e+04 
1.657426e-02 7.969275e+04 
1.778233e-02 7.528582e+04 
1.899039e-02 7.087764e+04 
2.019846e-02 6.669059e+04 
2.140652e-02 6.277855e+04 
2.261459e-02 5.911523e+04 
2.382266e-02 5.572002e+04 
2.503072e-02 5.261337e+04 
2.623879e-02 4.979478e+04 
2.744685e-02 4.726152e+04 
2.865492e-02 4.499785e+04 
2.986299e-02 4.298327e+04 
3.100100e-02 4.130037e+04 
3.220400e-02 3.972225e+04 
3.288100e-02 3.891926e+04 
3.424300e-02 3.746070e+04 
3.555100e-02 3.622419e+04 
3.686000e-02 3.511932e+04 
3.795000e-02 3.428385e+04 
3.929100e-02 3.332902e+04 
4.039800e-02 3.258021e+04 
4.164000e-02 3.177913e+04 
4.294400e-02 3.093954e+04 
4.415000e-02 3.017736e+04 
4.542900e-02 2.934762e+04 
4.660900e-02 2.858151e+04 
4.782300e-02 2.775249e+04 
4.892900e-02 2.699596e+04 
5.031200e-02 2.602899e+04 
5.155900e-02 2.513993e+04 
5.238100e-02 2.455199e+04 
5.378200e-02 2.355523e+04 
5.513400e-02 2.260305e+04 
5.627600e-02 2.181283e+04 
5.735300e-02 2.108868e+04 
5.870100e-02 2.021788e+04 
5.988700e-02 1.949029e+04 
6.113500e-02 1.876403e+04 
6.225900e-02 1.815116e+04 
6.340100e-02 1.756801e+04 
6.480200e-02 1.690443e+04 
6.601100e-02 1.638562e+04 
6.725500e-02 1.589833e+04 
6.829100e-02 1.553165e+04 
6.958600e-02 1.510828e+04 
7.071100e-02 1.477908e+04 
7.192300e-02 1.445716e+04 
7.307400e-02 1.417768e+04 
7.412300e-02 1.394321e+04 
7.550400e-02 1.366383e+04 
7.663100e-02 1.345207e+04 
7.791200e-02 1.322611e+04 
7.912700e-02 1.302239e+04 
8.027600e-02 1.283493e+04 
8.138400e-02 1.265671e+04 
8.272200e-02 1.244107e+04 
8.406100e-02 1.222053e+04 
8.534100e-02 1.200233e+04 
8.653800e-02 1.178967e+04 
8.759800e-02 1.159795e+04 
8.900300e-02 1.133721e+04 
9.009000e-02 1.112743e+04 
9.113300e-02 1.092275e+04 
9.239600e-02 1.067448e+04 
9.358000e-02 1.043928e+04 
9.496100e-02 1.016495e+04 
9.608400e-02 9.945768e+03 
9.727500e-02 9.718098e+03 
9.852600e-02 9.485349e+03 
9.973800e-02 9.270010e+03 
1.009000e-01 9.072387e+03 
1.020900e-01 8.881981e+03 
1.034000e-01 8.683281e+03 
1.046000e-01 8.511598e+03 
1.057200e-01 8.364916e+03 
1.069100e-01 8.216595e+03 
1.082500e-01 8.063785e+03 
1.093900e-01 7.943002e+03 
1.105400e-01 7.827496e+03 
1.116900e-01 7.722114e+03 
1.129600e-01 7.610998e+03 
1.142000e-01 7.510456e+03 
1.153300e-01 7.421965e+03 
1.166400e-01 7.323289e+03 
1.177800e-01 7.240322e+03 
1.190000e-01 7.154024e+03 
1.201200e-01 7.073946e+03 
1.213400e-01 6.988283e+03 
1.227100e-01 6.889867e+03 
1.238900e-01 6.805901e+03 
1.250700e-01 6.719426e+03 
1.263200e-01 6.628425e+03 
1.275500e-01 6.537556e+03 
1.287500e-01 6.448739e+03 
1.299900e-01 6.355567e+03 
1.311300e-01 6.270856e+03 
1.323500e-01 6.180726e+03 
1.335900e-01 6.090465e+03 
1.347100e-01 6.009714e+03 
1.359800e-01 5.920211e+03 
1.372100e-01 5.835573e+03 
1.384300e-01 5.753643e+03 
1.395700e-01 5.679054e+03 
1.407700e-01 5.602383e+03 
1.420300e-01 5.525639e+03 
1.432800e-01 5.451179e+03 
1.444500e-01 5.384683e+03 
1.456300e-01 5.318970e+03 
1.468900e-01 5.252169e+03 
1.480500e-01 5.192485e+03 
1.491700e-01 5.136479e+03 
1.503800e-01 5.077805e+03 
1.516400e-01 5.018285e+03 
1.528200e-01 4.965170e+03 
1.540200e-01 4.912181e+03 
1.551900e-01 4.862194e+03 
1.564300e-01 4.810390e+03 
1.576600e-01 4.760076e+03 
1.588700e-01 4.711615e+03 
1.600900e-01 4.663652e+03 
1.612700e-01 4.617885e+03 
1.625400e-01 4.569539e+03 
1.637600e-01 4.523883e+03 
1.649500e-01 4.480102e+03 
1.662200e-01 4.434095e+03 
1.674000e-01 4.391387e+03 
1.685000e-01 4.352237e+03 
1.697500e-01 4.308218e+03 
1.710300e-01 4.263676e+03 
1.722200e-01 4.222998e+03 
1.734400e-01 4.181108e+03 
1.746400e-01 4.140573e+03 
1.758700e-01 4.099609e+03 
1.770900e-01 4.059418e+03 
1.782700e-01 4.021192e+03 
1.794600e-01 3.983120e+03 
1.807000e-01 3.944006e+03 
1.819100e-01 3.906475e+03 
1.830100e-01 3.872975e+03 
1.842200e-01 3.836712e+03 
1.855000e-01 3.799013e+03 
1.867000e-01 3.764845e+03 
1.879200e-01 3.730660e+03 
1.890900e-01 3.698418e+03 
1.902800e-01 3.666289e+03 
1.915200e-01 3.633333e+03 
1.926900e-01 3.602920e+03 
1.939000e-01 3.572603e+03 
1.951700e-01 3.541280e+03 
1.963100e-01 3.513651e+03 
1.975100e-01 3.485159e+03 
1.987800e-01 3.455465e+03 
2.000100e-01 3.427189e+03 
2.012500e-01 3.399210e+03 
2.023400e-01 3.374963e+03 
2.036100e-01 3.347174e+03 
2.048900e-01 3.319832e+03 
2.060400e-01 3.295621e+03 
2.072200e-01 3.271124e+03 
2.084200e-01 3.246587e+03 
2.096900e-01 3.220994e+03 
2.109200e-01 3.196567e+03 
2.121100e-01 3.173074e+03 
2.132700e-01 3.150473e+03 
2.145200e-01 3.126453e+03 
2.157200e-01 3.103605e+03 
2.168800e-01 3.081762e+03 
2.180700e-01 3.059650e+03 
2.193400e-01 3.036322e+03 
2.206000e-01 3.013404e+03 
2.217500e-01 2.992765e+03 
2.229500e-01 2.971508e+03 
2.241400e-01 2.950612e+03 
2.253500e-01 2.929641e+03 
2.264900e-01 2.910134e+03 
2.277100e-01 2.889594e+03 
2.289900e-01 2.868408e+03 
2.301500e-01 2.849458e+03 
2.313600e-01 2.829939e+03 
2.325600e-01 2.810810e+03 
2.337700e-01 2.791765e+03 
2.350000e-01 2.772653e+03 
2.362000e-01 2.754411e+03 
2.374100e-01 2.736446e+03 
2.386500e-01 2.718268e+03 
2.399100e-01 2.700032e+03 
2.410400e-01 2.684032e+03 
2.422500e-01 2.667122e+03 
2.435000e-01 2.649868e+03 
2.447300e-01 2.633147e+03 
2.458700e-01 2.618020e+03 
2.470600e-01 2.602410e+03 
2.483300e-01 2.585954e+03 
2.495600e-01 2.570288e+03 
2.507600e-01 2.555293e+03 
2.519600e-01 2.540472e+03 
2.532200e-01 2.525095e+03 
2.543700e-01 2.511310e+03 
2.555500e-01 2.497382e+03 
2.568000e-01 2.482799e+03 
2.580100e-01 2.468848e+03 
2.592400e-01 2.454821e+03 
2.604100e-01 2.441627e+03 
2.616100e-01 2.428244e+03 
2.628400e-01 2.414681e+03 
2.640600e-01 2.401514e+03 
2.652200e-01 2.389185e+03 
2.664300e-01 2.376464e+03 
2.676500e-01 2.363780e+03 
2.688400e-01 2.351411e+03 
2.700700e-01 2.338684e+03 
2.712400e-01 2.326708e+03 
2.724800e-01 2.314153e+03 
2.736700e-01 2.302190e+03 
2.748800e-01 2.290110e+03 
2.761000e-01 2.278061e+03 
2.773200e-01 2.266142e+03 
2.785400e-01 2.254350e+03 
2.797000e-01 2.243252e+03 
2.808900e-01 2.231984e+03 
2.821400e-01 2.220273e+03 
2.833900e-01 2.208680e+03 
2.845500e-01 2.197850e+03 
2.857800e-01 2.186484e+03 
2.870300e-01 2.175055e+03 
2.882100e-01 2.164377e+03 
2.893900e-01 2.153752e+03 
2.906300e-01 2.142671e+03 
2.918900e-01 2.131529e+03 
2.930500e-01 2.121375e+03 
2.942500e-01 2.110960e+03 
2.954200e-01 2.100860e+03 
2.966500e-01 2.090348e+03 
2.978900e-01 2.079858e+03 
2.990400e-01 2.070225e+03 
3.002700e-01 2.059976e+03 
3.015100e-01 2.049726e+03 
3.026800e-01 2.040148e+03 
3.038500e-01 2.030661e+03 
3.050300e-01 2.021182e+03 
3.062600e-01 2.011352e+03 
3.075000e-01 2.001539e+03 
3.087000e-01 1.992134e+03 
3.099100e-01 1.982741e+03 
3.111200e-01 1.973424e+03 
3.123100e-01 1.964324e+03 
3.135300e-01 1.955082e+03 
3.147300e-01 1.946078e+03 
3.159900e-01 1.936713e+03 
3.171800e-01 1.928030e+03 
3.183700e-01 1.919479e+03 
3.196300e-01 1.910509e+03 
3.208400e-01 1.901976e+03 
3.220300e-01 1.893661e+03 
3.232000e-01 1.885475e+03 
3.244300e-01 1.876916e+03 
3.256700e-01 1.868366e+03 
3.269200e-01 1.859829e+03 
3.280800e-01 1.851977e+03 
3.292500e-01 1.844227e+03 
3.304800e-01 1.836184e+03 
3.317100e-01 1.828213e+03 
3.328900e-01 1.820635e+03 
3.340700e-01 1.813122e+03 
3.353600e-01 1.805015e+03 
3.365300e-01 1.797740e+03 
3.377100e-01 1.790465e+03 
3.389200e-01 1.783070e+03 
3.401600e-01 1.775559e+03 
3.413700e-01 1.768317e+03 
3.425300e-01 1.761449e+03 
3.437700e-01 1.754170e+03 
3.449800e-01 1.747129e+03 
3.461800e-01 1.740206e+03 
3.473600e-01 1.733450e+03 
3.485800e-01 1.726507e+03 
3.498100e-01 1.719568e+03 
3.510200e-01 1.712799e+03 
3.522000e-01 1.706254e+03 
3.533900e-01 1.699707e+03 
3.546400e-01 1.692982e+03 
3.558400e-01 1.686586e+03 
3.570600e-01 1.680137e+03 
3.582700e-01 1.673795e+03 
3.595000e-01 1.667402e+03 
3.607100e-01 1.661181e+03 
3.618900e-01 1.655175e+03 
3.631200e-01 1.648967e+03 
3.643200e-01 1.642959e+03 
3.655500e-01 1.636852e+03 
3.667300e-01 1.631040e+03 
3.679500e-01 1.625097e+03 
3.691900e-01 1.619106e+03 
3.703600e-01 1.613498e+03 
3.715700e-01 1.607745e+03 
3.727700e-01 1.602084e+03 
3.739900e-01 1.596387e+03 
3.752000e-01 1.590804e+03 
3.763900e-01 1.585356e+03 
3.775800e-01 1.579951e+03 
3.788200e-01 1.574362e+03 
3.800300e-01 1.568953e+03 
3.812100e-01 1.563692e+03 
3.824200e-01 1.558322e+03 
3.836100e-01 1.553082e+03 
3.848600e-01 1.547620e+03 
3.860400e-01 1.542504e+03 
3.872400e-01 1.537341e+03 
3.884600e-01 1.532145e+03 
3.896500e-01 1.527120e+03 
3.908700e-01 1.522008e+03 
3.920600e-01 1.517059e+03 
3.933100e-01 1.511901e+03 
3.945300e-01 1.506905e+03 
3.957200e-01 1.502083e+03 
3.969300e-01 1.497219e+03 
3.981700e-01 1.492273e+03 
3.993500e-01 1.487601e+03 
4.094840e-01 1.448602e+03 
4.272360e-01 1.385382e+03 
4.454600e-01 1.325731e+03 
4.630560e-01 1.272905e+03 
4.804610e-01 1.224398e+03 
4.980690e-01 1.178821e+03 
5.159230e-01 1.135864e+03 
5.317440e-01 1.100094e+03 
5.489640e-01 1.063704e+03 
5.671990e-01 1.027532e+03 
5.838690e-01 9.964926e+02 
6.018840e-01 9.649821e+02 
6.202330e-01 9.348432e+02 
6.379250e-01 9.074823e+02 
6.545410e-01 8.830530e+02 
6.714560e-01 8.594378e+02 
6.892080e-01 8.358594e+02 
7.066010e-01 8.139046e+02 
7.240540e-01 7.929251e+02 
7.420450e-01 7.721251e+02 
7.593780e-01 7.530993e+02 
7.764720e-01 7.350390e+02 
7.942840e-01 7.170493e+02 
8.116170e-01 7.001448e+02 
8.288310e-01 6.840040e+02 
8.462240e-01 6.682507e+02 
8.631980e-01 6.534922e+02 
8.810700e-01 6.384333e+02 
8.989410e-01 6.239401e+02 
9.166330e-01 6.100421e+02 
9.345640e-01 5.964157e+02 
9.515980e-01 5.838847e+02 
9.688720e-01 5.715326e+02 
9.865640e-01 5.592455e+02 
1.031870e+00 5.296114e+02 
1.063490e+00 5.101928e+02 
1.097920e+00 4.901328e+02 
1.134370e+00 4.700846e+02 
1.167730e+00 4.527711e+02 
1.203830e+00 4.349999e+02 
1.240470e+00 4.179610e+02 
1.275790e+00 4.023611e+02 
1.309140e+00 3.883957e+02 
1.342970e+00 3.749064e+02 
1.378420e+00 3.614704e+02 
1.413200e+00 3.489252e+02 
1.448110e+00 3.369223e+02 
1.484090e+00 3.251504e+02 
1.518820e+00 3.143130e+02 
1.552880e+00 3.041835e+02 
1.588630e+00 2.940498e+02 
1.623230e+00 2.846851e+02 
1.657720e+00 2.757820e+02 
1.692450e+00 2.672002e+02 
1.726400e+00 2.591608e+02 
1.762200e+00 2.510403e+02 
1.797880e+00 2.433030e+02 
1.833270e+00 2.359756e+02 
1.869070e+00 2.288517e+02 
1.903200e+00 2.223615e+02 
1.937740e+00 2.160464e+02 
1.973190e+00 2.098193e+02 
2.007440e+00 2.040475e+02 
2.042160e+00 1.984374e+02 
2.077900e+00 1.928547e+02 
2.112390e+00 1.876987e+02 
2.146220e+00 1.828242e+02 
2.181600e+00 1.779062e+02 
2.216930e+00 1.731987e+02 
2.250760e+00 1.688439e+02 
2.286500e+00 1.644022e+02 
2.321770e+00 1.601905e+02 
2.355950e+00 1.562488e+02 
2.391280e+00 1.523340e+02 
2.426240e+00 1.485768e+02 
2.460670e+00 1.450016e+02 
2.495640e+00 1.415050e+02 
2.531080e+00 1.380734e+02 
2.566220e+00 1.347828e+02 
2.600830e+00 1.316555e+02 
2.635080e+00 1.286706e+02 
2.670340e+00 1.256873e+02 
2.705970e+00 1.227701e+02 
2.740040e+00 1.200680e+02 
2.774520e+00 1.174124e+02 
2.809730e+00 1.147950e+02 
2.844390e+00 1.123014e+02 
2.879960e+00 1.098166e+02 
2.914860e+00 1.074500e+02 
2.949410e+00 1.051787e+02 
2.984440e+00 1.029508e+02 
3.019760e+00 1.007695e+02 
3.054730e+00 9.867275e+01 
3.089030e+00 9.667122e+01 
3.124060e+00 9.468511e+01 
3.159560e+00 9.272896e+01 
3.194710e+00 9.085272e+01 
3.229010e+00 8.907480e+01 
3.263320e+00 8.734084e+01 
3.297930e+00 8.564236e+01 
3.332830e+00 8.398141e+01 
3.368040e+00 8.234936e+01 
3.403300e+00 8.075809e+01 
3.438450e+00 7.921221e+01 
3.473060e+00 7.773025e+01 
3.508440e+00 7.626046e+01 
3.543110e+00 7.485776e+01 
3.577470e+00 7.350057e+01 
3.613040e+00 7.213325e+01 
3.648120e+00 7.082328e+01 
3.682910e+00 6.955604e+01 
3.718050e+00 6.830622e+01 
3.753320e+00 6.708532e+01 
3.787980e+00 6.591814e+01 
3.822290e+00 6.478975e+01 
3.857020e+00 6.367350e+01 
3.891920e+00 6.257798e+01 
3.926650e+00 6.151235e+01 
3.961970e+00 6.045562e+01 
3.997360e+00 5.942486e+01 
4.031670e+00 5.844966e+01 
4.066330e+00 5.749043e+01 
4.101420e+00 5.654155e+01 
4.136200e+00 5.562087e+01 
4.170810e+00 5.472533e+01 
4.206250e+00 5.383178e+01 
4.241580e+00 5.296163e+01 
4.276300e+00 5.212430e+01 
4.310970e+00 5.130577e+01 
4.346120e+00 5.049532e+01 
4.380600e+00 4.971963e+01 
4.414730e+00 4.896800e+01 
4.450350e+00 4.819922e+01 
4.485320e+00 4.746065e+01 
4.519810e+00 4.674939e+01 
4.555430e+00 4.603110e+01 
4.590870e+00 4.533110e+01 
4.625480e+00 4.466075e+01 
4.659910e+00 4.400738e+01 
4.695230e+00 4.335347e+01 
4.729960e+00 4.272391e+01 
4.764450e+00 4.211199e+01 
4.799530e+00 4.150338e+01 
4.834910e+00 4.090180e+01 
4.869700e+00 4.032401e+01 
4.904370e+00 3.975972e+01 
4.939450e+00 3.919949e+01 
4.973940e+00 3.865849e+01 
5.008430e+00 3.812770e+01 
5.043810e+00 3.759322e+01 
5.078840e+00 3.707391e+01 
5.113500e+00 3.656971e+01 
5.148890e+00 3.606932e+01 
5.184210e+00 3.557948e+01 
5.219060e+00 3.510486e+01 
5.253660e+00 3.464162e+01 
5.288570e+00 3.418267e+01 
5.323420e+00 3.373259e+01 
5.358440e+00 3.328824e+01 
5.393590e+00 3.285023e+01 
5.428310e+00 3.242813e+01 
5.462800e+00 3.201764e+01 
5.497640e+00 3.161018e+01 
5.532670e+00 3.120707e+01 
5.567280e+00 3.081549e+01 
5.602000e+00 3.042938e+01 
5.637270e+00 3.004363e+01 
5.672410e+00 2.966584e+01 
5.707020e+00 2.930004e+01 
5.742040e+00 2.893755e+01 
5.777430e+00 2.857770e+01 
5.812210e+00 2.822996e+01 
5.846820e+00 2.789071e+01 
5.881610e+00 2.755556e+01 
5.916510e+00 2.722482e+01 
5.951600e+00 2.689748e+01 
5.986560e+00 2.657655e+01 
6.021830e+00 2.625801e+01 
6.056490e+00 2.595167e+01 
6.091160e+00 2.565149e+01 
6.125830e+00 2.535601e+01 
6.161090e+00 2.505965e+01 
6.195760e+00 2.477158e+01 
6.230420e+00 2.448806e+01 
6.265690e+00 2.420407e+01 
6.300950e+00 2.392589e+01 
6.335620e+00 2.365656e+01 
6.370880e+00 2.338684e+01 
6.405550e+00 2.312653e+01 
6.440220e+00 2.287048e+01 
6.475480e+00 2.261398e+01 
6.510150e+00 2.236550e+01 
6.544810e+00 2.212062e+01 
6.580080e+00 2.187513e+01 
6.614750e+00 2.163738e+01 
6.649410e+00 2.140421e+01 
6.684080e+00 2.117456e+01 
6.719340e+00 2.094440e+01 
6.754010e+00 2.072130e+01 
6.788680e+00 2.050124e+01 
6.823940e+00 2.028065e+01 
6.859800e+00 2.005956e+01 
6.894470e+00 1.984961e+01 
6.929140e+00 1.964286e+01 
6.963800e+00 1.943906e+01 
6.999070e+00 1.923457e+01 
7.033730e+00 1.903640e+01 
7.068400e+00 1.884090e+01 
7.103660e+00 1.864482e+01 
7.138330e+00 1.845500e+01 
7.173600e+00 1.826520e+01 
7.208260e+00 1.808122e+01 
7.243530e+00 1.789655e+01 
7.277600e+00 1.772054e+01 
7.312860e+00 1.754080e+01 
7.348120e+00 1.736348e+01 
7.382790e+00 1.719147e+01 
7.417460e+00 1.702229e+01 
7.452720e+00 1.685280e+01 
7.487390e+00 1.668834e+01 
7.522650e+00 1.652327e+01 
7.557320e+00 1.636306e+01 
7.591990e+00 1.620490e+01 
7.627250e+00 1.604613e+01 
7.662510e+00 1.588943e+01 
7.697180e+00 1.573733e+01 
7.731850e+00 1.558715e+01 
7.766510e+00 1.543891e+01 
7.801180e+00 1.529249e+01 
7.836440e+00 1.514601e+01 
7.871110e+00 1.500412e+01 
7.906380e+00 1.486158e+01 
7.941040e+00 1.472326e+01 
7.976310e+00 1.458387e+01 
8.011570e+00 1.444583e+01 
8.046240e+00 1.431177e+01 
8.080900e+00 1.417939e+01 
8.115570e+00 1.404889e+01 
8.150830e+00 1.391898e+01 
8.185500e+00 1.379280e+01 
8.220770e+00 1.366598e+01 
8.255430e+00 1.354285e+01 
8.290100e+00 1.342067e+01 
8.324770e+00 1.329989e+01 
8.359430e+00 1.318057e+01 
8.394700e+00 1.306059e+01 
8.429960e+00 1.294238e+01 
8.464630e+00 1.282781e+01 
8.499890e+00 1.271266e+01 
8.534560e+00 1.260077e+01 
8.569200e+00 1.249026e+01 
