# Parameters:
# omega_b = 0.023280, omega_m = 0.145079, n_s = 0.944488, h = 70.826772, w = -1.000000, sigma_8 = 0.846457
# z = 0.100000
#
# k[1/Mpc] # P(k):
8.694000e-04 1.519761e+04 
2.077466e-03 3.195298e+04 
3.285532e-03 4.492700e+04 
4.493598e-03 5.489598e+04 
5.701664e-03 6.227686e+04 
6.909730e-03 6.751293e+04 
8.117797e-03 7.108917e+04 
9.325863e-03 7.325022e+04 
1.053393e-02 7.422661e+04 
1.174199e-02 7.422735e+04 
1.295006e-02 7.339214e+04 
1.415813e-02 7.191215e+04 
1.536619e-02 6.994732e+04 
1.657426e-02 6.762698e+04 
1.778233e-02 6.509342e+04 
1.899039e-02 6.242803e+04 
2.019846e-02 5.962334e+04 
2.140652e-02 5.679930e+04 
2.261459e-02 5.404821e+04 
2.382266e-02 5.143018e+04 
2.503072e-02 4.898042e+04 
2.623879e-02 4.671123e+04 
2.744685e-02 4.462824e+04 
2.865492e-02 4.273424e+04 
2.986299e-02 4.102245e+04 
3.100100e-02 3.957157e+04 
3.220400e-02 3.819589e+04 
3.288100e-02 3.749026e+04 
3.424300e-02 3.620322e+04 
3.555100e-02 3.511011e+04 
3.686000e-02 3.413612e+04 
3.795000e-02 3.340481e+04 
3.929100e-02 3.257936e+04 
4.039800e-02 3.194043e+04 
4.164000e-02 3.126571e+04 
4.294400e-02 3.056802e+04 
4.415000e-02 2.993945e+04 
4.542900e-02 2.925699e+04 
4.660900e-02 2.862584e+04 
4.782300e-02 2.793565e+04 
4.892900e-02 2.730069e+04 
5.031200e-02 2.647701e+04 
5.155900e-02 2.570572e+04 
5.238100e-02 2.518833e+04 
5.378200e-02 2.429826e+04 
5.513400e-02 2.343073e+04 
5.627600e-02 2.269759e+04 
5.735300e-02 2.201589e+04 
5.870100e-02 2.118352e+04 
5.988700e-02 2.047785e+04 
6.113500e-02 1.976371e+04 
6.225900e-02 1.915320e+04 
6.340100e-02 1.856548e+04 
6.480200e-02 1.788955e+04 
6.601100e-02 1.735452e+04 
6.725500e-02 1.684706e+04 
6.829100e-02 1.646157e+04 
6.958600e-02 1.601379e+04 
7.071100e-02 1.566322e+04 
7.192300e-02 1.531895e+04 
7.307400e-02 1.501937e+04 
7.412300e-02 1.476804e+04 
7.550400e-02 1.446963e+04 
7.663100e-02 1.424484e+04 
7.791200e-02 1.400832e+04 
7.912700e-02 1.379927e+04 
8.027600e-02 1.361063e+04 
8.138400e-02 1.343463e+04 
8.272200e-02 1.322630e+04 
8.406100e-02 1.301764e+04 
8.534100e-02 1.281574e+04 
8.653800e-02 1.262149e+04 
8.759800e-02 1.244748e+04 
8.900300e-02 1.221175e+04 
9.009000e-02 1.202167e+04 
9.113300e-02 1.183539e+04 
9.239600e-02 1.160805e+04 
9.358000e-02 1.139029e+04 
9.496100e-02 1.113189e+04 
9.608400e-02 1.092235e+04 
9.727500e-02 1.070209e+04 
9.852600e-02 1.047027e+04 
9.973800e-02 1.025266e+04 
1.009000e-01 1.005036e+04 
1.020900e-01 9.849058e+03 
1.034000e-01 9.636202e+03 
1.046000e-01 9.449390e+03 
1.057200e-01 9.285674e+03 
1.069100e-01 9.118831e+03 
1.082500e-01 8.943655e+03 
1.093900e-01 8.803836e+03 
1.105400e-01 8.669313e+03 
1.116900e-01 8.545840e+03 
1.129600e-01 8.415660e+03 
1.142000e-01 8.298498e+03 
1.153300e-01 8.196229e+03 
1.166400e-01 8.083513e+03 
1.177800e-01 7.990774e+03 
1.190000e-01 7.895273e+03 
1.201200e-01 7.809592e+03 
1.213400e-01 7.718446e+03 
1.227100e-01 7.617784e+03 
1.238900e-01 7.532597e+03 
1.250700e-01 7.447007e+03 
1.263200e-01 7.357537e+03 
1.275500e-01 7.269515e+03 
1.287500e-01 7.183696e+03 
1.299900e-01 7.093999e+03 
1.311300e-01 7.012305e+03 
1.323500e-01 6.925184e+03 
1.335900e-01 6.837329e+03 
1.347100e-01 6.757959e+03 
1.359800e-01 6.669293e+03 
1.372100e-01 6.584112e+03 
1.384300e-01 6.500952e+03 
1.395700e-01 6.423629e+03 
1.407700e-01 6.343909e+03 
1.420300e-01 6.261946e+03 
1.432800e-01 6.182401e+03 
1.444500e-01 6.109418e+03 
1.456300e-01 6.037285e+03 
1.468900e-01 5.962905e+03 
1.480500e-01 5.896128e+03 
1.491700e-01 5.833183e+03 
1.503800e-01 5.766880e+03 
1.516400e-01 5.699621e+03 
1.528200e-01 5.639601e+03 
1.540200e-01 5.579724e+03 
1.551900e-01 5.523666e+03 
1.564300e-01 5.465676e+03 
1.576600e-01 5.409719e+03 
1.588700e-01 5.356261e+03 
1.600900e-01 5.303397e+03 
1.612700e-01 5.253837e+03 
1.625400e-01 5.201480e+03 
1.637600e-01 5.152518e+03 
1.649500e-01 5.105848e+03 
1.662200e-01 5.056889e+03 
1.674000e-01 5.011918e+03 
1.685000e-01 4.970691e+03 
1.697500e-01 4.924464e+03 
1.710300e-01 4.877812e+03 
1.722200e-01 4.835202e+03 
1.734400e-01 4.791331e+03 
1.746400e-01 4.748874e+03 
1.758700e-01 4.705894e+03 
1.770900e-01 4.663586e+03 
1.782700e-01 4.623340e+03 
1.794600e-01 4.583075e+03 
1.807000e-01 4.541583e+03 
1.819100e-01 4.501765e+03 
1.830100e-01 4.465928e+03 
1.842200e-01 4.427080e+03 
1.855000e-01 4.386675e+03 
1.867000e-01 4.349737e+03 
1.879200e-01 4.312776e+03 
1.890900e-01 4.277862e+03 
1.902800e-01 4.242800e+03 
1.915200e-01 4.206832e+03 
1.926900e-01 4.173590e+03 
1.939000e-01 4.140297e+03 
1.951700e-01 4.105896e+03 
1.963100e-01 4.075512e+03 
1.975100e-01 4.044072e+03 
1.987800e-01 4.011305e+03 
2.000100e-01 3.980084e+03 
2.012500e-01 3.949147e+03 
2.023400e-01 3.922336e+03 
2.036100e-01 3.891617e+03 
2.048900e-01 3.861421e+03 
2.060400e-01 3.834683e+03 
2.072200e-01 3.807635e+03 
2.084200e-01 3.780624e+03 
2.096900e-01 3.752449e+03 
2.109200e-01 3.725557e+03 
2.121100e-01 3.699793e+03 
2.132700e-01 3.675012e+03 
2.145200e-01 3.648675e+03 
2.157200e-01 3.623715e+03 
2.168800e-01 3.599896e+03 
2.180700e-01 3.575783e+03 
2.193400e-01 3.550388e+03 
2.206000e-01 3.525522e+03 
2.217500e-01 3.503128e+03 
2.229500e-01 3.480062e+03 
2.241400e-01 3.457512e+03 
2.253500e-01 3.434882e+03 
2.264900e-01 3.413832e+03 
2.277100e-01 3.391711e+03 
2.289900e-01 3.368947e+03 
2.301500e-01 3.348584e+03 
2.313600e-01 3.327611e+03 
2.325600e-01 3.307099e+03 
2.337700e-01 3.286678e+03 
2.350000e-01 3.266183e+03 
2.362000e-01 3.246627e+03 
2.374100e-01 3.227376e+03 
2.386500e-01 3.207896e+03 
2.399100e-01 3.188355e+03 
2.410400e-01 3.171158e+03 
2.422500e-01 3.152977e+03 
2.435000e-01 3.134427e+03 
2.447300e-01 3.116433e+03 
2.458700e-01 3.100081e+03 
2.470600e-01 3.083211e+03 
2.483300e-01 3.065425e+03 
2.495600e-01 3.048444e+03 
2.507600e-01 3.032119e+03 
2.519600e-01 3.015985e+03 
2.532200e-01 2.999247e+03 
2.543700e-01 2.984178e+03 
2.555500e-01 2.968909e+03 
2.568000e-01 2.952923e+03 
2.580100e-01 2.937630e+03 
2.592400e-01 2.922187e+03 
2.604100e-01 2.907630e+03 
2.616100e-01 2.892866e+03 
2.628400e-01 2.877905e+03 
2.640600e-01 2.863349e+03 
2.652200e-01 2.849708e+03 
2.664300e-01 2.835635e+03 
2.676500e-01 2.821604e+03 
2.688400e-01 2.807895e+03 
2.700700e-01 2.793771e+03 
2.712400e-01 2.780482e+03 
2.724800e-01 2.766552e+03 
2.736700e-01 2.753274e+03 
2.748800e-01 2.739860e+03 
2.761000e-01 2.726483e+03 
2.773200e-01 2.713250e+03 
2.785400e-01 2.700161e+03 
2.797000e-01 2.687848e+03 
2.808900e-01 2.675347e+03 
2.821400e-01 2.662355e+03 
2.833900e-01 2.649496e+03 
2.845500e-01 2.637486e+03 
2.857800e-01 2.624883e+03 
2.870300e-01 2.612211e+03 
2.882100e-01 2.600373e+03 
2.893900e-01 2.588596e+03 
2.906300e-01 2.576317e+03 
2.918900e-01 2.563971e+03 
2.930500e-01 2.552720e+03 
2.942500e-01 2.541180e+03 
2.954200e-01 2.529988e+03 
2.966500e-01 2.518340e+03 
2.978900e-01 2.506716e+03 
2.990400e-01 2.496042e+03 
3.002700e-01 2.484686e+03 
3.015100e-01 2.473328e+03 
3.026800e-01 2.462715e+03 
3.038500e-01 2.452204e+03 
3.050300e-01 2.441701e+03 
3.062600e-01 2.430792e+03 
3.075000e-01 2.419903e+03 
3.087000e-01 2.409468e+03 
3.099100e-01 2.399046e+03 
3.111200e-01 2.388702e+03 
3.123100e-01 2.378590e+03 
3.135300e-01 2.368320e+03 
3.147300e-01 2.358315e+03 
3.159900e-01 2.347909e+03 
3.171800e-01 2.338262e+03 
3.183700e-01 2.328760e+03 
3.196300e-01 2.318794e+03 
3.208400e-01 2.309314e+03 
3.220300e-01 2.300077e+03 
3.232000e-01 2.290953e+03 
3.244300e-01 2.281399e+03 
3.256700e-01 2.271857e+03 
3.269200e-01 2.262329e+03 
3.280800e-01 2.253567e+03 
3.292500e-01 2.244917e+03 
3.304800e-01 2.235939e+03 
3.317100e-01 2.227044e+03 
3.328900e-01 2.218586e+03 
3.340700e-01 2.210202e+03 
3.353600e-01 2.201135e+03 
3.365300e-01 2.192991e+03 
3.377100e-01 2.184849e+03 
3.389200e-01 2.176572e+03 
3.401600e-01 2.168165e+03 
3.413700e-01 2.160045e+03 
3.425300e-01 2.152334e+03 
3.437700e-01 2.144163e+03 
3.449800e-01 2.136259e+03 
3.461800e-01 2.128488e+03 
3.473600e-01 2.120897e+03 
3.485800e-01 2.113081e+03 
3.498100e-01 2.105268e+03 
3.510200e-01 2.097649e+03 
3.522000e-01 2.090282e+03 
3.533900e-01 2.082913e+03 
3.546400e-01 2.075326e+03 
3.558400e-01 2.068109e+03 
3.570600e-01 2.060834e+03 
3.582700e-01 2.053679e+03 
3.595000e-01 2.046467e+03 
3.607100e-01 2.039438e+03 
3.618900e-01 2.032645e+03 
3.631200e-01 2.025623e+03 
3.643200e-01 2.018828e+03 
3.655500e-01 2.011921e+03 
3.667300e-01 2.005350e+03 
3.679500e-01 1.998605e+03 
3.691900e-01 1.991806e+03 
3.703600e-01 1.985443e+03 
3.715700e-01 1.978915e+03 
3.727700e-01 1.972493e+03 
3.739900e-01 1.966027e+03 
3.752000e-01 1.959685e+03 
3.763900e-01 1.953497e+03 
3.775800e-01 1.947358e+03 
3.788200e-01 1.941012e+03 
3.800300e-01 1.934870e+03 
3.812100e-01 1.928883e+03 
3.824200e-01 1.922762e+03 
3.836100e-01 1.916789e+03 
3.848600e-01 1.910565e+03 
3.860400e-01 1.904735e+03 
3.872400e-01 1.898852e+03 
3.884600e-01 1.892920e+03 
3.896500e-01 1.887178e+03 
3.908700e-01 1.881337e+03 
3.920600e-01 1.875684e+03 
3.933100e-01 1.869791e+03 
3.945300e-01 1.864085e+03 
3.957200e-01 1.858570e+03 
3.969300e-01 1.853006e+03 
3.981700e-01 1.847348e+03 
3.993500e-01 1.842005e+03 
4.094840e-01 1.797322e+03 
4.272360e-01 1.724645e+03 
4.454600e-01 1.655800e+03 
4.630560e-01 1.594678e+03 
4.804610e-01 1.538359e+03 
4.980690e-01 1.485305e+03 
5.159230e-01 1.435149e+03 
5.317440e-01 1.393255e+03 
5.489640e-01 1.350500e+03 
5.671990e-01 1.307816e+03 
5.838690e-01 1.271037e+03 
6.018840e-01 1.233562e+03 
6.202330e-01 1.197518e+03 
6.379250e-01 1.164677e+03 
6.545410e-01 1.135167e+03 
6.714560e-01 1.106531e+03 
6.892080e-01 1.077775e+03 
7.066010e-01 1.050881e+03 
7.240540e-01 1.025068e+03 
7.420450e-01 9.993256e+02 
7.593780e-01 9.756812e+02 
7.764720e-01 9.531450e+02 
7.942840e-01 9.306059e+02 
8.116170e-01 9.093429e+02 
8.288310e-01 8.889552e+02 
8.462240e-01 8.689973e+02 
8.631980e-01 8.502417e+02 
8.810700e-01 8.310452e+02 
8.989410e-01 8.125239e+02 
9.166330e-01 7.947163e+02 
9.345640e-01 7.772144e+02 
9.515980e-01 7.610851e+02 
9.688720e-01 7.451560e+02 
9.865640e-01 7.292808e+02 
1.031870e+00 6.909015e+02 
1.063490e+00 6.656814e+02 
1.097920e+00 6.395765e+02 
1.134370e+00 6.134499e+02 
1.167730e+00 5.908612e+02 
1.203830e+00 5.676533e+02 
1.240470e+00 5.453849e+02 
1.275790e+00 5.249825e+02 
1.309140e+00 5.067158e+02 
1.342970e+00 4.890656e+02 
1.378420e+00 4.714847e+02 
1.413200e+00 4.550711e+02 
1.448110e+00 4.393641e+02 
1.484090e+00 4.239636e+02 
1.518820e+00 4.097845e+02 
1.552880e+00 3.965379e+02 
1.588630e+00 3.832860e+02 
1.623230e+00 3.710445e+02 
1.657720e+00 3.594097e+02 
1.692450e+00 3.481943e+02 
1.726400e+00 3.376931e+02 
1.762200e+00 3.270892e+02 
1.797880e+00 3.169892e+02 
1.833270e+00 3.074256e+02 
1.869070e+00 2.981328e+02 
1.903200e+00 2.896673e+02 
1.937740e+00 2.814329e+02 
1.973190e+00 2.733152e+02 
2.007440e+00 2.657935e+02 
2.042160e+00 2.584849e+02 
2.077900e+00 2.512134e+02 
2.112390e+00 2.444993e+02 
2.146220e+00 2.381542e+02 
2.181600e+00 2.317544e+02 
2.216930e+00 2.256298e+02 
2.250760e+00 2.199656e+02 
2.286500e+00 2.141891e+02 
2.321770e+00 2.087125e+02 
2.355950e+00 2.035889e+02 
2.391280e+00 1.985015e+02 
2.426240e+00 1.936203e+02 
2.460670e+00 1.889765e+02 
2.495640e+00 1.844355e+02 
2.531080e+00 1.799798e+02 
2.566220e+00 1.757076e+02 
2.600830e+00 1.716483e+02 
2.635080e+00 1.677746e+02 
2.670340e+00 1.639043e+02 
2.705970e+00 1.601199e+02 
2.740040e+00 1.566149e+02 
2.774520e+00 1.531712e+02 
2.809730e+00 1.497772e+02 
2.844390e+00 1.465440e+02 
2.879960e+00 1.433230e+02 
2.914860e+00 1.402559e+02 
2.949410e+00 1.373125e+02 
2.984440e+00 1.344258e+02 
3.019760e+00 1.315997e+02 
3.054730e+00 1.288833e+02 
3.089030e+00 1.262908e+02 
3.124060e+00 1.237183e+02 
3.159560e+00 1.211847e+02 
3.194710e+00 1.187550e+02 
3.229010e+00 1.164527e+02 
3.263320e+00 1.142079e+02 
3.297930e+00 1.120090e+02 
3.332830e+00 1.098587e+02 
3.368040e+00 1.077460e+02 
3.403300e+00 1.056861e+02 
3.438450e+00 1.036852e+02 
3.473060e+00 1.017669e+02 
3.508440e+00 9.986467e+01 
3.543110e+00 9.804913e+01 
3.577470e+00 9.629277e+01 
3.613040e+00 9.452320e+01 
3.648120e+00 9.282802e+01 
3.682910e+00 9.118809e+01 
3.718050e+00 8.957081e+01 
3.753320e+00 8.799081e+01 
3.787980e+00 8.648022e+01 
3.822290e+00 8.501979e+01 
3.857020e+00 8.357511e+01 
3.891920e+00 8.215721e+01 
3.926650e+00 8.077805e+01 
3.961970e+00 7.941031e+01 
3.997360e+00 7.807618e+01 
4.031670e+00 7.681382e+01 
4.066330e+00 7.557214e+01 
4.101420e+00 7.434367e+01 
4.136200e+00 7.315169e+01 
4.170810e+00 7.199208e+01 
4.206250e+00 7.083514e+01 
4.241580e+00 6.970838e+01 
4.276300e+00 6.862398e+01 
4.310970e+00 6.756378e+01 
4.346120e+00 6.651394e+01 
4.380600e+00 6.550908e+01 
4.414730e+00 6.453523e+01 
4.450350e+00 6.353903e+01 
4.485320e+00 6.258182e+01 
4.519810e+00 6.165991e+01 
4.555430e+00 6.072875e+01 
4.590870e+00 5.982122e+01 
4.625480e+00 5.895210e+01 
4.659910e+00 5.810488e+01 
4.695230e+00 5.725673e+01 
4.729960e+00 5.644003e+01 
4.764450e+00 5.564606e+01 
4.799530e+00 5.485623e+01 
4.834910e+00 5.407539e+01 
4.869700e+00 5.332536e+01 
4.904370e+00 5.259273e+01 
4.939450e+00 5.186524e+01 
4.973940e+00 5.116255e+01 
5.008430e+00 5.047303e+01 
5.043810e+00 4.977850e+01 
5.078840e+00 4.910351e+01 
5.113500e+00 4.844807e+01 
5.148890e+00 4.779744e+01 
5.184210e+00 4.716041e+01 
5.219060e+00 4.654308e+01 
5.253660e+00 4.594040e+01 
5.288570e+00 4.534323e+01 
5.323420e+00 4.475736e+01 
5.358440e+00 4.417872e+01 
5.393590e+00 4.360825e+01 
5.428310e+00 4.305833e+01 
5.462800e+00 4.252342e+01 
5.497640e+00 4.199237e+01 
5.532670e+00 4.146679e+01 
5.567280e+00 4.095612e+01 
5.602000e+00 4.045251e+01 
5.637270e+00 3.994910e+01 
5.672410e+00 3.945597e+01 
5.707020e+00 3.897842e+01 
5.742040e+00 3.850502e+01 
5.777430e+00 3.803499e+01 
5.812210e+00 3.758071e+01 
5.846820e+00 3.713726e+01 
5.881610e+00 3.669904e+01 
5.916510e+00 3.626655e+01 
5.951600e+00 3.583823e+01 
5.986560e+00 3.541815e+01 
6.021830e+00 3.500114e+01 
6.056490e+00 3.459998e+01 
6.091160e+00 3.420677e+01 
6.125830e+00 3.381967e+01 
6.161090e+00 3.343128e+01 
6.195760e+00 3.305349e+01 
6.230420e+00 3.268162e+01 
6.265690e+00 3.230909e+01 
6.300950e+00 3.194390e+01 
6.335620e+00 3.159029e+01 
6.370880e+00 3.123611e+01 
6.405550e+00 3.089407e+01 
6.440220e+00 3.055750e+01 
6.475480e+00 3.022031e+01 
6.510150e+00 2.989355e+01 
6.544810e+00 2.957133e+01 
6.580080e+00 2.924827e+01 
6.614750e+00 2.893537e+01 
6.649410e+00 2.862821e+01 
6.684080e+00 2.832560e+01 
6.719340e+00 2.802229e+01 
6.754010e+00 2.772817e+01 
6.788680e+00 2.743786e+01 
6.823940e+00 2.714681e+01 
6.859800e+00 2.685508e+01 
6.894470e+00 2.657785e+01 
6.929140e+00 2.630477e+01 
6.963800e+00 2.603554e+01 
6.999070e+00 2.576538e+01 
7.033730e+00 2.550327e+01 
7.068400e+00 2.524467e+01 
7.103660e+00 2.498528e+01 
7.138330e+00 2.473406e+01 
7.173600e+00 2.448266e+01 
7.208260e+00 2.423895e+01 
7.243530e+00 2.399430e+01 
7.277600e+00 2.376099e+01 
7.312860e+00 2.352263e+01 
7.348120e+00 2.328746e+01 
7.382790e+00 2.305930e+01 
7.417460e+00 2.283470e+01 
7.452720e+00 2.260957e+01 
7.487390e+00 2.239110e+01 
7.522650e+00 2.217182e+01 
7.557320e+00 2.195880e+01 
7.591990e+00 2.174845e+01 
7.627250e+00 2.153727e+01 
7.662510e+00 2.132883e+01 
7.697180e+00 2.112632e+01 
7.731850e+00 2.092629e+01 
7.766510e+00 2.072884e+01 
7.801180e+00 2.053381e+01 
7.836440e+00 2.033853e+01 
7.871110e+00 2.014927e+01 
7.906380e+00 1.995914e+01 
7.941040e+00 1.977461e+01 
7.976310e+00 1.958857e+01 
8.011570e+00 1.940417e+01 
8.046240e+00 1.922510e+01 
8.080900e+00 1.904826e+01 
8.115570e+00 1.887389e+01 
8.150830e+00 1.870010e+01 
8.185500e+00 1.853129e+01 
8.220770e+00 1.836163e+01 
8.255430e+00 1.819690e+01 
8.290100e+00 1.803327e+01 
8.324770e+00 1.787147e+01 
8.359430e+00 1.771164e+01 
8.394700e+00 1.755093e+01 
8.429960e+00 1.739247e+01 
8.464630e+00 1.723880e+01 
8.499890e+00 1.708436e+01 
8.534560e+00 1.693427e+01 
8.569200e+00 1.678604e+01 
