# Parameters:
# omega_b = 0.023185, omega_m = 0.120276, n_s = 1.046850, h = 60.433071, w = -1.000000, sigma_8 = 0.835433
# z = 0.100000
#
# k[1/Mpc] # P(k):
8.694000e-04 1.999228e+04 
2.077466e-03 4.505281e+04 
3.285532e-03 6.515813e+04 
4.493598e-03 8.064899e+04 
5.701664e-03 9.202741e+04 
6.909730e-03 9.990451e+04 
8.117797e-03 1.050256e+05 
9.325863e-03 1.077787e+05 
1.053393e-02 1.085594e+05 
1.174199e-02 1.077450e+05 
1.295006e-02 1.055811e+05 
1.415813e-02 1.024046e+05 
1.536619e-02 9.850302e+04 
1.657426e-02 9.389479e+04 
1.778233e-02 8.820619e+04 
1.899039e-02 8.218726e+04 
2.019846e-02 7.711485e+04 
2.140652e-02 7.292480e+04 
2.261459e-02 6.912110e+04 
2.382266e-02 6.557585e+04 
2.503072e-02 6.230389e+04 
2.623879e-02 5.931403e+04 
2.744685e-02 5.661202e+04 
2.865492e-02 5.418766e+04 
2.986299e-02 5.202347e+04 
3.100100e-02 5.021126e+04 
3.220400e-02 4.850785e+04 
3.288100e-02 4.763887e+04 
3.424300e-02 4.605583e+04 
3.555100e-02 4.470627e+04 
3.686000e-02 4.349117e+04 
3.795000e-02 4.256536e+04 
3.929100e-02 4.149462e+04 
4.039800e-02 4.064529e+04 
4.164000e-02 3.972894e+04 
4.294400e-02 3.875696e+04 
4.415000e-02 3.787003e+04 
4.542900e-02 3.689929e+04 
4.660900e-02 3.600166e+04 
4.782300e-02 3.502975e+04 
4.892900e-02 3.414451e+04 
5.031200e-02 3.301480e+04 
5.155900e-02 3.197881e+04 
5.238100e-02 3.129488e+04 
5.378200e-02 3.013707e+04 
5.513400e-02 2.903227e+04 
5.627600e-02 2.811502e+04 
5.735300e-02 2.727348e+04 
5.870100e-02 2.625912e+04 
5.988700e-02 2.540840e+04 
6.113500e-02 2.455493e+04 
6.225900e-02 2.383073e+04 
6.340100e-02 2.313697e+04 
6.480200e-02 2.234156e+04 
6.601100e-02 2.171387e+04 
6.725500e-02 2.111901e+04 
6.829100e-02 2.066720e+04 
6.958600e-02 2.014153e+04 
7.071100e-02 1.972943e+04 
7.192300e-02 1.932390e+04 
7.307400e-02 1.896985e+04 
7.412300e-02 1.867183e+04 
7.550400e-02 1.831623e+04 
7.663100e-02 1.804684e+04 
7.791200e-02 1.776031e+04 
7.912700e-02 1.750362e+04 
8.027600e-02 1.726878e+04 
8.138400e-02 1.704660e+04 
8.272200e-02 1.677895e+04 
8.406100e-02 1.650575e+04 
8.534100e-02 1.623553e+04 
8.653800e-02 1.597132e+04 
8.759800e-02 1.573239e+04 
8.900300e-02 1.540597e+04 
9.009000e-02 1.514170e+04 
9.113300e-02 1.488263e+04 
9.239600e-02 1.456728e+04 
9.358000e-02 1.426726e+04 
9.496100e-02 1.391625e+04 
9.608400e-02 1.363541e+04 
9.727500e-02 1.334339e+04 
9.852600e-02 1.304543e+04 
9.973800e-02 1.277025e+04 
1.009000e-01 1.251812e+04 
1.020900e-01 1.227651e+04 
1.034000e-01 1.202495e+04 
1.046000e-01 1.180827e+04 
1.057200e-01 1.162414e+04 
1.069100e-01 1.143817e+04 
1.082500e-01 1.124725e+04 
1.093900e-01 1.109630e+04 
1.105400e-01 1.095194e+04 
1.116900e-01 1.081987e+04 
1.129600e-01 1.068037e+04 
1.142000e-01 1.055328e+04 
1.153300e-01 1.044085e+04 
1.166400e-01 1.031456e+04 
1.177800e-01 1.020753e+04 
1.190000e-01 1.009582e+04 
1.201200e-01 9.990949e+03 
1.213400e-01 9.878559e+03 
1.227100e-01 9.748282e+03 
1.238900e-01 9.636979e+03 
1.250700e-01 9.521880e+03 
1.263200e-01 9.400721e+03 
1.275500e-01 9.279667e+03 
1.287500e-01 9.161390e+03 
1.299900e-01 9.037385e+03 
1.311300e-01 8.924873e+03 
1.323500e-01 8.805521e+03 
1.335900e-01 8.686298e+03 
1.347100e-01 8.580048e+03 
1.359800e-01 8.462586e+03 
1.372100e-01 8.352169e+03 
1.384300e-01 8.245498e+03 
1.395700e-01 8.148974e+03 
1.407700e-01 8.049798e+03 
1.420300e-01 7.951363e+03 
1.432800e-01 7.855815e+03 
1.444500e-01 7.771043e+03 
1.456300e-01 7.687239e+03 
1.468900e-01 7.602236e+03 
1.480500e-01 7.526335e+03 
1.491700e-01 7.455025e+03 
1.503800e-01 7.380215e+03 
1.516400e-01 7.304237e+03 
1.528200e-01 7.236106e+03 
1.540200e-01 7.168130e+03 
1.551900e-01 7.103458e+03 
1.564300e-01 7.036297e+03 
1.576600e-01 6.970691e+03 
1.588700e-01 6.907045e+03 
1.600900e-01 6.844010e+03 
1.612700e-01 6.783129e+03 
1.625400e-01 6.718812e+03 
1.637600e-01 6.657692e+03 
1.649500e-01 6.598858e+03 
1.662200e-01 6.536972e+03 
1.674000e-01 6.479203e+03 
1.685000e-01 6.426242e+03 
1.697500e-01 6.366598e+03 
1.710300e-01 6.306147e+03 
1.722200e-01 6.250934e+03 
1.734400e-01 6.194091e+03 
1.746400e-01 6.139079e+03 
1.758700e-01 6.083533e+03 
1.770900e-01 6.029140e+03 
1.782700e-01 5.977399e+03 
1.794600e-01 5.926031e+03 
1.807000e-01 5.873365e+03 
1.819100e-01 5.822821e+03 
1.830100e-01 5.777932e+03 
1.842200e-01 5.729373e+03 
1.855000e-01 5.678898e+03 
1.867000e-01 5.633482e+03 
1.879200e-01 5.588036e+03 
1.890900e-01 5.545201e+03 
1.902800e-01 5.502684e+03 
1.915200e-01 5.459068e+03 
1.926900e-01 5.418866e+03 
1.939000e-01 5.378964e+03 
1.951700e-01 5.337735e+03 
1.963100e-01 5.301374e+03 
1.975100e-01 5.263902e+03 
1.987800e-01 5.224847e+03 
2.000100e-01 5.187638e+03 
2.012500e-01 5.150778e+03 
2.023400e-01 5.118833e+03 
2.036100e-01 5.082199e+03 
2.048900e-01 5.046059e+03 
2.060400e-01 5.014059e+03 
2.072200e-01 4.981665e+03 
2.084200e-01 4.949028e+03 
2.096900e-01 4.914986e+03 
2.109200e-01 4.882495e+03 
2.121100e-01 4.850959e+03 
2.132700e-01 4.820605e+03 
2.145200e-01 4.788346e+03 
2.157200e-01 4.757473e+03 
2.168800e-01 4.727872e+03 
2.180700e-01 4.697906e+03 
2.193400e-01 4.666187e+03 
2.206000e-01 4.634830e+03 
2.217500e-01 4.606591e+03 
2.229500e-01 4.577504e+03 
2.241400e-01 4.548704e+03 
2.253500e-01 4.519792e+03 
2.264900e-01 4.492899e+03 
2.277100e-01 4.464513e+03 
2.289900e-01 4.435163e+03 
2.301500e-01 4.408909e+03 
2.313600e-01 4.381867e+03 
2.325600e-01 4.355301e+03 
2.337700e-01 4.328852e+03 
2.350000e-01 4.302308e+03 
2.362000e-01 4.277007e+03 
2.374100e-01 4.252132e+03 
2.386500e-01 4.226961e+03 
2.399100e-01 4.201711e+03 
2.410400e-01 4.179645e+03 
2.422500e-01 4.156336e+03 
2.435000e-01 4.132555e+03 
2.447300e-01 4.109538e+03 
2.458700e-01 4.088828e+03 
2.470600e-01 4.067461e+03 
2.483300e-01 4.044936e+03 
2.495600e-01 4.023550e+03 
2.507600e-01 4.003156e+03 
2.519600e-01 3.983003e+03 
2.532200e-01 3.962095e+03 
2.543700e-01 3.943403e+03 
2.555500e-01 3.924552e+03 
2.568000e-01 3.904817e+03 
2.580100e-01 3.885940e+03 
2.592400e-01 3.866968e+03 
2.604100e-01 3.849126e+03 
2.616100e-01 3.831033e+03 
2.628400e-01 3.812700e+03 
2.640600e-01 3.794915e+03 
2.652200e-01 3.778267e+03 
2.664300e-01 3.761095e+03 
2.676500e-01 3.743978e+03 
2.688400e-01 3.727228e+03 
2.700700e-01 3.709959e+03 
2.712400e-01 3.693713e+03 
2.724800e-01 3.676685e+03 
2.736700e-01 3.660429e+03 
2.748800e-01 3.643980e+03 
2.761000e-01 3.627577e+03 
2.773200e-01 3.611354e+03 
2.785400e-01 3.595292e+03 
2.797000e-01 3.580148e+03 
2.808900e-01 3.564775e+03 
2.821400e-01 3.548801e+03 
2.833900e-01 3.532989e+03 
2.845500e-01 3.518154e+03 
2.857800e-01 3.502587e+03 
2.870300e-01 3.486937e+03 
2.882100e-01 3.472318e+03 
2.893900e-01 3.457748e+03 
2.906300e-01 3.442541e+03 
2.918900e-01 3.427254e+03 
2.930500e-01 3.413325e+03 
2.942500e-01 3.399030e+03 
2.954200e-01 3.385140e+03 
2.966500e-01 3.370684e+03 
2.978900e-01 3.356261e+03 
2.990400e-01 3.343017e+03 
3.002700e-01 3.328912e+03 
3.015100e-01 3.314800e+03 
3.026800e-01 3.301615e+03 
3.038500e-01 3.288557e+03 
3.050300e-01 3.275511e+03 
3.062600e-01 3.261913e+03 
3.075000e-01 3.248341e+03 
3.087000e-01 3.235336e+03 
3.099100e-01 3.222350e+03 
3.111200e-01 3.209459e+03 
3.123100e-01 3.196853e+03 
3.135300e-01 3.184052e+03 
3.147300e-01 3.171581e+03 
3.159900e-01 3.158613e+03 
3.171800e-01 3.146601e+03 
3.183700e-01 3.134777e+03 
3.196300e-01 3.122378e+03 
3.208400e-01 3.110585e+03 
3.220300e-01 3.099094e+03 
3.232000e-01 3.087697e+03 
3.244300e-01 3.075746e+03 
3.256700e-01 3.063812e+03 
3.269200e-01 3.051895e+03 
3.280800e-01 3.040938e+03 
3.292500e-01 3.030133e+03 
3.304800e-01 3.018925e+03 
3.317100e-01 3.007820e+03 
3.328900e-01 2.997263e+03 
3.340700e-01 2.986800e+03 
3.353600e-01 2.975465e+03 
3.365300e-01 2.965278e+03 
3.377100e-01 2.955094e+03 
3.389200e-01 2.944742e+03 
3.401600e-01 2.934230e+03 
3.413700e-01 2.924062e+03 
3.425300e-01 2.914396e+03 
3.437700e-01 2.904153e+03 
3.449800e-01 2.894248e+03 
3.461800e-01 2.884511e+03 
3.473600e-01 2.874995e+03 
3.485800e-01 2.865186e+03 
3.498100e-01 2.855383e+03 
3.510200e-01 2.845824e+03 
3.522000e-01 2.836582e+03 
3.533900e-01 2.827339e+03 
3.546400e-01 2.817788e+03 
3.558400e-01 2.808702e+03 
3.570600e-01 2.799543e+03 
3.582700e-01 2.790538e+03 
3.595000e-01 2.781462e+03 
3.607100e-01 2.772605e+03 
3.618900e-01 2.764035e+03 
3.631200e-01 2.755178e+03 
3.643200e-01 2.746609e+03 
3.655500e-01 2.737900e+03 
3.667300e-01 2.729615e+03 
3.679500e-01 2.721068e+03 
3.691900e-01 2.712455e+03 
3.703600e-01 2.704395e+03 
3.715700e-01 2.696127e+03 
3.727700e-01 2.687995e+03 
3.739900e-01 2.679806e+03 
3.752000e-01 2.671770e+03 
3.763900e-01 2.663932e+03 
3.775800e-01 2.656156e+03 
3.788200e-01 2.648120e+03 
3.800300e-01 2.640342e+03 
3.812100e-01 2.632733e+03 
3.824200e-01 2.624937e+03 
3.836100e-01 2.617329e+03 
3.848600e-01 2.609403e+03 
3.860400e-01 2.601980e+03 
3.872400e-01 2.594491e+03 
3.884600e-01 2.586914e+03 
3.896500e-01 2.579574e+03 
3.908700e-01 2.572107e+03 
3.920600e-01 2.564881e+03 
3.933100e-01 2.557350e+03 
3.945300e-01 2.550059e+03 
3.957200e-01 2.543004e+03 
3.969300e-01 2.535887e+03 
3.981700e-01 2.528650e+03 
3.993500e-01 2.521816e+03 
4.094840e-01 2.464465e+03 
4.272360e-01 2.370638e+03 
4.454600e-01 2.281185e+03 
4.630560e-01 2.201439e+03 
4.804610e-01 2.127536e+03 
4.980690e-01 2.057655e+03 
5.159230e-01 1.991268e+03 
5.317440e-01 1.935604e+03 
5.489640e-01 1.878512e+03 
5.671990e-01 1.821147e+03 
5.838690e-01 1.771452e+03 
6.018840e-01 1.720556e+03 
6.202330e-01 1.671235e+03 
6.379250e-01 1.626091e+03 
6.545410e-01 1.585209e+03 
6.714560e-01 1.545360e+03 
6.892080e-01 1.505074e+03 
7.066010e-01 1.467223e+03 
7.240540e-01 1.430729e+03 
7.420450e-01 1.394122e+03 
7.593780e-01 1.360366e+03 
7.764720e-01 1.328087e+03 
7.942840e-01 1.295679e+03 
8.116170e-01 1.265039e+03 
8.288310e-01 1.235562e+03 
8.462240e-01 1.206660e+03 
8.631980e-01 1.179439e+03 
8.810700e-01 1.151546e+03 
8.989410e-01 1.124614e+03 
9.166330e-01 1.098695e+03 
9.345640e-01 1.073201e+03 
9.515980e-01 1.049712e+03 
9.688720e-01 1.026506e+03 
9.865640e-01 1.003394e+03 
1.031870e+00 9.475365e+02 
1.063490e+00 9.109001e+02 
1.097920e+00 8.730332e+02 
1.134370e+00 8.352358e+02 
1.167730e+00 8.026321e+02 
1.203830e+00 7.692322e+02 
1.240470e+00 7.372630e+02 
1.275790e+00 7.080657e+02 
1.309140e+00 6.819999e+02 
1.342970e+00 6.568843e+02 
1.378420e+00 6.319323e+02 
1.413200e+00 6.087165e+02 
1.448110e+00 5.865570e+02 
1.484090e+00 5.648955e+02 
1.518820e+00 5.450047e+02 
1.552880e+00 5.264785e+02 
1.588630e+00 5.079864e+02 
1.623230e+00 4.909507e+02 
1.657720e+00 4.747958e+02 
1.692450e+00 4.592560e+02 
1.726400e+00 4.447503e+02 
1.762200e+00 4.301326e+02 
1.797880e+00 4.162462e+02 
1.833270e+00 4.031216e+02 
1.869070e+00 3.904024e+02 
1.903200e+00 3.788365e+02 
1.937740e+00 3.676086e+02 
1.973190e+00 3.565622e+02 
2.007440e+00 3.463457e+02 
2.042160e+00 3.364370e+02 
2.077900e+00 3.265986e+02 
2.112390e+00 3.175275e+02 
2.146220e+00 3.089726e+02 
2.181600e+00 3.003584e+02 
2.216930e+00 2.921270e+02 
2.250760e+00 2.845269e+02 
2.286500e+00 2.767885e+02 
2.321770e+00 2.694622e+02 
2.355950e+00 2.626185e+02 
2.391280e+00 2.558333e+02 
2.426240e+00 2.493332e+02 
2.460670e+00 2.431572e+02 
2.495640e+00 2.371249e+02 
2.531080e+00 2.312158e+02 
2.566220e+00 2.255575e+02 
2.600830e+00 2.201868e+02 
2.635080e+00 2.150669e+02 
2.670340e+00 2.099596e+02 
2.705970e+00 2.049713e+02 
2.740040e+00 2.003558e+02 
2.774520e+00 1.958270e+02 
2.809730e+00 1.913683e+02 
2.844390e+00 1.871246e+02 
2.879960e+00 1.829020e+02 
2.914860e+00 1.788856e+02 
2.949410e+00 1.750342e+02 
2.984440e+00 1.712609e+02 
3.019760e+00 1.675704e+02 
3.054730e+00 1.640259e+02 
3.089030e+00 1.606477e+02 
3.124060e+00 1.572978e+02 
3.159560e+00 1.540015e+02 
3.194710e+00 1.508432e+02 
3.229010e+00 1.478520e+02 
3.263320e+00 1.449390e+02 
3.297930e+00 1.420871e+02 
3.332830e+00 1.393005e+02 
3.368040e+00 1.365647e+02 
3.403300e+00 1.338990e+02 
3.438450e+00 1.313121e+02 
3.473060e+00 1.288330e+02 
3.508440e+00 1.263772e+02 
3.543110e+00 1.240342e+02 
3.577470e+00 1.217696e+02 
3.613040e+00 1.194889e+02 
3.648120e+00 1.173058e+02 
3.682910e+00 1.151948e+02 
3.718050e+00 1.131144e+02 
3.753320e+00 1.110829e+02 
3.787980e+00 1.091419e+02 
3.822290e+00 1.072663e+02 
3.857020e+00 1.054120e+02 
3.891920e+00 1.035928e+02 
3.926650e+00 1.018244e+02 
3.961970e+00 1.000712e+02 
3.997360e+00 9.836229e+01 
4.031670e+00 9.674572e+01 
4.066330e+00 9.515664e+01 
4.101420e+00 9.358476e+01 
4.136200e+00 9.206074e+01 
4.170810e+00 9.057835e+01 
4.206250e+00 8.910017e+01 
4.241580e+00 8.766089e+01 
4.276300e+00 8.627641e+01 
4.310970e+00 8.492332e+01 
4.346120e+00 8.358386e+01 
4.380600e+00 8.230233e+01 
4.414730e+00 8.106055e+01 
4.450350e+00 7.979103e+01 
4.485320e+00 7.857137e+01 
4.519810e+00 7.739717e+01 
4.555430e+00 7.621149e+01 
4.590870e+00 7.505618e+01 
4.625480e+00 7.395022e+01 
4.659910e+00 7.287225e+01 
4.695230e+00 7.179357e+01 
4.729960e+00 7.075506e+01 
4.764450e+00 6.974570e+01 
4.799530e+00 6.874195e+01 
4.834910e+00 6.774974e+01 
4.869700e+00 6.679702e+01 
4.904370e+00 6.586655e+01 
4.939450e+00 6.494277e+01 
4.973940e+00 6.405073e+01 
5.008430e+00 6.317550e+01 
5.043810e+00 6.229419e+01 
5.078840e+00 6.143789e+01 
5.113500e+00 6.060647e+01 
5.148890e+00 5.978126e+01 
5.184210e+00 5.897339e+01 
5.219060e+00 5.819064e+01 
5.253660e+00 5.742672e+01 
5.288570e+00 5.666985e+01 
5.323420e+00 5.592746e+01 
5.358440e+00 5.519434e+01 
5.393590e+00 5.447167e+01 
5.428310e+00 5.377512e+01 
5.462800e+00 5.309766e+01 
5.497640e+00 5.242517e+01 
5.532670e+00 5.175973e+01 
5.567280e+00 5.111325e+01 
5.602000e+00 5.047577e+01 
5.637270e+00 4.983869e+01 
5.672410e+00 4.921469e+01 
5.707020e+00 4.861047e+01 
5.742040e+00 4.801155e+01 
5.777430e+00 4.741694e+01 
5.812210e+00 4.684232e+01 
5.846820e+00 4.628147e+01 
5.881610e+00 4.572729e+01 
5.916510e+00 4.518042e+01 
5.951600e+00 4.463890e+01 
5.986560e+00 4.410786e+01 
6.021830e+00 4.358077e+01 
6.056490e+00 4.307371e+01 
6.091160e+00 4.257671e+01 
6.125830e+00 4.208748e+01 
6.161090e+00 4.159668e+01 
6.195760e+00 4.111935e+01 
6.230420e+00 4.064954e+01 
6.265690e+00 4.017896e+01 
6.300950e+00 3.971765e+01 
6.335620e+00 3.927102e+01 
6.370880e+00 3.882373e+01 
6.405550e+00 3.839176e+01 
6.440220e+00 3.796673e+01 
6.475480e+00 3.754097e+01 
6.510150e+00 3.712841e+01 
6.544810e+00 3.672163e+01 
6.580080e+00 3.631384e+01 
6.614750e+00 3.591891e+01 
6.649410e+00 3.553122e+01 
6.684080e+00 3.514932e+01 
6.719340e+00 3.476656e+01 
6.754010e+00 3.439545e+01 
6.788680e+00 3.402917e+01 
6.823940e+00 3.366201e+01 
6.859800e+00 3.329403e+01 
6.894470e+00 3.294433e+01 
6.929140e+00 3.259988e+01 
6.963800e+00 3.226035e+01 
6.999070e+00 3.191966e+01 
7.033730e+00 3.158913e+01 
7.068400e+00 3.126306e+01 
7.103660e+00 3.093604e+01 
7.138330e+00 3.061934e+01 
7.173600e+00 3.030244e+01 
7.208260e+00 2.999526e+01 
7.243530e+00 2.968694e+01 
7.277600e+00 2.939292e+01 
7.312860e+00 2.909254e+01 
7.348120e+00 2.879623e+01 
7.382790e+00 2.850878e+01 
7.417460e+00 2.822581e+01 
7.452720e+00 2.794219e+01 
7.487390e+00 2.766701e+01 
7.522650e+00 2.739082e+01 
7.557320e+00 2.712256e+01 
7.591990e+00 2.685767e+01 
7.627250e+00 2.659177e+01 
7.662510e+00 2.632936e+01 
7.697180e+00 2.607443e+01 
7.731850e+00 2.582265e+01 
7.766510e+00 2.557416e+01 
7.801180e+00 2.532874e+01 
7.836440e+00 2.508300e+01 
7.871110e+00 2.484486e+01 
7.906380e+00 2.460565e+01 
7.941040e+00 2.437353e+01 
7.976310e+00 2.413953e+01 
8.011570e+00 2.390764e+01 
8.046240e+00 2.368247e+01 
8.080900e+00 2.346013e+01 
8.115570e+00 2.324092e+01 
8.150830e+00 2.302242e+01 
8.185500e+00 2.281021e+01 
8.220770e+00 2.259696e+01 
8.255430e+00 2.238994e+01 
8.290100e+00 2.218432e+01 
8.324770e+00 2.198105e+01 
8.359430e+00 2.178026e+01 
8.394700e+00 2.157839e+01 
8.429960e+00 2.137938e+01 
8.464630e+00 2.118639e+01 
8.499890e+00 2.099245e+01 
8.534560e+00 2.080400e+01 
8.569200e+00 2.061792e+01 
