# Parameters:
# omega_b = 0.023358, omega_m = 0.133228, n_s = 0.886220, h = 74.133858, w = -1.000000, sigma_8 = 0.706299
# z = 0.100000
#
# k[1/Mpc] # P(k):
8.694000e-04 1.734442e+04 
2.077466e-03 3.437365e+04 
3.285532e-03 4.664679e+04 
4.493598e-03 5.543226e+04 
5.701664e-03 6.144428e+04 
6.909730e-03 6.527382e+04 
8.117797e-03 6.748531e+04 
9.325863e-03 6.836802e+04 
1.053393e-02 6.818266e+04 
1.174199e-02 6.715781e+04 
1.295006e-02 6.544236e+04 
1.415813e-02 6.322695e+04 
1.536619e-02 6.066731e+04 
1.657426e-02 5.787806e+04 
1.778233e-02 5.497019e+04 
1.899039e-02 5.204533e+04 
2.019846e-02 4.913384e+04 
2.140652e-02 4.631648e+04 
2.261459e-02 4.364676e+04 
2.382266e-02 4.116211e+04 
2.503072e-02 3.888219e+04 
2.623879e-02 3.680863e+04 
2.744685e-02 3.494080e+04 
2.865492e-02 3.326969e+04 
2.986299e-02 3.178181e+04 
3.100100e-02 3.053963e+04 
3.220400e-02 2.937744e+04 
3.288100e-02 2.878814e+04 
3.424300e-02 2.772302e+04 
3.555100e-02 2.682751e+04 
3.686000e-02 2.603591e+04 
3.795000e-02 2.544380e+04 
3.929100e-02 2.477601e+04 
4.039800e-02 2.425743e+04 
4.164000e-02 2.370647e+04 
4.294400e-02 2.313039e+04 
4.415000e-02 2.260640e+04 
4.542900e-02 2.203069e+04 
4.660900e-02 2.149415e+04 
4.782300e-02 2.090327e+04 
4.892900e-02 2.035728e+04 
5.031200e-02 1.964829e+04 
5.155900e-02 1.898521e+04 
5.238100e-02 1.854160e+04 
5.378200e-02 1.778143e+04 
5.513400e-02 1.704601e+04 
5.627600e-02 1.643004e+04 
5.735300e-02 1.586218e+04 
5.870100e-02 1.517607e+04 
5.988700e-02 1.460123e+04 
6.113500e-02 1.402700e+04 
6.225900e-02 1.354278e+04 
6.340100e-02 1.308332e+04 
6.480200e-02 1.256266e+04 
6.601100e-02 1.215838e+04 
6.725500e-02 1.178165e+04 
6.829100e-02 1.150103e+04 
6.958600e-02 1.117989e+04 
7.071100e-02 1.093318e+04 
7.192300e-02 1.069461e+04 
7.307400e-02 1.048985e+04 
7.412300e-02 1.031980e+04 
7.550400e-02 1.011957e+04 
7.663100e-02 9.968990e+03 
7.791200e-02 9.809474e+03 
7.912700e-02 9.666031e+03 
8.027600e-02 9.533918e+03 
8.138400e-02 9.407987e+03 
8.272200e-02 9.254886e+03 
8.406100e-02 9.097321e+03 
8.534100e-02 8.940247e+03 
8.653800e-02 8.786168e+03 
8.759800e-02 8.646674e+03 
8.900300e-02 8.456017e+03 
9.009000e-02 8.301790e+03 
9.113300e-02 8.150511e+03 
9.239600e-02 7.966247e+03 
9.358000e-02 7.790679e+03 
9.496100e-02 7.584126e+03 
9.608400e-02 7.418006e+03 
9.727500e-02 7.244587e+03 
9.852600e-02 7.064850e+03 
9.973800e-02 6.897489e+03 
1.009000e-01 6.743016e+03 
1.020900e-01 6.592191e+03 
1.034000e-01 6.434106e+03 
1.046000e-01 6.296774e+03 
1.057200e-01 6.178622e+03 
1.069100e-01 6.059049e+03 
1.082500e-01 5.935703e+03 
1.093900e-01 5.838565e+03 
1.105400e-01 5.745891e+03 
1.116900e-01 5.662318e+03 
1.129600e-01 5.574664e+03 
1.142000e-01 5.496761e+03 
1.153300e-01 5.428915e+03 
1.166400e-01 5.354382e+03 
1.177800e-01 5.292782e+03 
1.190000e-01 5.229213e+03 
1.201200e-01 5.171224e+03 
1.213400e-01 5.109363e+03 
1.227100e-01 5.039088e+03 
1.238900e-01 4.979173e+03 
1.250700e-01 4.917541e+03 
1.263200e-01 4.852566e+03 
1.275500e-01 4.787433e+03 
1.287500e-01 4.723477e+03 
1.299900e-01 4.655938e+03 
1.311300e-01 4.594142e+03 
1.323500e-01 4.527819e+03 
1.335900e-01 4.460932e+03 
1.347100e-01 4.400486e+03 
1.359800e-01 4.333102e+03 
1.372100e-01 4.268607e+03 
1.384300e-01 4.205892e+03 
1.395700e-01 4.148101e+03 
1.407700e-01 4.088636e+03 
1.420300e-01 4.028286e+03 
1.432800e-01 3.969759e+03 
1.444500e-01 3.916959e+03 
1.456300e-01 3.864804e+03 
1.468900e-01 3.811641e+03 
1.480500e-01 3.764112e+03 
1.491700e-01 3.719608e+03 
1.503800e-01 3.673103e+03 
1.516400e-01 3.626026e+03 
1.528200e-01 3.584388e+03 
1.540200e-01 3.542860e+03 
1.551900e-01 3.504210e+03 
1.564300e-01 3.464291e+03 
1.576600e-01 3.425833e+03 
1.588700e-01 3.389168e+03 
1.600900e-01 3.352913e+03 
1.612700e-01 3.318889e+03 
1.625400e-01 3.282949e+03 
1.637600e-01 3.249247e+03 
1.649500e-01 3.217067e+03 
1.662200e-01 3.183277e+03 
1.674000e-01 3.152035e+03 
1.685000e-01 3.123397e+03 
1.697500e-01 3.091163e+03 
1.710300e-01 3.058513e+03 
1.722200e-01 3.028697e+03 
1.734400e-01 2.997782e+03 
1.746400e-01 2.967861e+03 
1.758700e-01 2.937528e+03 
1.770900e-01 2.907571e+03 
1.782700e-01 2.879081e+03 
1.794600e-01 2.850524e+03 
1.807000e-01 2.821066e+03 
1.819100e-01 2.792803e+03 
1.830100e-01 2.767372e+03 
1.842200e-01 2.739812e+03 
1.855000e-01 2.711158e+03 
1.867000e-01 2.684987e+03 
1.879200e-01 2.658808e+03 
1.890900e-01 2.634105e+03 
1.902800e-01 2.609406e+03 
1.915200e-01 2.584076e+03 
1.926900e-01 2.560692e+03 
1.939000e-01 2.537344e+03 
1.951700e-01 2.513224e+03 
1.963100e-01 2.491963e+03 
1.975100e-01 2.470070e+03 
1.987800e-01 2.447257e+03 
2.000100e-01 2.425561e+03 
2.012500e-01 2.404151e+03 
2.023400e-01 2.385599e+03 
2.036100e-01 2.364362e+03 
2.048900e-01 2.343552e+03 
2.060400e-01 2.325127e+03 
2.072200e-01 2.306495e+03 
2.084200e-01 2.287943e+03 
2.096900e-01 2.268594e+03 
2.109200e-01 2.250128e+03 
2.121100e-01 2.232492e+03 
2.132700e-01 2.215534e+03 
2.145200e-01 2.197513e+03 
2.157200e-01 2.180451e+03 
2.168800e-01 2.164176e+03 
2.180700e-01 2.147702e+03 
2.193400e-01 2.130363e+03 
2.206000e-01 2.113404e+03 
2.217500e-01 2.098133e+03 
2.229500e-01 2.082405e+03 
2.241400e-01 2.067038e+03 
2.253500e-01 2.051619e+03 
2.264900e-01 2.037277e+03 
2.277100e-01 2.022211e+03 
2.289900e-01 2.006710e+03 
2.301500e-01 1.992846e+03 
2.313600e-01 1.978568e+03 
2.325600e-01 1.964622e+03 
2.337700e-01 1.950738e+03 
2.350000e-01 1.936806e+03 
2.362000e-01 1.923509e+03 
2.374100e-01 1.910416e+03 
2.386500e-01 1.897167e+03 
2.399100e-01 1.883877e+03 
2.410400e-01 1.872195e+03 
2.422500e-01 1.859845e+03 
2.435000e-01 1.847245e+03 
2.447300e-01 1.835024e+03 
2.458700e-01 1.823924e+03 
2.470600e-01 1.812472e+03 
2.483300e-01 1.800398e+03 
2.495600e-01 1.788876e+03 
2.507600e-01 1.777805e+03 
2.519600e-01 1.766863e+03 
2.532200e-01 1.755511e+03 
2.543700e-01 1.745297e+03 
2.555500e-01 1.734953e+03 
2.568000e-01 1.724122e+03 
2.580100e-01 1.713760e+03 
2.592400e-01 1.703310e+03 
2.604100e-01 1.693466e+03 
2.616100e-01 1.683482e+03 
2.628400e-01 1.673364e+03 
2.640600e-01 1.663514e+03 
2.652200e-01 1.654280e+03 
2.664300e-01 1.644753e+03 
2.676500e-01 1.635254e+03 
2.688400e-01 1.625992e+03 
2.700700e-01 1.616463e+03 
2.712400e-01 1.607496e+03 
2.724800e-01 1.598097e+03 
2.736700e-01 1.589144e+03 
2.748800e-01 1.580107e+03 
2.761000e-01 1.571093e+03 
2.773200e-01 1.562177e+03 
2.785400e-01 1.553359e+03 
2.797000e-01 1.545066e+03 
2.808900e-01 1.536646e+03 
2.821400e-01 1.527895e+03 
2.833900e-01 1.519234e+03 
2.845500e-01 1.511168e+03 
2.857800e-01 1.502703e+03 
2.870300e-01 1.494191e+03 
2.882100e-01 1.486239e+03 
2.893900e-01 1.478336e+03 
2.906300e-01 1.470101e+03 
2.918900e-01 1.461820e+03 
2.930500e-01 1.454274e+03 
2.942500e-01 1.446538e+03 
2.954200e-01 1.439049e+03 
2.966500e-01 1.431255e+03 
2.978900e-01 1.423477e+03 
2.990400e-01 1.416334e+03 
3.002700e-01 1.408744e+03 
3.015100e-01 1.401157e+03 
3.026800e-01 1.394069e+03 
3.038500e-01 1.387047e+03 
3.050300e-01 1.380032e+03 
3.062600e-01 1.372780e+03 
3.075000e-01 1.365542e+03 
3.087000e-01 1.358606e+03 
3.099100e-01 1.351678e+03 
3.111200e-01 1.344808e+03 
3.123100e-01 1.338101e+03 
3.135300e-01 1.331290e+03 
3.147300e-01 1.324653e+03 
3.159900e-01 1.317751e+03 
3.171800e-01 1.311349e+03 
3.183700e-01 1.305040e+03 
3.196300e-01 1.298423e+03 
3.208400e-01 1.292128e+03 
3.220300e-01 1.285994e+03 
3.232000e-01 1.279978e+03 
3.244300e-01 1.273695e+03 
3.256700e-01 1.267421e+03 
3.269200e-01 1.261154e+03 
3.280800e-01 1.255391e+03 
3.292500e-01 1.249697e+03 
3.304800e-01 1.243786e+03 
3.317100e-01 1.237928e+03 
3.328900e-01 1.232358e+03 
3.340700e-01 1.226836e+03 
3.353600e-01 1.220886e+03 
3.365300e-01 1.215550e+03 
3.377100e-01 1.210214e+03 
3.389200e-01 1.204790e+03 
3.401600e-01 1.199280e+03 
3.413700e-01 1.193974e+03 
3.425300e-01 1.188946e+03 
3.437700e-01 1.183617e+03 
3.449800e-01 1.178462e+03 
3.461800e-01 1.173394e+03 
3.473600e-01 1.168449e+03 
3.485800e-01 1.163372e+03 
3.498100e-01 1.158297e+03 
3.510200e-01 1.153348e+03 
3.522000e-01 1.148561e+03 
3.533900e-01 1.143773e+03 
3.546400e-01 1.138869e+03 
3.558400e-01 1.134206e+03 
3.570600e-01 1.129504e+03 
3.582700e-01 1.124880e+03 
3.595000e-01 1.120218e+03 
3.607100e-01 1.115687e+03 
3.618900e-01 1.111316e+03 
3.631200e-01 1.106798e+03 
3.643200e-01 1.102425e+03 
3.655500e-01 1.097980e+03 
3.667300e-01 1.093750e+03 
3.679500e-01 1.089442e+03 
3.691900e-01 1.085099e+03 
3.703600e-01 1.081034e+03 
3.715700e-01 1.076863e+03 
3.727700e-01 1.072759e+03 
3.739900e-01 1.068629e+03 
3.752000e-01 1.064582e+03 
3.763900e-01 1.060633e+03 
3.775800e-01 1.056715e+03 
3.788200e-01 1.052664e+03 
3.800300e-01 1.048743e+03 
3.812100e-01 1.044942e+03 
3.824200e-01 1.041070e+03 
3.836100e-01 1.037291e+03 
3.848600e-01 1.033352e+03 
3.860400e-01 1.029663e+03 
3.872400e-01 1.025939e+03 
3.884600e-01 1.022202e+03 
3.896500e-01 1.018592e+03 
3.908700e-01 1.014918e+03 
3.920600e-01 1.011362e+03 
3.933100e-01 1.007655e+03 
3.945300e-01 1.004065e+03 
3.957200e-01 1.000602e+03 
3.969300e-01 9.971101e+02 
3.981700e-01 9.935589e+02 
3.993500e-01 9.902047e+02 
4.094840e-01 9.623059e+02 
4.272360e-01 9.173667e+02 
4.454600e-01 8.752765e+02 
4.630560e-01 8.382002e+02 
4.804610e-01 8.043898e+02 
4.980690e-01 7.727782e+02 
5.159230e-01 7.431593e+02 
5.317440e-01 7.186122e+02 
5.489640e-01 6.937855e+02 
5.671990e-01 6.692874e+02 
5.838690e-01 6.483938e+02 
6.018840e-01 6.273099e+02 
6.202330e-01 6.073155e+02 
6.379250e-01 5.892623e+02 
6.545410e-01 5.732905e+02 
6.714560e-01 5.579337e+02 
6.892080e-01 5.427265e+02 
7.066010e-01 5.286506e+02 
7.240540e-01 5.152768e+02 
7.420450e-01 5.021192e+02 
7.593780e-01 4.901485e+02 
7.764720e-01 4.788378e+02 
7.942840e-01 4.676314e+02 
8.116170e-01 4.571391e+02 
8.288310e-01 4.471690e+02 
8.462240e-01 4.374649e+02 
8.631980e-01 4.284050e+02 
8.810700e-01 4.191800e+02 
8.989410e-01 4.103161e+02 
9.166330e-01 4.018317e+02 
9.345640e-01 3.935253e+02 
9.515980e-01 3.858888e+02 
9.688720e-01 3.783681e+02 
9.865640e-01 3.708841e+02 
1.031870e+00 3.528370e+02 
1.063490e+00 3.409883e+02 
1.097920e+00 3.287297e+02 
1.134370e+00 3.164367e+02 
1.167730e+00 3.057897e+02 
1.203830e+00 2.948187e+02 
1.240470e+00 2.842646e+02 
1.275790e+00 2.745591e+02 
1.309140e+00 2.658353e+02 
1.342970e+00 2.573753e+02 
1.378420e+00 2.489173e+02 
1.413200e+00 2.409811e+02 
1.448110e+00 2.333590e+02 
1.484090e+00 2.258512e+02 
1.518820e+00 2.189116e+02 
1.552880e+00 2.123966e+02 
1.588630e+00 2.058571e+02 
1.623230e+00 1.997894e+02 
1.657720e+00 1.940014e+02 
1.692450e+00 1.884046e+02 
1.726400e+00 1.831375e+02 
1.762200e+00 1.778005e+02 
1.797880e+00 1.726956e+02 
1.833270e+00 1.678476e+02 
1.869070e+00 1.631152e+02 
1.903200e+00 1.587922e+02 
1.937740e+00 1.545731e+02 
1.973190e+00 1.503998e+02 
2.007440e+00 1.465208e+02 
2.042160e+00 1.427400e+02 
2.077900e+00 1.389658e+02 
2.112390e+00 1.354725e+02 
2.146220e+00 1.321595e+02 
2.181600e+00 1.288083e+02 
2.216930e+00 1.255932e+02 
2.250760e+00 1.226114e+02 
2.286500e+00 1.195626e+02 
2.321770e+00 1.166656e+02 
2.355950e+00 1.139479e+02 
2.391280e+00 1.112426e+02 
2.426240e+00 1.086399e+02 
2.460670e+00 1.061582e+02 
2.495640e+00 1.037270e+02 
2.531080e+00 1.013346e+02 
2.566220e+00 9.903603e+01 
2.600830e+00 9.684791e+01 
2.635080e+00 9.475622e+01 
2.670340e+00 9.266032e+01 
2.705970e+00 9.060735e+01 
2.740040e+00 8.870275e+01 
2.774520e+00 8.682717e+01 
2.809730e+00 8.497558e+01 
2.844390e+00 8.320917e+01 
2.879960e+00 8.144562e+01 
2.914860e+00 7.976295e+01 
2.949410e+00 7.814612e+01 
2.984440e+00 7.655765e+01 
3.019760e+00 7.499997e+01 
3.054730e+00 7.350097e+01 
3.089030e+00 7.206689e+01 
3.124060e+00 7.064235e+01 
3.159560e+00 6.923741e+01 
3.194710e+00 6.788792e+01 
3.229010e+00 6.660809e+01 
3.263320e+00 6.535755e+01 
3.297930e+00 6.413161e+01 
3.332830e+00 6.293118e+01 
3.368040e+00 6.175023e+01 
3.403300e+00 6.059764e+01 
3.438450e+00 5.947619e+01 
3.473060e+00 5.840041e+01 
3.508440e+00 5.733174e+01 
3.543110e+00 5.631127e+01 
3.577470e+00 5.532241e+01 
3.613040e+00 5.432555e+01 
3.648120e+00 5.336933e+01 
3.682910e+00 5.244364e+01 
3.718050e+00 5.152966e+01 
3.753320e+00 5.063612e+01 
3.787980e+00 4.978102e+01 
3.822290e+00 4.895371e+01 
3.857020e+00 4.813447e+01 
3.891920e+00 4.732992e+01 
3.926650e+00 4.654656e+01 
3.961970e+00 4.576929e+01 
3.997360e+00 4.501031e+01 
4.031670e+00 4.429193e+01 
4.066330e+00 4.358460e+01 
4.101420e+00 4.288468e+01 
4.136200e+00 4.220470e+01 
4.170810e+00 4.154313e+01 
4.206250e+00 4.088240e+01 
4.241580e+00 4.023874e+01 
4.276300e+00 3.961882e+01 
4.310970e+00 3.901247e+01 
4.346120e+00 3.841179e+01 
4.380600e+00 3.783647e+01 
4.414730e+00 3.727885e+01 
4.450350e+00 3.670792e+01 
4.485320e+00 3.615929e+01 
4.519810e+00 3.563059e+01 
4.555430e+00 3.509643e+01 
4.590870e+00 3.457564e+01 
4.625480e+00 3.407656e+01 
4.659910e+00 3.359002e+01 
4.695230e+00 3.310272e+01 
4.729960e+00 3.263343e+01 
4.764450e+00 3.217709e+01 
4.799530e+00 3.172298e+01 
4.834910e+00 3.127401e+01 
4.869700e+00 3.084253e+01 
4.904370e+00 3.042100e+01 
4.939450e+00 3.000237e+01 
4.973940e+00 2.959790e+01 
5.008430e+00 2.920098e+01 
5.043810e+00 2.880108e+01 
5.078840e+00 2.841237e+01 
5.113500e+00 2.803490e+01 
5.148890e+00 2.766017e+01 
5.184210e+00 2.729326e+01 
5.219060e+00 2.693764e+01 
5.253660e+00 2.659034e+01 
5.288570e+00 2.624620e+01 
5.323420e+00 2.590859e+01 
5.358440e+00 2.557515e+01 
5.393590e+00 2.524641e+01 
5.428310e+00 2.492953e+01 
5.462800e+00 2.462129e+01 
5.497640e+00 2.431527e+01 
5.532670e+00 2.401240e+01 
5.567280e+00 2.371811e+01 
5.602000e+00 2.342788e+01 
5.637270e+00 2.313780e+01 
5.672410e+00 2.285364e+01 
5.707020e+00 2.257844e+01 
5.742040e+00 2.230567e+01 
5.777430e+00 2.203484e+01 
5.812210e+00 2.177307e+01 
5.846820e+00 2.151763e+01 
5.881610e+00 2.126521e+01 
5.916510e+00 2.101608e+01 
5.951600e+00 2.076942e+01 
5.986560e+00 2.052754e+01 
6.021830e+00 2.028741e+01 
6.056490e+00 2.005646e+01 
6.091160e+00 1.983012e+01 
6.125830e+00 1.960730e+01 
6.161090e+00 1.938375e+01 
6.195760e+00 1.916639e+01 
6.230420e+00 1.895241e+01 
6.265690e+00 1.873805e+01 
6.300950e+00 1.852803e+01 
6.335620e+00 1.832466e+01 
6.370880e+00 1.812095e+01 
6.405550e+00 1.792433e+01 
6.440220e+00 1.773090e+01 
6.475480e+00 1.753710e+01 
6.510150e+00 1.734931e+01 
6.544810e+00 1.716420e+01 
6.580080e+00 1.697859e+01 
6.614750e+00 1.679880e+01 
6.649410e+00 1.662246e+01 
6.684080e+00 1.644875e+01 
6.719340e+00 1.627462e+01 
6.754010e+00 1.610580e+01 
6.788680e+00 1.593923e+01 
6.823940e+00 1.577223e+01 
6.859800e+00 1.560483e+01 
6.894470e+00 1.544584e+01 
6.929140e+00 1.528927e+01 
6.963800e+00 1.513489e+01 
6.999070e+00 1.497996e+01 
7.033730e+00 1.482980e+01 
7.068400e+00 1.468163e+01 
7.103660e+00 1.453300e+01 
7.138330e+00 1.438908e+01 
7.173600e+00 1.424515e+01 
7.208260e+00 1.410562e+01 
7.243530e+00 1.396553e+01 
7.277600e+00 1.383199e+01 
7.312860e+00 1.369560e+01 
7.348120e+00 1.356103e+01 
7.382790e+00 1.343045e+01 
7.417460e+00 1.330201e+01 
7.452720e+00 1.317332e+01 
7.487390e+00 1.304843e+01 
7.522650e+00 1.292305e+01 
7.557320e+00 1.280133e+01 
7.591990e+00 1.268115e+01 
7.627250e+00 1.256048e+01 
7.662510e+00 1.244136e+01 
7.697180e+00 1.232570e+01 
7.731850e+00 1.221148e+01 
7.766510e+00 1.209872e+01 
7.801180e+00 1.198733e+01 
7.836440e+00 1.187587e+01 
7.871110e+00 1.176789e+01 
7.906380e+00 1.165939e+01 
7.941040e+00 1.155409e+01 
7.976310e+00 1.144794e+01 
8.011570e+00 1.134278e+01 
8.046240e+00 1.124064e+01 
8.080900e+00 1.113976e+01 
8.115570e+00 1.104031e+01 
8.150830e+00 1.094129e+01 
8.185500e+00 1.084510e+01 
8.220770e+00 1.074840e+01 
8.255430e+00 1.065451e+01 
8.290100e+00 1.056130e+01 
8.324770e+00 1.046913e+01 
8.359430e+00 1.037806e+01 
8.394700e+00 1.028648e+01 
8.429960e+00 1.019623e+01 
8.464630e+00 1.010874e+01 
8.499890e+00 1.002079e+01 
8.534560e+00 9.935316e+00 
8.569200e+00 9.850883e+00 
