# Parameters:
# omega_b = 0.023469, omega_m = 0.122756, n_s = 0.985433, h = 56.889764, w = -1.000000, sigma_8 = 0.725197
# z = 0.100000
#
# k[1/Mpc] # P(k):
8.694000e-04 2.072282e+04 
2.077466e-03 4.434215e+04 
3.285532e-03 6.246403e+04 
4.493598e-03 7.597445e+04 
5.701664e-03 8.558415e+04 
6.909730e-03 9.197733e+04 
8.117797e-03 9.589745e+04 
9.325863e-03 9.773259e+04 
1.053393e-02 9.786127e+04 
1.174199e-02 9.663455e+04 
1.295006e-02 9.427714e+04 
1.415813e-02 9.108770e+04 
1.536619e-02 8.731730e+04 
1.657426e-02 8.294131e+04 
1.778233e-02 7.751943e+04 
1.899039e-02 7.181224e+04 
2.019846e-02 6.714765e+04 
2.140652e-02 6.341528e+04 
2.261459e-02 6.006731e+04 
2.382266e-02 5.694967e+04 
2.503072e-02 5.406769e+04 
2.623879e-02 5.142664e+04 
2.744685e-02 4.902814e+04 
2.865492e-02 4.686472e+04 
2.986299e-02 4.492154e+04 
3.100100e-02 4.328146e+04 
3.220400e-02 4.172755e+04 
3.288100e-02 4.092864e+04 
3.424300e-02 3.946314e+04 
3.555100e-02 3.820429e+04 
3.686000e-02 3.706434e+04 
3.795000e-02 3.619328e+04 
3.929100e-02 3.518739e+04 
4.039800e-02 3.439443e+04 
4.164000e-02 3.354490e+04 
4.294400e-02 3.265797e+04 
4.415000e-02 3.185777e+04 
4.542900e-02 3.099689e+04 
4.660900e-02 3.020970e+04 
4.782300e-02 2.937045e+04 
4.892900e-02 2.861201e+04 
5.031200e-02 2.765263e+04 
5.155900e-02 2.677877e+04 
5.238100e-02 2.620386e+04 
5.378200e-02 2.523286e+04 
5.513400e-02 2.430720e+04 
5.627600e-02 2.353817e+04 
5.735300e-02 2.283138e+04 
5.870100e-02 2.197709e+04 
5.988700e-02 2.125812e+04 
6.113500e-02 2.053405e+04 
6.225900e-02 1.991668e+04 
6.340100e-02 1.932252e+04 
6.480200e-02 1.863843e+04 
6.601100e-02 1.809522e+04 
6.725500e-02 1.757788e+04 
6.829100e-02 1.718273e+04 
6.958600e-02 1.672148e+04 
7.071100e-02 1.635813e+04 
7.192300e-02 1.599926e+04 
7.307400e-02 1.568509e+04 
7.412300e-02 1.542003e+04 
7.550400e-02 1.510290e+04 
7.663100e-02 1.486247e+04 
7.791200e-02 1.460708e+04 
7.912700e-02 1.437894e+04 
8.027600e-02 1.417102e+04 
8.138400e-02 1.397520e+04 
8.272200e-02 1.374084e+04 
8.406100e-02 1.350364e+04 
8.534100e-02 1.327127e+04 
8.653800e-02 1.304601e+04 
8.759800e-02 1.284344e+04 
8.900300e-02 1.256837e+04 
9.009000e-02 1.234702e+04 
9.113300e-02 1.213099e+04 
9.239600e-02 1.186876e+04 
9.358000e-02 1.162001e+04 
9.496100e-02 1.132958e+04 
9.608400e-02 1.109739e+04 
9.727500e-02 1.085606e+04 
9.852600e-02 1.060945e+04 
9.973800e-02 1.038133e+04 
1.009000e-01 1.017200e+04 
1.020900e-01 9.970351e+03 
1.034000e-01 9.759768e+03 
1.046000e-01 9.577687e+03 
1.057200e-01 9.421687e+03 
1.069100e-01 9.263655e+03 
1.082500e-01 9.099943e+03 
1.093900e-01 8.969754e+03 
1.105400e-01 8.844776e+03 
1.116900e-01 8.729464e+03 
1.129600e-01 8.607395e+03 
1.142000e-01 8.495681e+03 
1.153300e-01 8.396910e+03 
1.166400e-01 8.286072e+03 
1.177800e-01 8.192502e+03 
1.190000e-01 8.094998e+03 
1.201200e-01 8.004585e+03 
1.213400e-01 7.907877e+03 
1.227100e-01 7.797476e+03 
1.238900e-01 7.703497e+03 
1.250700e-01 7.607413e+03 
1.263200e-01 7.506615e+03 
1.275500e-01 7.406654e+03 
1.287500e-01 7.309271e+03 
1.299900e-01 7.207608e+03 
1.311300e-01 7.115424e+03 
1.323500e-01 7.017715e+03 
1.335900e-01 6.919992e+03 
1.347100e-01 6.832743e+03 
1.359800e-01 6.736062e+03 
1.372100e-01 6.644717e+03 
1.384300e-01 6.556247e+03 
1.395700e-01 6.475633e+03 
1.407700e-01 6.392734e+03 
1.420300e-01 6.309590e+03 
1.432800e-01 6.228901e+03 
1.444500e-01 6.156599e+03 
1.456300e-01 6.085135e+03 
1.468900e-01 6.012297e+03 
1.480500e-01 5.947156e+03 
1.491700e-01 5.885926e+03 
1.503800e-01 5.821651e+03 
1.516400e-01 5.756410e+03 
1.528200e-01 5.698040e+03 
1.540200e-01 5.639805e+03 
1.551900e-01 5.584743e+03 
1.564300e-01 5.527647e+03 
1.576600e-01 5.472124e+03 
1.588700e-01 5.418564e+03 
1.600900e-01 5.365544e+03 
1.612700e-01 5.314823e+03 
1.625400e-01 5.261241e+03 
1.637600e-01 5.210560e+03 
1.649500e-01 5.161912e+03 
1.662200e-01 5.110772e+03 
1.674000e-01 5.063199e+03 
1.685000e-01 5.019587e+03 
1.697500e-01 4.970492e+03 
1.710300e-01 4.920753e+03 
1.722200e-01 4.875326e+03 
1.734400e-01 4.828475e+03 
1.746400e-01 4.783132e+03 
1.758700e-01 4.737297e+03 
1.770900e-01 4.692304e+03 
1.782700e-01 4.649507e+03 
1.794600e-01 4.606896e+03 
1.807000e-01 4.563127e+03 
1.819100e-01 4.521125e+03 
1.830100e-01 4.483688e+03 
1.842200e-01 4.443169e+03 
1.855000e-01 4.401049e+03 
1.867000e-01 4.362996e+03 
1.879200e-01 4.324921e+03 
1.890900e-01 4.289028e+03 
1.902800e-01 4.253361e+03 
1.915200e-01 4.216775e+03 
1.926900e-01 4.183042e+03 
1.939000e-01 4.149527e+03 
1.951700e-01 4.114896e+03 
1.963100e-01 4.084372e+03 
1.975100e-01 4.052959e+03 
1.987800e-01 4.020219e+03 
2.000100e-01 3.989055e+03 
2.012500e-01 3.958251e+03 
2.023400e-01 3.931554e+03 
2.036100e-01 3.900956e+03 
2.048900e-01 3.870842e+03 
2.060400e-01 3.844177e+03 
2.072200e-01 3.817189e+03 
2.084200e-01 3.790085e+03 
2.096900e-01 3.761813e+03 
2.109200e-01 3.734828e+03 
2.121100e-01 3.708722e+03 
2.132700e-01 3.683597e+03 
2.145200e-01 3.656896e+03 
2.157200e-01 3.631362e+03 
2.168800e-01 3.606889e+03 
2.180700e-01 3.582114e+03 
2.193400e-01 3.555890e+03 
2.206000e-01 3.529963e+03 
2.217500e-01 3.506616e+03 
2.229500e-01 3.482567e+03 
2.241400e-01 3.458690e+03 
2.253500e-01 3.434720e+03 
2.264900e-01 3.412424e+03 
2.277100e-01 3.388842e+03 
2.289900e-01 3.364405e+03 
2.301500e-01 3.342546e+03 
2.313600e-01 3.320030e+03 
2.325600e-01 3.297802e+03 
2.337700e-01 3.275672e+03 
2.350000e-01 3.253462e+03 
2.362000e-01 3.232227e+03 
2.374100e-01 3.211270e+03 
2.386500e-01 3.190063e+03 
2.399100e-01 3.168789e+03 
2.410400e-01 3.150122e+03 
2.422500e-01 3.130394e+03 
2.435000e-01 3.110265e+03 
2.447300e-01 3.090771e+03 
2.458700e-01 3.073185e+03 
2.470600e-01 3.055041e+03 
2.483300e-01 3.035911e+03 
2.495600e-01 3.017745e+03 
2.507600e-01 3.000415e+03 
2.519600e-01 2.983287e+03 
2.532200e-01 2.965517e+03 
2.543700e-01 2.949652e+03 
2.555500e-01 2.933667e+03 
2.568000e-01 2.916929e+03 
2.580100e-01 2.900917e+03 
2.592400e-01 2.884889e+03 
2.604100e-01 2.869842e+03 
2.616100e-01 2.854580e+03 
2.628400e-01 2.839115e+03 
2.640600e-01 2.824161e+03 
2.652200e-01 2.810182e+03 
2.664300e-01 2.795761e+03 
2.676500e-01 2.781382e+03 
2.688400e-01 2.767385e+03 
2.700700e-01 2.752999e+03 
2.712400e-01 2.739463e+03 
2.724800e-01 2.725272e+03 
2.736700e-01 2.711765e+03 
2.748800e-01 2.698139e+03 
2.761000e-01 2.684549e+03 
2.773200e-01 2.671106e+03 
2.785400e-01 2.657811e+03 
2.797000e-01 2.645309e+03 
2.808900e-01 2.632615e+03 
2.821400e-01 2.619423e+03 
2.833900e-01 2.606364e+03 
2.845500e-01 2.594157e+03 
2.857800e-01 2.581347e+03 
2.870300e-01 2.568467e+03 
2.882100e-01 2.556433e+03 
2.893900e-01 2.544455e+03 
2.906300e-01 2.531960e+03 
2.918900e-01 2.519397e+03 
2.930500e-01 2.507949e+03 
2.942500e-01 2.496203e+03 
2.954200e-01 2.484803e+03 
2.966500e-01 2.472938e+03 
2.978900e-01 2.461097e+03 
2.990400e-01 2.450224e+03 
3.002700e-01 2.438647e+03 
3.015100e-01 2.427063e+03 
3.026800e-01 2.416240e+03 
3.038500e-01 2.405518e+03 
3.050300e-01 2.394807e+03 
3.062600e-01 2.383679e+03 
3.075000e-01 2.372571e+03 
3.087000e-01 2.361925e+03 
3.099100e-01 2.351293e+03 
3.111200e-01 2.340743e+03 
3.123100e-01 2.330430e+03 
3.135300e-01 2.319957e+03 
3.147300e-01 2.309753e+03 
3.159900e-01 2.299141e+03 
3.171800e-01 2.289300e+03 
3.183700e-01 2.279605e+03 
3.196300e-01 2.269437e+03 
3.208400e-01 2.259765e+03 
3.220300e-01 2.250340e+03 
3.232000e-01 2.241046e+03 
3.244300e-01 2.231322e+03 
3.256700e-01 2.221609e+03 
3.269200e-01 2.211910e+03 
3.280800e-01 2.202990e+03 
3.292500e-01 2.194187e+03 
3.304800e-01 2.185052e+03 
3.317100e-01 2.175999e+03 
3.328900e-01 2.167392e+03 
3.340700e-01 2.158860e+03 
3.353600e-01 2.149645e+03 
3.365300e-01 2.141373e+03 
3.377100e-01 2.133102e+03 
3.389200e-01 2.124694e+03 
3.401600e-01 2.116154e+03 
3.413700e-01 2.107916e+03 
3.425300e-01 2.100102e+03 
3.437700e-01 2.091820e+03 
3.449800e-01 2.083810e+03 
3.461800e-01 2.075934e+03 
3.473600e-01 2.068245e+03 
3.485800e-01 2.060339e+03 
3.498100e-01 2.052438e+03 
3.510200e-01 2.044731e+03 
3.522000e-01 2.037278e+03 
3.533900e-01 2.029825e+03 
3.546400e-01 2.022164e+03 
3.558400e-01 2.014879e+03 
3.570600e-01 2.007534e+03 
3.582700e-01 2.000310e+03 
3.595000e-01 1.993028e+03 
3.607100e-01 1.985939e+03 
3.618900e-01 1.979094e+03 
3.631200e-01 1.972018e+03 
3.643200e-01 1.965171e+03 
3.655500e-01 1.958210e+03 
3.667300e-01 1.951587e+03 
3.679500e-01 1.944806e+03 
3.691900e-01 1.937971e+03 
3.703600e-01 1.931573e+03 
3.715700e-01 1.925010e+03 
3.727700e-01 1.918553e+03 
3.739900e-01 1.912054e+03 
3.752000e-01 1.905683e+03 
3.763900e-01 1.899468e+03 
3.775800e-01 1.893301e+03 
3.788200e-01 1.886926e+03 
3.800300e-01 1.880756e+03 
3.812100e-01 1.874749e+03 
3.824200e-01 1.868612e+03 
3.836100e-01 1.862624e+03 
3.848600e-01 1.856383e+03 
3.860400e-01 1.850538e+03 
3.872400e-01 1.844639e+03 
3.884600e-01 1.838697e+03 
3.896500e-01 1.832950e+03 
3.908700e-01 1.827103e+03 
3.920600e-01 1.821443e+03 
3.933100e-01 1.815543e+03 
3.945300e-01 1.809831e+03 
3.957200e-01 1.804312e+03 
3.969300e-01 1.798747e+03 
3.981700e-01 1.793087e+03 
3.993500e-01 1.787742e+03 
4.094840e-01 1.743064e+03 
4.272360e-01 1.670445e+03 
4.454600e-01 1.601678e+03 
4.630560e-01 1.540590e+03 
4.804610e-01 1.484287e+03 
4.980690e-01 1.431218e+03 
5.159230e-01 1.381036e+03 
5.317440e-01 1.339129e+03 
5.489640e-01 1.296363e+03 
5.671990e-01 1.253698e+03 
5.838690e-01 1.216975e+03 
6.018840e-01 1.179575e+03 
6.202330e-01 1.143657e+03 
6.379250e-01 1.110953e+03 
6.545410e-01 1.081620e+03 
6.714560e-01 1.053186e+03 
6.892080e-01 1.024674e+03 
7.066010e-01 9.980384e+02 
7.240540e-01 9.725066e+02 
7.420450e-01 9.470881e+02 
7.593780e-01 9.237654e+02 
7.764720e-01 9.015645e+02 
7.942840e-01 8.793882e+02 
8.116170e-01 8.584895e+02 
8.288310e-01 8.384823e+02 
8.462240e-01 8.189153e+02 
8.631980e-01 8.005464e+02 
8.810700e-01 7.817706e+02 
8.989410e-01 7.636699e+02 
9.166330e-01 7.462885e+02 
9.345640e-01 7.292264e+02 
9.515980e-01 7.135186e+02 
9.688720e-01 6.980202e+02 
9.865640e-01 6.825922e+02 
1.031870e+00 6.453524e+02 
1.063490e+00 6.209364e+02 
1.097920e+00 5.957089e+02 
1.134370e+00 5.705081e+02 
1.167730e+00 5.487553e+02 
1.203830e+00 5.264459e+02 
1.240470e+00 5.050766e+02 
1.275790e+00 4.855353e+02 
1.309140e+00 4.680643e+02 
1.342970e+00 4.512102e+02 
1.378420e+00 4.344450e+02 
1.413200e+00 4.188170e+02 
1.448110e+00 4.038871e+02 
1.484090e+00 3.892662e+02 
1.518820e+00 3.758278e+02 
1.552880e+00 3.632873e+02 
1.588630e+00 3.507593e+02 
1.623230e+00 3.392009e+02 
1.657720e+00 3.282272e+02 
1.692450e+00 3.176640e+02 
1.726400e+00 3.077856e+02 
1.762200e+00 2.978227e+02 
1.797880e+00 2.883440e+02 
1.833270e+00 2.793785e+02 
1.869070e+00 2.706772e+02 
1.903200e+00 2.627590e+02 
1.937740e+00 2.550647e+02 
1.973190e+00 2.474881e+02 
2.007440e+00 2.404746e+02 
2.042160e+00 2.336659e+02 
2.077900e+00 2.269000e+02 
2.112390e+00 2.206574e+02 
2.146220e+00 2.147641e+02 
2.181600e+00 2.088254e+02 
2.216930e+00 2.031469e+02 
2.250760e+00 1.979000e+02 
2.286500e+00 1.925542e+02 
2.321770e+00 1.874902e+02 
2.355950e+00 1.827562e+02 
2.391280e+00 1.780596e+02 
2.426240e+00 1.735574e+02 
2.460670e+00 1.692773e+02 
2.495640e+00 1.650949e+02 
2.531080e+00 1.609950e+02 
2.566220e+00 1.570673e+02 
2.600830e+00 1.533376e+02 
2.635080e+00 1.497804e+02 
2.670340e+00 1.462296e+02 
2.705970e+00 1.427603e+02 
2.740040e+00 1.395492e+02 
2.774520e+00 1.363966e+02 
2.809730e+00 1.332916e+02 
2.844390e+00 1.303354e+02 
2.879960e+00 1.273924e+02 
2.914860e+00 1.245921e+02 
2.949410e+00 1.219062e+02 
2.984440e+00 1.192737e+02 
3.019760e+00 1.166981e+02 
3.054730e+00 1.142238e+02 
3.089030e+00 1.118644e+02 
3.124060e+00 1.095245e+02 
3.159560e+00 1.072214e+02 
3.194710e+00 1.050140e+02 
3.229010e+00 1.029232e+02 
3.263320e+00 1.008861e+02 
3.297930e+00 9.889148e+01 
3.332830e+00 9.694210e+01 
3.368040e+00 9.502790e+01 
3.403300e+00 9.316252e+01 
3.438450e+00 9.135176e+01 
3.473060e+00 8.961641e+01 
3.508440e+00 8.789674e+01 
3.543110e+00 8.625604e+01 
3.577470e+00 8.466988e+01 
3.613040e+00 8.307237e+01 
3.648120e+00 8.154281e+01 
3.682910e+00 8.006374e+01 
3.718050e+00 7.860592e+01 
3.753320e+00 7.718233e+01 
3.787980e+00 7.582198e+01 
3.822290e+00 7.450739e+01 
3.857020e+00 7.320769e+01 
3.891920e+00 7.193259e+01 
3.926650e+00 7.069296e+01 
3.961970e+00 6.946405e+01 
3.997360e+00 6.826595e+01 
4.031670e+00 6.713268e+01 
4.066330e+00 6.601856e+01 
4.101420e+00 6.491662e+01 
4.136200e+00 6.384812e+01 
4.170810e+00 6.280891e+01 
4.206250e+00 6.177259e+01 
4.241580e+00 6.076363e+01 
4.276300e+00 5.979312e+01 
4.310970e+00 5.884469e+01 
4.346120e+00 5.790586e+01 
4.380600e+00 5.700764e+01 
4.414730e+00 5.613738e+01 
4.450350e+00 5.524776e+01 
4.485320e+00 5.439317e+01 
4.519810e+00 5.357049e+01 
4.555430e+00 5.273986e+01 
4.590870e+00 5.193057e+01 
4.625480e+00 5.115589e+01 
4.659910e+00 5.040091e+01 
4.695230e+00 4.964556e+01 
4.729960e+00 4.891842e+01 
4.764450e+00 4.821179e+01 
4.799530e+00 4.750918e+01 
4.834910e+00 4.681472e+01 
4.869700e+00 4.614799e+01 
4.904370e+00 4.549690e+01 
4.939450e+00 4.485060e+01 
4.973940e+00 4.422670e+01 
5.008430e+00 4.361462e+01 
5.043810e+00 4.299843e+01 
5.078840e+00 4.239983e+01 
5.113500e+00 4.181869e+01 
5.148890e+00 4.124209e+01 
5.184210e+00 4.067766e+01 
5.219060e+00 4.013087e+01 
5.253660e+00 3.959735e+01 
5.288570e+00 3.906882e+01 
5.323420e+00 3.855056e+01 
5.358440e+00 3.803896e+01 
5.393590e+00 3.753471e+01 
5.428310e+00 3.704882e+01 
5.462800e+00 3.657634e+01 
5.497640e+00 3.610737e+01 
5.532670e+00 3.564352e+01 
5.567280e+00 3.519298e+01 
5.602000e+00 3.474876e+01 
5.637270e+00 3.430502e+01 
5.672410e+00 3.387048e+01 
5.707020e+00 3.344975e+01 
5.742040e+00 3.303291e+01 
5.777430e+00 3.261914e+01 
5.812210e+00 3.221931e+01 
5.846820e+00 3.182928e+01 
5.881610e+00 3.144397e+01 
5.916510e+00 3.106376e+01 
5.951600e+00 3.068749e+01 
5.986560e+00 3.031861e+01 
6.021830e+00 2.995250e+01 
6.056490e+00 2.960043e+01 
6.091160e+00 2.925547e+01 
6.125830e+00 2.891593e+01 
6.161090e+00 2.857540e+01 
6.195760e+00 2.824443e+01 
6.230420e+00 2.791869e+01 
6.265690e+00 2.759245e+01 
6.300950e+00 2.727289e+01 
6.335620e+00 2.696352e+01 
6.370880e+00 2.665372e+01 
6.405550e+00 2.635472e+01 
6.440220e+00 2.606062e+01 
6.475480e+00 2.576602e+01 
6.510150e+00 2.548065e+01 
6.544810e+00 2.519944e+01 
6.580080e+00 2.491755e+01 
6.614750e+00 2.464455e+01 
6.649410e+00 2.437681e+01 
6.684080e+00 2.411311e+01 
6.719340e+00 2.384884e+01 
6.754010e+00 2.359269e+01 
6.788680e+00 2.334003e+01 
6.823940e+00 2.308678e+01 
6.859800e+00 2.283298e+01 
6.894470e+00 2.259196e+01 
6.929140e+00 2.235463e+01 
6.963800e+00 2.212070e+01 
6.999070e+00 2.188599e+01 
7.033730e+00 2.165852e+01 
7.068400e+00 2.143413e+01 
7.103660e+00 2.120909e+01 
7.138330e+00 2.099123e+01 
7.173600e+00 2.077338e+01 
7.208260e+00 2.056224e+01 
7.243530e+00 2.035030e+01 
7.277600e+00 2.014831e+01 
7.312860e+00 1.994206e+01 
7.348120e+00 1.973860e+01 
7.382790e+00 1.954124e+01 
7.417460e+00 1.934711e+01 
7.452720e+00 1.915262e+01 
7.487390e+00 1.896391e+01 
7.522650e+00 1.877452e+01 
7.557320e+00 1.859070e+01 
7.591990e+00 1.840925e+01 
7.627250e+00 1.822712e+01 
7.662510e+00 1.804736e+01 
7.697180e+00 1.787287e+01 
7.731850e+00 1.770060e+01 
7.766510e+00 1.753057e+01 
7.801180e+00 1.736265e+01 
7.836440e+00 1.719463e+01 
7.871110e+00 1.703188e+01 
7.906380e+00 1.686839e+01 
7.941040e+00 1.670975e+01 
7.976310e+00 1.654990e+01 
8.011570e+00 1.639160e+01 
8.046240e+00 1.623788e+01 
8.080900e+00 1.608609e+01 
8.115570e+00 1.593647e+01 
8.150830e+00 1.578749e+01 
8.185500e+00 1.564279e+01 
8.220770e+00 1.549738e+01 
8.255430e+00 1.535621e+01 
8.290100e+00 1.521613e+01 
8.324770e+00 1.507767e+01 
8.359430e+00 1.494089e+01 
8.394700e+00 1.480337e+01 
8.429960e+00 1.466787e+01 
8.464630e+00 1.453655e+01 
8.499890e+00 1.440458e+01 
8.534560e+00 1.427634e+01 
8.569200e+00 1.414970e+01 
