# Parameters:
# omega_b = 0.022303, omega_m = 0.124134, n_s = 0.933465, h = 61.614173, w = -1.000000, sigma_8 = 0.818110
# z = 0.100000
#
# k[1/Mpc] # P(k):
8.694000e-04 2.790005e+04 
2.077466e-03 5.720502e+04 
3.285532e-03 7.871016e+04 
4.493598e-03 9.418897e+04 
5.701664e-03 1.048347e+05 
6.909730e-03 1.116161e+05 
8.117797e-03 1.154944e+05 
9.325863e-03 1.169721e+05 
1.053393e-02 1.165228e+05 
1.174199e-02 1.145738e+05 
1.295006e-02 1.113931e+05 
1.415813e-02 1.073276e+05 
1.536619e-02 1.026651e+05 
1.657426e-02 9.746558e+04 
1.778233e-02 9.149880e+04 
1.899039e-02 8.537985e+04 
2.019846e-02 8.005369e+04 
2.140652e-02 7.547393e+04 
2.261459e-02 7.128246e+04 
2.382266e-02 6.739508e+04 
2.503072e-02 6.382575e+04 
2.623879e-02 6.057621e+04 
2.744685e-02 5.764525e+04 
2.865492e-02 5.501666e+04 
2.986299e-02 5.266801e+04 
3.100100e-02 5.069616e+04 
3.220400e-02 4.883581e+04 
3.288100e-02 4.788268e+04 
3.424300e-02 4.613822e+04 
3.555100e-02 4.464249e+04 
3.686000e-02 4.328850e+04 
3.795000e-02 4.225265e+04 
3.929100e-02 4.105288e+04 
4.039800e-02 4.010342e+04 
4.164000e-02 3.908213e+04 
4.294400e-02 3.801026e+04 
4.415000e-02 3.703995e+04 
4.542900e-02 3.599291e+04 
4.660900e-02 3.503449e+04 
4.782300e-02 3.401325e+04 
4.892900e-02 3.309161e+04 
5.031200e-02 3.192932e+04 
5.155900e-02 3.087574e+04 
5.238100e-02 3.018548e+04 
5.378200e-02 2.902503e+04 
5.513400e-02 2.792650e+04 
5.627600e-02 2.701992e+04 
5.735300e-02 2.619139e+04 
5.870100e-02 2.519602e+04 
5.988700e-02 2.436317e+04 
6.113500e-02 2.352891e+04 
6.225900e-02 2.282124e+04 
6.340100e-02 2.214305e+04 
6.480200e-02 2.136490e+04 
6.601100e-02 2.074934e+04 
6.725500e-02 2.016444e+04 
6.829100e-02 1.971841e+04 
6.958600e-02 1.919794e+04 
7.071100e-02 1.878786e+04 
7.192300e-02 1.838241e+04 
7.307400e-02 1.802676e+04 
7.412300e-02 1.772595e+04 
7.550400e-02 1.736459e+04 
7.663100e-02 1.708952e+04 
7.791200e-02 1.679539e+04 
7.912700e-02 1.653078e+04 
8.027600e-02 1.628823e+04 
8.138400e-02 1.605868e+04 
8.272200e-02 1.578256e+04 
8.406100e-02 1.550192e+04 
8.534100e-02 1.522603e+04 
8.653800e-02 1.495829e+04 
8.759800e-02 1.471752e+04 
8.900300e-02 1.439089e+04 
9.009000e-02 1.412870e+04 
9.113300e-02 1.387357e+04 
9.239600e-02 1.356474e+04 
9.358000e-02 1.327307e+04 
9.496100e-02 1.293471e+04 
9.608400e-02 1.266559e+04 
9.727500e-02 1.238700e+04 
9.852600e-02 1.210524e+04 
9.973800e-02 1.184592e+04 
1.009000e-01 1.160908e+04 
1.020900e-01 1.138346e+04 
1.034000e-01 1.114888e+04 
1.046000e-01 1.094715e+04 
1.057200e-01 1.077575e+04 
1.069100e-01 1.060251e+04 
1.082500e-01 1.042396e+04 
1.093900e-01 1.028211e+04 
1.105400e-01 1.014603e+04 
1.116900e-01 1.002015e+04 
1.129600e-01 9.886638e+03 
1.142000e-01 9.763519e+03 
1.153300e-01 9.654038e+03 
1.166400e-01 9.530201e+03 
1.177800e-01 9.424528e+03 
1.190000e-01 9.313880e+03 
1.201200e-01 9.209871e+03 
1.213400e-01 9.098375e+03 
1.227100e-01 8.969457e+03 
1.238900e-01 8.859484e+03 
1.250700e-01 8.746353e+03 
1.263200e-01 8.627561e+03 
1.275500e-01 8.509505e+03 
1.287500e-01 8.394594e+03 
1.299900e-01 8.274788e+03 
1.311300e-01 8.166443e+03 
1.323500e-01 8.052034e+03 
1.335900e-01 7.938094e+03 
1.347100e-01 7.836995e+03 
1.359800e-01 7.725437e+03 
1.372100e-01 7.620969e+03 
1.384300e-01 7.520185e+03 
1.395700e-01 7.429298e+03 
1.407700e-01 7.335945e+03 
1.420300e-01 7.243514e+03 
1.432800e-01 7.153803e+03 
1.444500e-01 7.074291e+03 
1.456300e-01 6.995693e+03 
1.468900e-01 6.915911e+03 
1.480500e-01 6.844657e+03 
1.491700e-01 6.777634e+03 
1.503800e-01 6.707219e+03 
1.516400e-01 6.635653e+03 
1.528200e-01 6.571241e+03 
1.540200e-01 6.506975e+03 
1.551900e-01 6.445603e+03 
1.564300e-01 6.381812e+03 
1.576600e-01 6.319409e+03 
1.588700e-01 6.258767e+03 
1.600900e-01 6.198699e+03 
1.612700e-01 6.140564e+03 
1.625400e-01 6.079149e+03 
1.637600e-01 6.020794e+03 
1.649500e-01 5.964626e+03 
1.662200e-01 5.905561e+03 
1.674000e-01 5.850513e+03 
1.685000e-01 5.800049e+03 
1.697500e-01 5.743320e+03 
1.710300e-01 5.685927e+03 
1.722200e-01 5.633509e+03 
1.734400e-01 5.579767e+03 
1.746400e-01 5.527767e+03 
1.758700e-01 5.475333e+03 
1.770900e-01 5.424129e+03 
1.782700e-01 5.375423e+03 
1.794600e-01 5.327152e+03 
1.807000e-01 5.277717e+03 
1.819100e-01 5.230277e+03 
1.830100e-01 5.188213e+03 
1.842200e-01 5.142723e+03 
1.855000e-01 5.095441e+03 
1.867000e-01 5.052892e+03 
1.879200e-01 5.010317e+03 
1.890900e-01 4.970187e+03 
1.902800e-01 4.930340e+03 
1.915200e-01 4.889463e+03 
1.926900e-01 4.851768e+03 
1.939000e-01 4.814290e+03 
1.951700e-01 4.775566e+03 
1.963100e-01 4.741401e+03 
1.975100e-01 4.706159e+03 
1.987800e-01 4.669427e+03 
2.000100e-01 4.634423e+03 
2.012500e-01 4.599729e+03 
2.023400e-01 4.569661e+03 
2.036100e-01 4.535173e+03 
2.048900e-01 4.501135e+03 
2.060400e-01 4.470994e+03 
2.072200e-01 4.440482e+03 
2.084200e-01 4.409754e+03 
2.096900e-01 4.377703e+03 
2.109200e-01 4.347111e+03 
2.121100e-01 4.317461e+03 
2.132700e-01 4.288925e+03 
2.145200e-01 4.258597e+03 
2.157200e-01 4.229586e+03 
2.168800e-01 4.201775e+03 
2.180700e-01 4.173621e+03 
2.193400e-01 4.143825e+03 
2.206000e-01 4.114376e+03 
2.217500e-01 4.087856e+03 
2.229500e-01 4.060539e+03 
2.241400e-01 4.033451e+03 
2.253500e-01 4.006257e+03 
2.264900e-01 3.980962e+03 
2.277100e-01 3.954227e+03 
2.289900e-01 3.926544e+03 
2.301500e-01 3.901782e+03 
2.313600e-01 3.876275e+03 
2.325600e-01 3.851130e+03 
2.337700e-01 3.826096e+03 
2.350000e-01 3.800971e+03 
2.362000e-01 3.776971e+03 
2.374100e-01 3.753312e+03 
2.386500e-01 3.729370e+03 
2.399100e-01 3.705352e+03 
2.410400e-01 3.684306e+03 
2.422500e-01 3.662065e+03 
2.435000e-01 3.639372e+03 
2.447300e-01 3.617401e+03 
2.458700e-01 3.597605e+03 
2.470600e-01 3.577179e+03 
2.483300e-01 3.555644e+03 
2.495600e-01 3.535206e+03 
2.507600e-01 3.515724e+03 
2.519600e-01 3.496470e+03 
2.532200e-01 3.476495e+03 
2.543700e-01 3.458668e+03 
2.555500e-01 3.440712e+03 
2.568000e-01 3.421911e+03 
2.580100e-01 3.403926e+03 
2.592400e-01 3.385918e+03 
2.604100e-01 3.369011e+03 
2.616100e-01 3.351863e+03 
2.628400e-01 3.334487e+03 
2.640600e-01 3.317681e+03 
2.652200e-01 3.301970e+03 
2.664300e-01 3.285761e+03 
2.676500e-01 3.269601e+03 
2.688400e-01 3.253849e+03 
2.700700e-01 3.237643e+03 
2.712400e-01 3.222396e+03 
2.724800e-01 3.206413e+03 
2.736700e-01 3.191184e+03 
2.748800e-01 3.175805e+03 
2.761000e-01 3.160467e+03 
2.773200e-01 3.145295e+03 
2.785400e-01 3.130283e+03 
2.797000e-01 3.116150e+03 
2.808900e-01 3.101801e+03 
2.821400e-01 3.086889e+03 
2.833900e-01 3.072127e+03 
2.845500e-01 3.058299e+03 
2.857800e-01 3.043786e+03 
2.870300e-01 3.029195e+03 
2.882100e-01 3.015563e+03 
2.893900e-01 3.001982e+03 
2.906300e-01 2.987810e+03 
2.918900e-01 2.973561e+03 
2.930500e-01 2.960576e+03 
2.942500e-01 2.947251e+03 
2.954200e-01 2.934308e+03 
2.966500e-01 2.920837e+03 
2.978900e-01 2.907394e+03 
2.990400e-01 2.895050e+03 
3.002700e-01 2.881901e+03 
3.015100e-01 2.868744e+03 
3.026800e-01 2.856451e+03 
3.038500e-01 2.844274e+03 
3.050300e-01 2.832108e+03 
3.062600e-01 2.819447e+03 
3.075000e-01 2.806809e+03 
3.087000e-01 2.794698e+03 
3.099100e-01 2.782602e+03 
3.111200e-01 2.770600e+03 
3.123100e-01 2.758868e+03 
3.135300e-01 2.746954e+03 
3.147300e-01 2.735347e+03 
3.159900e-01 2.723275e+03 
3.171800e-01 2.712088e+03 
3.183700e-01 2.701073e+03 
3.196300e-01 2.689520e+03 
3.208400e-01 2.678530e+03 
3.220300e-01 2.667822e+03 
3.232000e-01 2.657239e+03 
3.244300e-01 2.646156e+03 
3.256700e-01 2.635087e+03 
3.269200e-01 2.624034e+03 
3.280800e-01 2.613869e+03 
3.292500e-01 2.603845e+03 
3.304800e-01 2.593445e+03 
3.317100e-01 2.583140e+03 
3.328900e-01 2.573342e+03 
3.340700e-01 2.563630e+03 
3.353600e-01 2.553131e+03 
3.365300e-01 2.543704e+03 
3.377100e-01 2.534278e+03 
3.389200e-01 2.524697e+03 
3.401600e-01 2.514965e+03 
3.413700e-01 2.505571e+03 
3.425300e-01 2.496653e+03 
3.437700e-01 2.487203e+03 
3.449800e-01 2.478063e+03 
3.461800e-01 2.469076e+03 
3.473600e-01 2.460301e+03 
3.485800e-01 2.451274e+03 
3.498100e-01 2.442252e+03 
3.510200e-01 2.433453e+03 
3.522000e-01 2.424945e+03 
3.533900e-01 2.416435e+03 
3.546400e-01 2.407670e+03 
3.558400e-01 2.399333e+03 
3.570600e-01 2.390928e+03 
3.582700e-01 2.382662e+03 
3.595000e-01 2.374330e+03 
3.607100e-01 2.366213e+03 
3.618900e-01 2.358371e+03 
3.631200e-01 2.350263e+03 
3.643200e-01 2.342420e+03 
3.655500e-01 2.334446e+03 
3.667300e-01 2.326859e+03 
3.679500e-01 2.319069e+03 
3.691900e-01 2.311216e+03 
3.703600e-01 2.303867e+03 
3.715700e-01 2.296327e+03 
3.727700e-01 2.288910e+03 
3.739900e-01 2.281445e+03 
3.752000e-01 2.274125e+03 
3.763900e-01 2.266984e+03 
3.775800e-01 2.259900e+03 
3.788200e-01 2.252577e+03 
3.800300e-01 2.245489e+03 
3.812100e-01 2.238574e+03 
3.824200e-01 2.231500e+03 
3.836100e-01 2.224597e+03 
3.848600e-01 2.217404e+03 
3.860400e-01 2.210667e+03 
3.872400e-01 2.203868e+03 
3.884600e-01 2.197008e+03 
3.896500e-01 2.190367e+03 
3.908700e-01 2.183612e+03 
3.920600e-01 2.177073e+03 
3.933100e-01 2.170258e+03 
3.945300e-01 2.163659e+03 
3.957200e-01 2.157281e+03 
3.969300e-01 2.150848e+03 
3.981700e-01 2.144307e+03 
3.993500e-01 2.138129e+03 
4.094840e-01 2.086384e+03 
4.272360e-01 2.001996e+03 
4.454600e-01 1.921802e+03 
4.630560e-01 1.850414e+03 
4.804610e-01 1.784419e+03 
4.980690e-01 1.722102e+03 
5.159230e-01 1.663027e+03 
5.317440e-01 1.613600e+03 
5.489640e-01 1.563027e+03 
5.671990e-01 1.512398e+03 
5.838690e-01 1.468694e+03 
6.018840e-01 1.424066e+03 
6.202330e-01 1.381029e+03 
6.379250e-01 1.341752e+03 
6.545410e-01 1.306375e+03 
6.714560e-01 1.272000e+03 
6.892080e-01 1.237412e+03 
7.066010e-01 1.205021e+03 
7.240540e-01 1.173901e+03 
7.420450e-01 1.142826e+03 
7.593780e-01 1.114257e+03 
7.764720e-01 1.087019e+03 
7.942840e-01 1.059757e+03 
8.116170e-01 1.034044e+03 
8.288310e-01 1.009387e+03 
8.462240e-01 9.852557e+02 
8.631980e-01 9.625786e+02 
8.810700e-01 9.393894e+02 
8.989410e-01 9.170320e+02 
9.166330e-01 8.955544e+02 
9.345640e-01 8.744655e+02 
9.515980e-01 8.550582e+02 
9.688720e-01 8.359095e+02 
9.865640e-01 8.168586e+02 
1.031870e+00 7.708916e+02 
1.063490e+00 7.407957e+02 
1.097920e+00 7.097310e+02 
1.134370e+00 6.787523e+02 
1.167730e+00 6.520511e+02 
1.203830e+00 6.247163e+02 
1.240470e+00 5.985710e+02 
1.275790e+00 5.747073e+02 
1.309140e+00 5.534076e+02 
1.342970e+00 5.328934e+02 
1.378420e+00 5.125173e+02 
1.413200e+00 4.935609e+02 
1.448110e+00 4.754760e+02 
1.484090e+00 4.577964e+02 
1.518820e+00 4.415696e+02 
1.552880e+00 4.264532e+02 
1.588630e+00 4.113698e+02 
1.623230e+00 3.974745e+02 
1.657720e+00 3.842982e+02 
1.692450e+00 3.716289e+02 
1.726400e+00 3.598011e+02 
1.762200e+00 3.478843e+02 
1.797880e+00 3.365633e+02 
1.833270e+00 3.258656e+02 
1.869070e+00 3.154979e+02 
1.903200e+00 3.060722e+02 
1.937740e+00 2.969226e+02 
1.973190e+00 2.879224e+02 
2.007440e+00 2.795991e+02 
2.042160e+00 2.715267e+02 
2.077900e+00 2.635134e+02 
2.112390e+00 2.561256e+02 
2.146220e+00 2.491585e+02 
2.181600e+00 2.421438e+02 
2.216930e+00 2.354416e+02 
2.250760e+00 2.292541e+02 
2.286500e+00 2.229551e+02 
2.321770e+00 2.169926e+02 
2.355950e+00 2.114228e+02 
2.391280e+00 2.059012e+02 
2.426240e+00 2.006123e+02 
2.460670e+00 1.955877e+02 
2.495640e+00 1.906804e+02 
2.531080e+00 1.858743e+02 
2.566220e+00 1.812729e+02 
2.600830e+00 1.769059e+02 
2.635080e+00 1.727429e+02 
2.670340e+00 1.685907e+02 
2.705970e+00 1.645360e+02 
2.740040e+00 1.607850e+02 
2.774520e+00 1.571048e+02 
2.809730e+00 1.534820e+02 
2.844390e+00 1.500343e+02 
2.879960e+00 1.466043e+02 
2.914860e+00 1.433421e+02 
2.949410e+00 1.402143e+02 
2.984440e+00 1.371505e+02 
3.019760e+00 1.341542e+02 
3.054730e+00 1.312769e+02 
3.089030e+00 1.285351e+02 
3.124060e+00 1.258167e+02 
3.159560e+00 1.231423e+02 
3.194710e+00 1.205801e+02 
3.229010e+00 1.181539e+02 
3.263320e+00 1.157913e+02 
3.297930e+00 1.134786e+02 
3.332830e+00 1.112193e+02 
3.368040e+00 1.090015e+02 
3.403300e+00 1.068409e+02 
3.438450e+00 1.047446e+02 
3.473060e+00 1.027359e+02 
3.508440e+00 1.007464e+02 
3.543110e+00 9.884862e+01 
3.577470e+00 9.701467e+01 
3.613040e+00 9.516796e+01 
3.648120e+00 9.340046e+01 
3.682910e+00 9.169165e+01 
3.718050e+00 9.000788e+01 
3.753320e+00 8.836407e+01 
3.787980e+00 8.679382e+01 
3.822290e+00 8.527671e+01 
3.857020e+00 8.377717e+01 
3.891920e+00 8.230628e+01 
3.926650e+00 8.087667e+01 
3.961970e+00 7.945966e+01 
3.997360e+00 7.807863e+01 
4.031670e+00 7.677250e+01 
4.066330e+00 7.548882e+01 
4.101420e+00 7.421928e+01 
4.136200e+00 7.298870e+01 
4.170810e+00 7.179196e+01 
4.206250e+00 7.059881e+01 
4.241580e+00 6.943727e+01 
4.276300e+00 6.832027e+01 
4.310970e+00 6.722884e+01 
4.346120e+00 6.614863e+01 
4.380600e+00 6.511534e+01 
4.414730e+00 6.411429e+01 
4.450350e+00 6.309123e+01 
4.485320e+00 6.210852e+01 
4.519810e+00 6.116268e+01 
4.555430e+00 6.020780e+01 
4.590870e+00 5.927756e+01 
4.625480e+00 5.838724e+01 
4.659910e+00 5.751962e+01 
4.695230e+00 5.665173e+01 
4.729960e+00 5.581633e+01 
4.764450e+00 5.500458e+01 
4.799530e+00 5.419757e+01 
4.834910e+00 5.339999e+01 
4.869700e+00 5.263435e+01 
4.904370e+00 5.188673e+01 
4.939450e+00 5.114468e+01 
4.973940e+00 5.042838e+01 
5.008430e+00 4.972571e+01 
5.043810e+00 4.901842e+01 
5.078840e+00 4.833140e+01 
5.113500e+00 4.766446e+01 
5.148890e+00 4.700272e+01 
5.184210e+00 4.635500e+01 
5.219060e+00 4.572757e+01 
5.253660e+00 4.511544e+01 
5.288570e+00 4.450907e+01 
5.323420e+00 4.391454e+01 
5.358440e+00 4.332768e+01 
5.393590e+00 4.274929e+01 
5.428310e+00 4.219199e+01 
5.462800e+00 4.165010e+01 
5.497640e+00 4.111227e+01 
5.532670e+00 4.058034e+01 
5.567280e+00 4.006370e+01 
5.602000e+00 3.955433e+01 
5.637270e+00 3.904556e+01 
5.672410e+00 3.854737e+01 
5.707020e+00 3.806504e+01 
5.742040e+00 3.758715e+01 
5.777430e+00 3.711281e+01 
5.812210e+00 3.665448e+01 
5.846820e+00 3.620740e+01 
5.881610e+00 3.576575e+01 
5.916510e+00 3.532998e+01 
5.951600e+00 3.489875e+01 
5.986560e+00 3.447600e+01 
6.021830e+00 3.405647e+01 
6.056490e+00 3.365301e+01 
6.091160e+00 3.325768e+01 
6.125830e+00 3.286860e+01 
6.161090e+00 3.247840e+01 
6.195760e+00 3.209917e+01 
6.230420e+00 3.172596e+01 
6.265690e+00 3.135220e+01 
6.300950e+00 3.098608e+01 
6.335620e+00 3.063166e+01 
6.370880e+00 3.027675e+01 
6.405550e+00 2.993423e+01 
6.440220e+00 2.959732e+01 
6.475480e+00 2.925987e+01 
6.510150e+00 2.893299e+01 
6.544810e+00 2.861089e+01 
6.580080e+00 2.828803e+01 
6.614750e+00 2.797539e+01 
6.649410e+00 2.766874e+01 
6.684080e+00 2.736674e+01 
6.719340e+00 2.706410e+01 
6.754010e+00 2.677078e+01 
6.788680e+00 2.648147e+01 
6.823940e+00 2.619150e+01 
6.859800e+00 2.590091e+01 
6.894470e+00 2.562495e+01 
6.929140e+00 2.535322e+01 
6.963800e+00 2.508539e+01 
6.999070e+00 2.481669e+01 
7.033730e+00 2.455627e+01 
7.068400e+00 2.429939e+01 
7.103660e+00 2.404179e+01 
7.138330e+00 2.379242e+01 
7.173600e+00 2.354306e+01 
7.208260e+00 2.330139e+01 
7.243530e+00 2.305884e+01 
7.277600e+00 2.282767e+01 
7.312860e+00 2.259161e+01 
7.348120e+00 2.235878e+01 
7.382790e+00 2.213293e+01 
7.417460e+00 2.191077e+01 
7.452720e+00 2.168822e+01 
7.487390e+00 2.147230e+01 
7.522650e+00 2.125560e+01 
7.557320e+00 2.104529e+01 
7.591990e+00 2.083769e+01 
7.627250e+00 2.062933e+01 
7.662510e+00 2.042370e+01 
7.697180e+00 2.022410e+01 
7.731850e+00 2.002705e+01 
7.766510e+00 1.983258e+01 
7.801180e+00 1.964053e+01 
7.836440e+00 1.944837e+01 
7.871110e+00 1.926224e+01 
7.906380e+00 1.907528e+01 
7.941040e+00 1.889388e+01 
7.976310e+00 1.871111e+01 
8.011570e+00 1.853011e+01 
8.046240e+00 1.835437e+01 
8.080900e+00 1.818085e+01 
8.115570e+00 1.800981e+01 
8.150830e+00 1.783950e+01 
8.185500e+00 1.767409e+01 
8.220770e+00 1.750788e+01 
8.255430e+00 1.734654e+01 
8.290100e+00 1.718645e+01 
8.324770e+00 1.702821e+01 
8.359430e+00 1.687191e+01 
8.394700e+00 1.671477e+01 
8.429960e+00 1.655995e+01 
8.464630e+00 1.640991e+01 
8.499890e+00 1.625913e+01 
8.534560e+00 1.611263e+01 
8.569200e+00 1.596796e+01 
