# Parameters:
# omega_b = 0.022083, omega_m = 0.147559, n_s = 0.894094, h = 82.874016, w = -1.000000, sigma_8 = 0.778740
# z = 0.100000
#
# k[1/Mpc] # P(k):
8.694000e-04 1.229761e+04 
2.077466e-03 2.479020e+04 
3.285532e-03 3.418254e+04 
4.493598e-03 4.121814e+04 
5.701664e-03 4.632864e+04 
6.909730e-03 4.987288e+04 
8.117797e-03 5.221698e+04 
9.325863e-03 5.355124e+04 
1.053393e-02 5.405438e+04 
1.174199e-02 5.388744e+04 
1.295006e-02 5.315455e+04 
1.415813e-02 5.199190e+04 
1.536619e-02 5.051410e+04 
1.657426e-02 4.888966e+04 
1.778233e-02 4.747677e+04 
1.899039e-02 4.614532e+04 
2.019846e-02 4.433106e+04 
2.140652e-02 4.215579e+04 
2.261459e-02 3.994986e+04 
2.382266e-02 3.785312e+04 
2.503072e-02 3.590314e+04 
2.623879e-02 3.410833e+04 
2.744685e-02 3.247222e+04 
2.865492e-02 3.099492e+04 
2.986299e-02 2.966982e+04 
3.100100e-02 2.855719e+04 
3.220400e-02 2.751362e+04 
3.288100e-02 2.698471e+04 
3.424300e-02 2.603237e+04 
3.555100e-02 2.523884e+04 
3.686000e-02 2.454736e+04 
3.795000e-02 2.403882e+04 
3.929100e-02 2.347865e+04 
4.039800e-02 2.305240e+04 
4.164000e-02 2.260713e+04 
4.294400e-02 2.214715e+04 
4.415000e-02 2.172989e+04 
4.542900e-02 2.126710e+04 
4.660900e-02 2.083068e+04 
4.782300e-02 2.033720e+04 
4.892900e-02 1.987295e+04 
5.031200e-02 1.925505e+04 
5.155900e-02 1.866178e+04 
5.238100e-02 1.825767e+04 
5.378200e-02 1.755346e+04 
5.513400e-02 1.685839e+04 
5.627600e-02 1.626711e+04 
5.735300e-02 1.571607e+04 
5.870100e-02 1.504370e+04 
5.988700e-02 1.447598e+04 
6.113500e-02 1.390544e+04 
6.225900e-02 1.342217e+04 
6.340100e-02 1.296233e+04 
6.480200e-02 1.244035e+04 
6.601100e-02 1.203463e+04 
6.725500e-02 1.165661e+04 
6.829100e-02 1.137529e+04 
6.958600e-02 1.105383e+04 
7.071100e-02 1.080735e+04 
7.192300e-02 1.056959e+04 
7.307400e-02 1.036619e+04 
7.412300e-02 1.019791e+04 
7.550400e-02 1.000101e+04 
7.663100e-02 9.853900e+03 
7.791200e-02 9.699839e+03 
7.912700e-02 9.563273e+03 
8.027600e-02 9.439190e+03 
8.138400e-02 9.322432e+03 
8.272200e-02 9.182564e+03 
8.406100e-02 9.040586e+03 
8.534100e-02 8.901141e+03 
8.653800e-02 8.765511e+03 
8.759800e-02 8.643201e+03 
8.900300e-02 8.476353e+03 
9.009000e-02 8.340976e+03 
9.113300e-02 8.207466e+03 
9.239600e-02 8.043794e+03 
9.358000e-02 7.886089e+03 
9.496100e-02 7.697238e+03 
9.608400e-02 7.543053e+03 
9.727500e-02 7.380175e+03 
9.852600e-02 7.206332e+03 
9.973800e-02 7.042144e+03 
1.009000e-01 6.888685e+03 
1.020900e-01 6.734320e+03 
1.034000e-01 6.570686e+03 
1.046000e-01 6.426630e+03 
1.057200e-01 6.300165e+03 
1.069100e-01 6.171490e+03 
1.082500e-01 6.037072e+03 
1.093900e-01 5.930749e+03 
1.105400e-01 5.829043e+03 
1.116900e-01 5.737498e+03 
1.129600e-01 5.641751e+03 
1.142000e-01 5.557715e+03 
1.153300e-01 5.485331e+03 
1.166400e-01 5.407066e+03 
1.177800e-01 5.343965e+03 
1.190000e-01 5.279607e+03 
1.201200e-01 5.222902e+03 
1.213400e-01 5.162767e+03 
1.227100e-01 5.096909e+03 
1.238900e-01 5.041127e+03 
1.250700e-01 4.984844e+03 
1.263200e-01 4.925733e+03 
1.275500e-01 4.866965e+03 
1.287500e-01 4.809181e+03 
1.299900e-01 4.748031e+03 
1.311300e-01 4.691773e+03 
1.323500e-01 4.630944e+03 
1.335900e-01 4.569018e+03 
1.347100e-01 4.512315e+03 
1.359800e-01 4.448541e+03 
1.372100e-01 4.386410e+03 
1.384300e-01 4.325491e+03 
1.395700e-01 4.268192e+03 
1.407700e-01 4.209079e+03 
1.420300e-01 4.147617e+03 
1.432800e-01 4.088006e+03 
1.444500e-01 4.033023e+03 
1.456300e-01 3.978715e+03 
1.468900e-01 3.922781e+03 
1.480500e-01 3.872604e+03 
1.491700e-01 3.825519e+03 
1.503800e-01 3.776184e+03 
1.516400e-01 3.726285e+03 
1.528200e-01 3.682302e+03 
1.540200e-01 3.638439e+03 
1.551900e-01 3.598038e+03 
1.564300e-01 3.556415e+03 
1.576600e-01 3.516628e+03 
1.588700e-01 3.479072e+03 
1.600900e-01 3.441973e+03 
1.612700e-01 3.407850e+03 
1.625400e-01 3.371804e+03 
1.637600e-01 3.338363e+03 
1.649500e-01 3.306644e+03 
1.662200e-01 3.273394e+03 
1.674000e-01 3.242979e+03 
1.685000e-01 3.215097e+03 
1.697500e-01 3.183786e+03 
1.710300e-01 3.152140e+03 
1.722200e-01 3.123237e+03 
1.734400e-01 3.093213e+03 
1.746400e-01 3.064146e+03 
1.758700e-01 3.034608e+03 
1.770900e-01 3.005296e+03 
1.782700e-01 2.977416e+03 
1.794600e-01 2.949309e+03 
1.807000e-01 2.920205e+03 
1.819100e-01 2.892279e+03 
1.830100e-01 2.866916e+03 
1.842200e-01 2.839386e+03 
1.855000e-01 2.810750e+03 
1.867000e-01 2.784342e+03 
1.879200e-01 2.757923e+03 
1.890900e-01 2.732956e+03 
1.902800e-01 2.707802e+03 
1.915200e-01 2.682005e+03 
1.926900e-01 2.658153e+03 
1.939000e-01 2.634219e+03 
1.951700e-01 2.609494e+03 
1.963100e-01 2.587673e+03 
1.975100e-01 2.565136e+03 
1.987800e-01 2.541651e+03 
2.000100e-01 2.519306e+03 
2.012500e-01 2.497232e+03 
2.023400e-01 2.478105e+03 
2.036100e-01 2.456216e+03 
2.048900e-01 2.434795e+03 
2.060400e-01 2.415829e+03 
2.072200e-01 2.396655e+03 
2.084200e-01 2.377637e+03 
2.096900e-01 2.357802e+03 
2.109200e-01 2.338872e+03 
2.121100e-01 2.320900e+03 
2.132700e-01 2.303624e+03 
2.145200e-01 2.285265e+03 
2.157200e-01 2.267976e+03 
2.168800e-01 2.251529e+03 
2.180700e-01 2.234880e+03 
2.193400e-01 2.217410e+03 
2.206000e-01 2.200419e+03 
2.217500e-01 2.185119e+03 
2.229500e-01 2.169360e+03 
2.241400e-01 2.154107e+03 
2.253500e-01 2.138805e+03 
2.264900e-01 2.124571e+03 
2.277100e-01 2.109674e+03 
2.289900e-01 2.094410e+03 
2.301500e-01 2.080757e+03 
2.313600e-01 2.066696e+03 
2.325600e-01 2.053031e+03 
2.337700e-01 2.039426e+03 
2.350000e-01 2.025772e+03 
2.362000e-01 2.012748e+03 
2.374100e-01 1.999934e+03 
2.386500e-01 1.986966e+03 
2.399100e-01 1.973957e+03 
2.410400e-01 1.962477e+03 
2.422500e-01 1.950335e+03 
2.435000e-01 1.937947e+03 
2.447300e-01 1.925913e+03 
2.458700e-01 1.914909e+03 
2.470600e-01 1.903556e+03 
2.483300e-01 1.891586e+03 
2.495600e-01 1.880112e+03 
2.507600e-01 1.869021e+03 
2.519600e-01 1.858058e+03 
2.532200e-01 1.846684e+03 
2.543700e-01 1.836391e+03 
2.555500e-01 1.825924e+03 
2.568000e-01 1.814965e+03 
2.580100e-01 1.804480e+03 
2.592400e-01 1.793850e+03 
2.604100e-01 1.783811e+03 
2.616100e-01 1.773629e+03 
2.628400e-01 1.763311e+03 
2.640600e-01 1.753238e+03 
2.652200e-01 1.743785e+03 
2.664300e-01 1.734031e+03 
2.676500e-01 1.724306e+03 
2.688400e-01 1.714814e+03 
2.700700e-01 1.705042e+03 
2.712400e-01 1.695847e+03 
2.724800e-01 1.686208e+03 
2.736700e-01 1.677030e+03 
2.748800e-01 1.667769e+03 
2.761000e-01 1.658532e+03 
2.773200e-01 1.649394e+03 
2.785400e-01 1.640362e+03 
2.797000e-01 1.631879e+03 
2.808900e-01 1.623266e+03 
2.821400e-01 1.614314e+03 
2.833900e-01 1.605454e+03 
2.845500e-01 1.597221e+03 
2.857800e-01 1.588580e+03 
2.870300e-01 1.579891e+03 
2.882100e-01 1.571774e+03 
2.893900e-01 1.563716e+03 
2.906300e-01 1.555324e+03 
2.918900e-01 1.546885e+03 
2.930500e-01 1.539195e+03 
2.942500e-01 1.531313e+03 
2.954200e-01 1.523690e+03 
2.966500e-01 1.515756e+03 
2.978900e-01 1.507838e+03 
2.990400e-01 1.500567e+03 
3.002700e-01 1.492845e+03 
3.015100e-01 1.485129e+03 
3.026800e-01 1.477919e+03 
3.038500e-01 1.470778e+03 
3.050300e-01 1.463643e+03 
3.062600e-01 1.456268e+03 
3.075000e-01 1.448906e+03 
3.087000e-01 1.441850e+03 
3.099100e-01 1.434804e+03 
3.111200e-01 1.427815e+03 
3.123100e-01 1.420989e+03 
3.135300e-01 1.414057e+03 
3.147300e-01 1.407303e+03 
3.159900e-01 1.400279e+03 
3.171800e-01 1.393763e+03 
3.183700e-01 1.387343e+03 
3.196300e-01 1.380609e+03 
3.208400e-01 1.374203e+03 
3.220300e-01 1.367961e+03 
3.232000e-01 1.361829e+03 
3.244300e-01 1.355421e+03 
3.256700e-01 1.349021e+03 
3.269200e-01 1.342629e+03 
3.280800e-01 1.336751e+03 
3.292500e-01 1.330941e+03 
3.304800e-01 1.324909e+03 
3.317100e-01 1.318931e+03 
3.328900e-01 1.313248e+03 
3.340700e-01 1.307613e+03 
3.353600e-01 1.301534e+03 
3.365300e-01 1.296079e+03 
3.377100e-01 1.290624e+03 
3.389200e-01 1.285079e+03 
3.401600e-01 1.279446e+03 
3.413700e-01 1.274015e+03 
3.425300e-01 1.268865e+03 
3.437700e-01 1.263406e+03 
3.449800e-01 1.258125e+03 
3.461800e-01 1.252933e+03 
3.473600e-01 1.247865e+03 
3.485800e-01 1.242654e+03 
3.498100e-01 1.237445e+03 
3.510200e-01 1.232365e+03 
3.522000e-01 1.227452e+03 
3.533900e-01 1.222538e+03 
3.546400e-01 1.217497e+03 
3.558400e-01 1.212703e+03 
3.570600e-01 1.207869e+03 
3.582700e-01 1.203115e+03 
3.595000e-01 1.198323e+03 
3.607100e-01 1.193660e+03 
3.618900e-01 1.189159e+03 
3.631200e-01 1.184505e+03 
3.643200e-01 1.180003e+03 
3.655500e-01 1.175425e+03 
3.667300e-01 1.171068e+03 
3.679500e-01 1.166622e+03 
3.691900e-01 1.162141e+03 
3.703600e-01 1.157945e+03 
3.715700e-01 1.153641e+03 
3.727700e-01 1.149406e+03 
3.739900e-01 1.145143e+03 
3.752000e-01 1.140962e+03 
3.763900e-01 1.136884e+03 
3.775800e-01 1.132836e+03 
3.788200e-01 1.128652e+03 
3.800300e-01 1.124602e+03 
3.812100e-01 1.120671e+03 
3.824200e-01 1.116665e+03 
3.836100e-01 1.112754e+03 
3.848600e-01 1.108679e+03 
3.860400e-01 1.104861e+03 
3.872400e-01 1.101008e+03 
3.884600e-01 1.097137e+03 
3.896500e-01 1.093396e+03 
3.908700e-01 1.089589e+03 
3.920600e-01 1.085904e+03 
3.933100e-01 1.082062e+03 
3.945300e-01 1.078342e+03 
3.957200e-01 1.074751e+03 
3.969300e-01 1.071130e+03 
3.981700e-01 1.067447e+03 
3.993500e-01 1.063968e+03 
4.094840e-01 1.035016e+03 
4.272360e-01 9.883268e+02 
4.454600e-01 9.445524e+02 
4.630560e-01 9.059831e+02 
4.804610e-01 8.707931e+02 
4.980690e-01 8.378844e+02 
5.159230e-01 8.070358e+02 
5.317440e-01 7.814494e+02 
5.489640e-01 7.555563e+02 
5.671990e-01 7.299750e+02 
5.838690e-01 7.081263e+02 
6.018840e-01 6.860576e+02 
6.202330e-01 6.650906e+02 
6.379250e-01 6.461383e+02 
6.545410e-01 6.293341e+02 
6.714560e-01 6.131554e+02 
6.892080e-01 5.971031e+02 
7.066010e-01 5.822239e+02 
7.240540e-01 5.680637e+02 
7.420450e-01 5.541027e+02 
7.593780e-01 5.413834e+02 
7.764720e-01 5.293462e+02 
7.942840e-01 5.174018e+02 
8.116170e-01 5.062024e+02 
8.288310e-01 4.955409e+02 
8.462240e-01 4.851516e+02 
8.631980e-01 4.754395e+02 
8.810700e-01 4.655355e+02 
8.989410e-01 4.560095e+02 
9.166330e-01 4.468788e+02 
9.345640e-01 4.379276e+02 
9.515980e-01 4.296889e+02 
9.688720e-01 4.215669e+02 
9.865640e-01 4.134747e+02 
1.031870e+00 3.939309e+02 
1.063490e+00 3.810714e+02 
1.097920e+00 3.677447e+02 
1.134370e+00 3.543584e+02 
1.167730e+00 3.427488e+02 
1.203830e+00 3.307680e+02 
1.240470e+00 3.192265e+02 
1.275790e+00 3.085969e+02 
1.309140e+00 2.990326e+02 
1.342970e+00 2.897460e+02 
1.378420e+00 2.804529e+02 
1.413200e+00 2.717235e+02 
1.448110e+00 2.633292e+02 
1.484090e+00 2.550542e+02 
1.518820e+00 2.473959e+02 
1.552880e+00 2.402013e+02 
1.588630e+00 2.329724e+02 
1.623230e+00 2.262598e+02 
1.657720e+00 2.198523e+02 
1.692450e+00 2.136501e+02 
1.726400e+00 2.078087e+02 
1.762200e+00 2.018853e+02 
1.797880e+00 1.962152e+02 
1.833270e+00 1.908266e+02 
1.869070e+00 1.855626e+02 
1.903200e+00 1.807505e+02 
1.937740e+00 1.760511e+02 
1.973190e+00 1.713992e+02 
2.007440e+00 1.670728e+02 
2.042160e+00 1.628535e+02 
2.077900e+00 1.586381e+02 
2.112390e+00 1.547347e+02 
2.146220e+00 1.510303e+02 
2.181600e+00 1.472809e+02 
2.216930e+00 1.436820e+02 
2.250760e+00 1.403422e+02 
2.286500e+00 1.369252e+02 
2.321770e+00 1.336765e+02 
2.355950e+00 1.306276e+02 
2.391280e+00 1.275909e+02 
2.426240e+00 1.246677e+02 
2.460670e+00 1.218792e+02 
2.495640e+00 1.191461e+02 
2.531080e+00 1.164550e+02 
2.566220e+00 1.138679e+02 
2.600830e+00 1.114041e+02 
2.635080e+00 1.090483e+02 
2.670340e+00 1.066862e+02 
2.705970e+00 1.043714e+02 
2.740040e+00 1.022228e+02 
2.774520e+00 1.001061e+02 
2.809730e+00 9.801551e+01 
2.844390e+00 9.602032e+01 
2.879960e+00 9.402746e+01 
2.914860e+00 9.212515e+01 
2.949410e+00 9.029665e+01 
2.984440e+00 8.849939e+01 
3.019760e+00 8.673625e+01 
3.054730e+00 8.503896e+01 
3.089030e+00 8.341420e+01 
3.124060e+00 8.179969e+01 
3.159560e+00 8.020672e+01 
3.194710e+00 7.867604e+01 
3.229010e+00 7.722399e+01 
3.263320e+00 7.580454e+01 
3.297930e+00 7.441259e+01 
3.332830e+00 7.304904e+01 
3.368040e+00 7.170711e+01 
3.403300e+00 7.039697e+01 
3.438450e+00 6.912163e+01 
3.473060e+00 6.789788e+01 
3.508440e+00 6.668170e+01 
3.543110e+00 6.552008e+01 
3.577470e+00 6.439395e+01 
3.613040e+00 6.325840e+01 
3.648120e+00 6.216879e+01 
3.682910e+00 6.111365e+01 
3.718050e+00 6.007144e+01 
3.753320e+00 5.905223e+01 
3.787980e+00 5.807649e+01 
3.822290e+00 5.713216e+01 
3.857020e+00 5.619670e+01 
3.891920e+00 5.527774e+01 
3.926650e+00 5.438268e+01 
3.961970e+00 5.349433e+01 
3.997360e+00 5.262659e+01 
4.031670e+00 5.180505e+01 
4.066330e+00 5.099584e+01 
4.101420e+00 5.019494e+01 
4.136200e+00 4.941648e+01 
4.170810e+00 4.865894e+01 
4.206250e+00 4.790211e+01 
4.241580e+00 4.716467e+01 
4.276300e+00 4.645413e+01 
4.310970e+00 4.575892e+01 
4.346120e+00 4.507003e+01 
4.380600e+00 4.441000e+01 
4.414730e+00 4.377015e+01 
4.450350e+00 4.311468e+01 
4.485320e+00 4.248469e+01 
4.519810e+00 4.187737e+01 
4.555430e+00 4.126361e+01 
4.590870e+00 4.066505e+01 
4.625480e+00 4.009127e+01 
4.659910e+00 3.953179e+01 
4.695230e+00 3.897118e+01 
4.729960e+00 3.843115e+01 
4.764450e+00 3.790587e+01 
4.799530e+00 3.738296e+01 
4.834910e+00 3.686587e+01 
4.869700e+00 3.636874e+01 
4.904370e+00 3.588298e+01 
4.939450e+00 3.540042e+01 
4.973940e+00 3.493397e+01 
5.008430e+00 3.447615e+01 
5.043810e+00 3.401468e+01 
5.078840e+00 3.356597e+01 
5.113500e+00 3.313015e+01 
5.148890e+00 3.269734e+01 
5.184210e+00 3.227349e+01 
5.219060e+00 3.186256e+01 
5.253660e+00 3.146108e+01 
5.288570e+00 3.106318e+01 
5.323420e+00 3.067266e+01 
5.358440e+00 3.028678e+01 
5.393590e+00 2.990627e+01 
5.428310e+00 2.953935e+01 
5.462800e+00 2.918235e+01 
5.497640e+00 2.882786e+01 
5.532670e+00 2.847683e+01 
5.567280e+00 2.813566e+01 
5.602000e+00 2.779913e+01 
5.637270e+00 2.746257e+01 
5.672410e+00 2.713279e+01 
5.707020e+00 2.681336e+01 
5.742040e+00 2.649661e+01 
5.777430e+00 2.618204e+01 
5.812210e+00 2.587794e+01 
5.846820e+00 2.558102e+01 
5.881610e+00 2.528753e+01 
5.916510e+00 2.499782e+01 
5.951600e+00 2.471081e+01 
5.986560e+00 2.442924e+01 
6.021830e+00 2.414968e+01 
6.056490e+00 2.388071e+01 
6.091160e+00 2.361704e+01 
6.125830e+00 2.335742e+01 
6.161090e+00 2.309686e+01 
6.195760e+00 2.284333e+01 
6.230420e+00 2.259371e+01 
6.265690e+00 2.234360e+01 
6.300950e+00 2.209838e+01 
6.335620e+00 2.186088e+01 
6.370880e+00 2.162296e+01 
6.405550e+00 2.139317e+01 
6.440220e+00 2.116704e+01 
6.475480e+00 2.094045e+01 
6.510150e+00 2.072080e+01 
6.544810e+00 2.050415e+01 
6.580080e+00 2.028689e+01 
6.614750e+00 2.007641e+01 
6.649410e+00 1.986981e+01 
6.684080e+00 1.966623e+01 
6.719340e+00 1.946213e+01 
6.754010e+00 1.926419e+01 
6.788680e+00 1.906875e+01 
6.823940e+00 1.887278e+01 
6.859800e+00 1.867631e+01 
6.894470e+00 1.848960e+01 
6.929140e+00 1.830566e+01 
6.963800e+00 1.812428e+01 
6.999070e+00 1.794222e+01 
7.033730e+00 1.776558e+01 
7.068400e+00 1.759127e+01 
7.103660e+00 1.741640e+01 
7.138330e+00 1.724700e+01 
7.173600e+00 1.707747e+01 
7.208260e+00 1.691309e+01 
7.243530e+00 1.674804e+01 
7.277600e+00 1.659062e+01 
7.312860e+00 1.642976e+01 
7.348120e+00 1.627103e+01 
7.382790e+00 1.611699e+01 
7.417460e+00 1.596535e+01 
7.452720e+00 1.581335e+01 
7.487390e+00 1.566582e+01 
7.522650e+00 1.551769e+01 
7.557320e+00 1.537378e+01 
7.591990e+00 1.523164e+01 
7.627250e+00 1.508891e+01 
7.662510e+00 1.494799e+01 
7.697180e+00 1.481106e+01 
7.731850e+00 1.467577e+01 
7.766510e+00 1.454220e+01 
7.801180e+00 1.441024e+01 
7.836440e+00 1.427810e+01 
7.871110e+00 1.415003e+01 
7.906380e+00 1.402134e+01 
7.941040e+00 1.389641e+01 
7.976310e+00 1.377042e+01 
8.011570e+00 1.364551e+01 
8.046240e+00 1.352418e+01 
8.080900e+00 1.340433e+01 
8.115570e+00 1.328614e+01 
8.150830e+00 1.316836e+01 
8.185500e+00 1.305393e+01 
8.220770e+00 1.293890e+01 
8.255430e+00 1.282719e+01 
8.290100e+00 1.271617e+01 
8.324770e+00 1.260638e+01 
8.359430e+00 1.249789e+01 
8.394700e+00 1.238878e+01 
8.429960e+00 1.228119e+01 
8.464630e+00 1.217684e+01 
8.499890e+00 1.207193e+01 
8.534560e+00 1.196995e+01 
8.569200e+00 1.186922e+01 
