# Parameters:
# omega_b = 0.022980, omega_m = 0.137362, n_s = 0.975984, h = 57.125984, w = -1.000000, sigma_8 = 0.758268
# z = 0.100000
#
# k[1/Mpc] # P(k):
8.694000e-04 1.615749e+04 
2.077466e-03 3.476147e+04 
3.285532e-03 4.935336e+04 
4.493598e-03 6.057638e+04 
5.701664e-03 6.890362e+04 
6.909730e-03 7.478904e+04 
8.117797e-03 7.875377e+04 
9.325863e-03 8.106970e+04 
1.053393e-02 8.201071e+04 
1.174199e-02 8.183620e+04 
1.295006e-02 8.070896e+04 
1.415813e-02 7.885109e+04 
1.536619e-02 7.645334e+04 
1.657426e-02 7.353315e+04 
1.778233e-02 6.986678e+04 
1.899039e-02 6.592738e+04 
2.019846e-02 6.251240e+04 
2.140652e-02 5.959715e+04 
2.261459e-02 5.687987e+04 
2.382266e-02 5.429088e+04 
2.503072e-02 5.185132e+04 
2.623879e-02 4.957385e+04 
2.744685e-02 4.746317e+04 
2.865492e-02 4.552562e+04 
2.986299e-02 4.375622e+04 
3.100100e-02 4.223724e+04 
3.220400e-02 4.077727e+04 
3.288100e-02 4.001772e+04 
3.424300e-02 3.861284e+04 
3.555100e-02 3.739712e+04 
3.686000e-02 3.629276e+04 
3.795000e-02 3.545023e+04 
3.929100e-02 3.448450e+04 
4.039800e-02 3.373157e+04 
4.164000e-02 3.293449e+04 
4.294400e-02 3.211775e+04 
4.415000e-02 3.139035e+04 
4.542900e-02 3.061963e+04 
4.660900e-02 2.992086e+04 
4.782300e-02 2.918118e+04 
4.892900e-02 2.851456e+04 
5.031200e-02 2.767045e+04 
5.155900e-02 2.689783e+04 
5.238100e-02 2.638661e+04 
5.378200e-02 2.551706e+04 
5.513400e-02 2.467802e+04 
5.627600e-02 2.397202e+04 
5.735300e-02 2.331565e+04 
5.870100e-02 2.251184e+04 
5.988700e-02 2.182616e+04 
6.113500e-02 2.112611e+04 
6.225900e-02 2.052088e+04 
6.340100e-02 1.993067e+04 
6.480200e-02 1.924277e+04 
6.601100e-02 1.868810e+04 
6.725500e-02 1.815322e+04 
6.829100e-02 1.773933e+04 
6.958600e-02 1.725211e+04 
7.071100e-02 1.686423e+04 
7.192300e-02 1.647820e+04 
7.307400e-02 1.613834e+04 
7.412300e-02 1.585062e+04 
7.550400e-02 1.550581e+04 
7.663100e-02 1.524497e+04 
7.791200e-02 1.497030e+04 
7.912700e-02 1.472856e+04 
8.027600e-02 1.451184e+04 
8.138400e-02 1.431119e+04 
8.272200e-02 1.407621e+04 
8.406100e-02 1.384383e+04 
8.534100e-02 1.362209e+04 
8.653800e-02 1.341113e+04 
8.759800e-02 1.322344e+04 
8.900300e-02 1.297104e+04 
9.009000e-02 1.276892e+04 
9.113300e-02 1.257205e+04 
9.239600e-02 1.233279e+04 
9.358000e-02 1.210479e+04 
9.496100e-02 1.183609e+04 
9.608400e-02 1.161926e+04 
9.727500e-02 1.139215e+04 
9.852600e-02 1.115521e+04 
9.973800e-02 1.093359e+04 
1.009000e-01 1.072820e+04 
1.020900e-01 1.052493e+04 
1.034000e-01 1.031013e+04 
1.046000e-01 1.012172e+04 
1.057200e-01 9.956201e+03 
1.069100e-01 9.787121e+03 
1.082500e-01 9.608177e+03 
1.093900e-01 9.464030e+03 
1.105400e-01 9.324549e+03 
1.116900e-01 9.194176e+03 
1.129600e-01 9.055814e+03 
1.142000e-01 8.928833e+03 
1.153300e-01 8.817043e+03 
1.166400e-01 8.692336e+03 
1.177800e-01 8.588585e+03 
1.190000e-01 8.481188e+03 
1.201200e-01 8.384394e+03 
1.213400e-01 8.281343e+03 
1.227100e-01 8.167930e+03 
1.238900e-01 8.072199e+03 
1.250700e-01 7.976890e+03 
1.263200e-01 7.877734e+03 
1.275500e-01 7.781220e+03 
1.287500e-01 7.687751e+03 
1.299900e-01 7.591036e+03 
1.311300e-01 7.503492e+03 
1.323500e-01 7.410939e+03 
1.335900e-01 7.318049e+03 
1.347100e-01 7.234704e+03 
1.359800e-01 7.141830e+03 
1.372100e-01 7.053077e+03 
1.384300e-01 6.966524e+03 
1.395700e-01 6.886282e+03 
1.407700e-01 6.803555e+03 
1.420300e-01 6.718595e+03 
1.432800e-01 6.636133e+03 
1.444500e-01 6.560354e+03 
1.456300e-01 6.485450e+03 
1.468900e-01 6.408006e+03 
1.480500e-01 6.338411e+03 
1.491700e-01 6.272652e+03 
1.503800e-01 6.203180e+03 
1.516400e-01 6.132624e+03 
1.528200e-01 6.069313e+03 
1.540200e-01 6.006151e+03 
1.551900e-01 5.946668e+03 
1.564300e-01 5.885047e+03 
1.576600e-01 5.825409e+03 
1.588700e-01 5.768219e+03 
1.600900e-01 5.711648e+03 
1.612700e-01 5.658284e+03 
1.625400e-01 5.601910e+03 
1.637600e-01 5.549054e+03 
1.649500e-01 5.498589e+03 
1.662200e-01 5.445631e+03 
1.674000e-01 5.396885e+03 
1.685000e-01 5.352197e+03 
1.697500e-01 5.302082e+03 
1.710300e-01 5.251500e+03 
1.722200e-01 5.205300e+03 
1.734400e-01 5.157815e+03 
1.746400e-01 5.111862e+03 
1.758700e-01 5.065391e+03 
1.770900e-01 5.019739e+03 
1.782700e-01 4.976313e+03 
1.794600e-01 4.932965e+03 
1.807000e-01 4.888363e+03 
1.819100e-01 4.845559e+03 
1.830100e-01 4.807179e+03 
1.842200e-01 4.765599e+03 
1.855000e-01 4.722360e+03 
1.867000e-01 4.683008e+03 
1.879200e-01 4.643633e+03 
1.890900e-01 4.606462e+03 
1.902800e-01 4.569265e+03 
1.915200e-01 4.531107e+03 
1.926900e-01 4.495871e+03 
1.939000e-01 4.460679e+03 
1.951700e-01 4.424316e+03 
1.963100e-01 4.392218e+03 
1.975100e-01 4.359063e+03 
1.987800e-01 4.324507e+03 
2.000100e-01 4.291592e+03 
2.012500e-01 4.259000e+03 
2.023400e-01 4.230755e+03 
2.036100e-01 4.198386e+03 
2.048900e-01 4.166544e+03 
2.060400e-01 4.138348e+03 
2.072200e-01 4.109818e+03 
2.084200e-01 4.081240e+03 
2.096900e-01 4.051431e+03 
2.109200e-01 4.022979e+03 
2.121100e-01 3.995559e+03 
2.132700e-01 3.969176e+03 
2.145200e-01 3.941137e+03 
2.157200e-01 3.914411e+03 
2.168800e-01 3.888835e+03 
2.180700e-01 3.862943e+03 
2.193400e-01 3.835574e+03 
2.206000e-01 3.808587e+03 
2.217500e-01 3.784284e+03 
2.229500e-01 3.759251e+03 
2.241400e-01 3.734471e+03 
2.253500e-01 3.709596e+03 
2.264900e-01 3.686458e+03 
2.277100e-01 3.662001e+03 
2.289900e-01 3.636674e+03 
2.301500e-01 3.614019e+03 
2.313600e-01 3.590682e+03 
2.325600e-01 3.567624e+03 
2.337700e-01 3.544667e+03 
2.350000e-01 3.521627e+03 
2.362000e-01 3.499574e+03 
2.374100e-01 3.477780e+03 
2.386500e-01 3.455726e+03 
2.399100e-01 3.433602e+03 
2.410400e-01 3.414115e+03 
2.422500e-01 3.393510e+03 
2.435000e-01 3.372487e+03 
2.447300e-01 3.352109e+03 
2.458700e-01 3.333655e+03 
2.470600e-01 3.314615e+03 
2.483300e-01 3.294541e+03 
2.495600e-01 3.275441e+03 
2.507600e-01 3.257169e+03 
2.519600e-01 3.239111e+03 
2.532200e-01 3.220375e+03 
2.543700e-01 3.203613e+03 
2.555500e-01 3.186700e+03 
2.568000e-01 3.168993e+03 
2.580100e-01 3.152052e+03 
2.592400e-01 3.135073e+03 
2.604100e-01 3.119124e+03 
2.616100e-01 3.102947e+03 
2.628400e-01 3.086555e+03 
2.640600e-01 3.070708e+03 
2.652200e-01 3.055897e+03 
2.664300e-01 3.040616e+03 
2.676500e-01 3.025381e+03 
2.688400e-01 3.010556e+03 
2.700700e-01 2.995321e+03 
2.712400e-01 2.980987e+03 
2.724800e-01 2.965961e+03 
2.736700e-01 2.951668e+03 
2.748800e-01 2.937260e+03 
2.761000e-01 2.922891e+03 
2.773200e-01 2.908677e+03 
2.785400e-01 2.894626e+03 
2.797000e-01 2.881427e+03 
2.808900e-01 2.868026e+03 
2.821400e-01 2.854099e+03 
2.833900e-01 2.840314e+03 
2.845500e-01 2.827438e+03 
2.857800e-01 2.813926e+03 
2.870300e-01 2.800339e+03 
2.882100e-01 2.787647e+03 
2.893900e-01 2.775015e+03 
2.906300e-01 2.761843e+03 
2.918900e-01 2.748598e+03 
2.930500e-01 2.736529e+03 
2.942500e-01 2.724146e+03 
2.954200e-01 2.712125e+03 
2.966500e-01 2.699614e+03 
2.978900e-01 2.687130e+03 
2.990400e-01 2.675666e+03 
3.002700e-01 2.663455e+03 
3.015100e-01 2.651236e+03 
3.026800e-01 2.639820e+03 
3.038500e-01 2.628511e+03 
3.050300e-01 2.617213e+03 
3.062600e-01 2.605465e+03 
3.075000e-01 2.593740e+03 
3.087000e-01 2.582502e+03 
3.099100e-01 2.571280e+03 
3.111200e-01 2.560139e+03 
3.123100e-01 2.549242e+03 
3.135300e-01 2.538177e+03 
3.147300e-01 2.527395e+03 
3.159900e-01 2.516183e+03 
3.171800e-01 2.505783e+03 
3.183700e-01 2.495536e+03 
3.196300e-01 2.484789e+03 
3.208400e-01 2.474566e+03 
3.220300e-01 2.464605e+03 
3.232000e-01 2.454771e+03 
3.244300e-01 2.444477e+03 
3.256700e-01 2.434197e+03 
3.269200e-01 2.423930e+03 
3.280800e-01 2.414489e+03 
3.292500e-01 2.405169e+03 
3.304800e-01 2.395498e+03 
3.317100e-01 2.385915e+03 
3.328900e-01 2.376804e+03 
3.340700e-01 2.367772e+03 
3.353600e-01 2.358011e+03 
3.365300e-01 2.349245e+03 
3.377100e-01 2.340481e+03 
3.389200e-01 2.331573e+03 
3.401600e-01 2.322525e+03 
3.413700e-01 2.313793e+03 
3.425300e-01 2.305506e+03 
3.437700e-01 2.296725e+03 
3.449800e-01 2.288232e+03 
3.461800e-01 2.279881e+03 
3.473600e-01 2.271726e+03 
3.485800e-01 2.263336e+03 
3.498100e-01 2.254950e+03 
3.510200e-01 2.246772e+03 
3.522000e-01 2.238863e+03 
3.533900e-01 2.230954e+03 
3.546400e-01 2.222823e+03 
3.558400e-01 2.215090e+03 
3.570600e-01 2.207294e+03 
3.582700e-01 2.199628e+03 
3.595000e-01 2.191900e+03 
3.607100e-01 2.184374e+03 
3.618900e-01 2.177104e+03 
3.631200e-01 2.169589e+03 
3.643200e-01 2.162318e+03 
3.655500e-01 2.154927e+03 
3.667300e-01 2.147894e+03 
3.679500e-01 2.140688e+03 
3.691900e-01 2.133425e+03 
3.703600e-01 2.126628e+03 
3.715700e-01 2.119654e+03 
3.727700e-01 2.112794e+03 
3.739900e-01 2.105888e+03 
3.752000e-01 2.099118e+03 
3.763900e-01 2.092513e+03 
3.775800e-01 2.085960e+03 
3.788200e-01 2.079186e+03 
3.800300e-01 2.072629e+03 
3.812100e-01 2.066242e+03 
3.824200e-01 2.059715e+03 
3.836100e-01 2.053346e+03 
3.848600e-01 2.046709e+03 
3.860400e-01 2.040493e+03 
3.872400e-01 2.034220e+03 
3.884600e-01 2.027898e+03 
3.896500e-01 2.021782e+03 
3.908700e-01 2.015560e+03 
3.920600e-01 2.009538e+03 
3.933100e-01 2.003261e+03 
3.945300e-01 1.997183e+03 
3.957200e-01 1.991309e+03 
3.969300e-01 1.985385e+03 
3.981700e-01 1.979360e+03 
3.993500e-01 1.973670e+03 
4.094840e-01 1.926089e+03 
4.272360e-01 1.848646e+03 
4.454600e-01 1.775165e+03 
4.630560e-01 1.709777e+03 
4.804610e-01 1.649384e+03 
4.980690e-01 1.592354e+03 
5.159230e-01 1.538328e+03 
5.317440e-01 1.493128e+03 
5.489640e-01 1.446922e+03 
5.671990e-01 1.400726e+03 
5.838690e-01 1.360889e+03 
6.018840e-01 1.320238e+03 
6.202330e-01 1.281102e+03 
6.379250e-01 1.245403e+03 
6.545410e-01 1.213291e+03 
6.714560e-01 1.182107e+03 
6.892080e-01 1.150754e+03 
7.066010e-01 1.121399e+03 
7.240540e-01 1.093203e+03 
7.420450e-01 1.065055e+03 
7.593780e-01 1.039173e+03 
7.764720e-01 1.014487e+03 
7.942840e-01 9.897831e+02 
8.116170e-01 9.664511e+02 
8.288310e-01 9.440730e+02 
8.462240e-01 9.221526e+02 
8.631980e-01 9.015443e+02 
8.810700e-01 8.804486e+02 
8.989410e-01 8.600832e+02 
9.166330e-01 8.405041e+02 
9.345640e-01 8.212643e+02 
9.515980e-01 8.035316e+02 
9.688720e-01 7.860200e+02 
9.865640e-01 7.685719e+02 
1.031870e+00 7.264137e+02 
1.063490e+00 6.987393e+02 
1.097920e+00 6.701232e+02 
1.134370e+00 6.415239e+02 
1.167730e+00 6.168287e+02 
1.203830e+00 5.914962e+02 
1.240470e+00 5.672309e+02 
1.275790e+00 5.450409e+02 
1.309140e+00 5.252065e+02 
1.342970e+00 5.060759e+02 
1.378420e+00 4.870520e+02 
1.413200e+00 4.693251e+02 
1.448110e+00 4.523965e+02 
1.484090e+00 4.358247e+02 
1.518820e+00 4.206001e+02 
1.552880e+00 4.063998e+02 
1.588630e+00 3.922197e+02 
1.623230e+00 3.791440e+02 
1.657720e+00 3.667356e+02 
1.692450e+00 3.547962e+02 
1.726400e+00 3.436372e+02 
1.762200e+00 3.323892e+02 
1.797880e+00 3.216930e+02 
1.833270e+00 3.115801e+02 
1.869070e+00 3.017714e+02 
1.903200e+00 2.928490e+02 
1.937740e+00 2.841831e+02 
1.973190e+00 2.756538e+02 
2.007440e+00 2.677625e+02 
2.042160e+00 2.601051e+02 
2.077900e+00 2.524993e+02 
2.112390e+00 2.454848e+02 
2.146220e+00 2.388661e+02 
2.181600e+00 2.321995e+02 
2.216930e+00 2.258276e+02 
2.250760e+00 2.199426e+02 
2.286500e+00 2.139490e+02 
2.321770e+00 2.082732e+02 
2.355950e+00 2.029699e+02 
2.391280e+00 1.977106e+02 
2.426240e+00 1.926713e+02 
2.460670e+00 1.878825e+02 
2.495640e+00 1.832043e+02 
2.531080e+00 1.786205e+02 
2.566220e+00 1.742306e+02 
2.600830e+00 1.700634e+02 
2.635080e+00 1.660902e+02 
2.670340e+00 1.621262e+02 
2.705970e+00 1.582543e+02 
2.740040e+00 1.546715e+02 
2.774520e+00 1.511554e+02 
2.809730e+00 1.476933e+02 
2.844390e+00 1.443981e+02 
2.879960e+00 1.411187e+02 
2.914860e+00 1.379995e+02 
2.949410e+00 1.350086e+02 
2.984440e+00 1.320780e+02 
3.019760e+00 1.292115e+02 
3.054730e+00 1.264583e+02 
3.089030e+00 1.238341e+02 
3.124060e+00 1.212320e+02 
3.159560e+00 1.186716e+02 
3.194710e+00 1.162183e+02 
3.229010e+00 1.138949e+02 
3.263320e+00 1.116322e+02 
3.297930e+00 1.094170e+02 
3.332830e+00 1.072524e+02 
3.368040e+00 1.051275e+02 
3.403300e+00 1.030572e+02 
3.438450e+00 1.010481e+02 
3.473060e+00 9.912289e+01 
3.508440e+00 9.721570e+01 
3.543110e+00 9.539625e+01 
3.577470e+00 9.363790e+01 
3.613040e+00 9.186715e+01 
3.648120e+00 9.017210e+01 
3.682910e+00 8.853326e+01 
3.718050e+00 8.691840e+01 
3.753320e+00 8.534161e+01 
3.787980e+00 8.383504e+01 
3.822290e+00 8.237938e+01 
3.857020e+00 8.094054e+01 
3.891920e+00 7.952913e+01 
3.926650e+00 7.815729e+01 
3.961970e+00 7.679743e+01 
3.997360e+00 7.547191e+01 
4.031670e+00 7.421818e+01 
4.066330e+00 7.298589e+01 
4.101420e+00 7.176707e+01 
4.136200e+00 7.058553e+01 
4.170810e+00 6.943639e+01 
4.206250e+00 6.829074e+01 
4.241580e+00 6.717538e+01 
4.276300e+00 6.610267e+01 
4.310970e+00 6.505444e+01 
4.346120e+00 6.401691e+01 
4.380600e+00 6.302439e+01 
4.414730e+00 6.206276e+01 
4.450350e+00 6.107993e+01 
4.485320e+00 6.013580e+01 
4.519810e+00 5.922703e+01 
4.555430e+00 5.830952e+01 
4.590870e+00 5.741565e+01 
4.625480e+00 5.656017e+01 
4.659910e+00 5.572642e+01 
4.695230e+00 5.489233e+01 
4.729960e+00 5.408940e+01 
4.764450e+00 5.330913e+01 
4.799530e+00 5.253334e+01 
4.834910e+00 5.176655e+01 
4.869700e+00 5.103045e+01 
4.904370e+00 5.031163e+01 
4.939450e+00 4.959813e+01 
4.973940e+00 4.890941e+01 
5.008430e+00 4.823374e+01 
5.043810e+00 4.755354e+01 
5.078840e+00 4.689277e+01 
5.113500e+00 4.625127e+01 
5.148890e+00 4.561480e+01 
5.184210e+00 4.499178e+01 
5.219060e+00 4.438822e+01 
5.253660e+00 4.379937e+01 
5.288570e+00 4.321600e+01 
5.323420e+00 4.264396e+01 
5.358440e+00 4.207925e+01 
5.393590e+00 4.152264e+01 
5.428310e+00 4.098629e+01 
5.462800e+00 4.046472e+01 
5.497640e+00 3.994702e+01 
5.532670e+00 3.943498e+01 
5.567280e+00 3.893762e+01 
5.602000e+00 3.844723e+01 
5.637270e+00 3.795735e+01 
5.672410e+00 3.747761e+01 
5.707020e+00 3.701311e+01 
5.742040e+00 3.655291e+01 
5.777430e+00 3.609610e+01 
5.812210e+00 3.565468e+01 
5.846820e+00 3.522401e+01 
5.881610e+00 3.479854e+01 
5.916510e+00 3.437870e+01 
5.951600e+00 3.396317e+01 
5.986560e+00 3.355577e+01 
6.021830e+00 3.315142e+01 
6.056490e+00 3.276258e+01 
6.091160e+00 3.238156e+01 
6.125830e+00 3.200653e+01 
6.161090e+00 3.163039e+01 
6.195760e+00 3.126476e+01 
6.230420e+00 3.090492e+01 
6.265690e+00 3.054451e+01 
6.300950e+00 3.019143e+01 
6.335620e+00 2.984960e+01 
6.370880e+00 2.950729e+01 
6.405550e+00 2.917686e+01 
6.440220e+00 2.885183e+01 
6.475480e+00 2.852624e+01 
6.510150e+00 2.821083e+01 
6.544810e+00 2.790000e+01 
6.580080e+00 2.758840e+01 
6.614750e+00 2.728665e+01 
6.649410e+00 2.699062e+01 
6.684080e+00 2.669904e+01 
6.719340e+00 2.640683e+01 
6.754010e+00 2.612358e+01 
6.788680e+00 2.584416e+01 
6.823940e+00 2.556408e+01 
6.859800e+00 2.528338e+01 
6.894470e+00 2.501677e+01 
6.929140e+00 2.475424e+01 
6.963800e+00 2.449546e+01 
6.999070e+00 2.423582e+01 
7.033730e+00 2.398412e+01 
7.068400e+00 2.373583e+01 
7.103660e+00 2.348682e+01 
7.138330e+00 2.324572e+01 
7.173600e+00 2.300459e+01 
7.208260e+00 2.277087e+01 
7.243530e+00 2.253628e+01 
7.277600e+00 2.231268e+01 
7.312860e+00 2.208433e+01 
7.348120e+00 2.185909e+01 
7.382790e+00 2.164058e+01 
7.417460e+00 2.142560e+01 
7.452720e+00 2.121020e+01 
7.487390e+00 2.100120e+01 
7.522650e+00 2.079144e+01 
7.557320e+00 2.058783e+01 
7.591990e+00 2.038682e+01 
7.627250e+00 2.018504e+01 
7.662510e+00 1.998591e+01 
7.697180e+00 1.979258e+01 
7.731850e+00 1.960168e+01 
7.766510e+00 1.941327e+01 
7.801180e+00 1.922719e+01 
7.836440e+00 1.904097e+01 
7.871110e+00 1.886056e+01 
7.906380e+00 1.867934e+01 
7.941040e+00 1.850348e+01 
7.976310e+00 1.832628e+01 
8.011570e+00 1.815075e+01 
8.046240e+00 1.798031e+01 
8.080900e+00 1.781201e+01 
8.115570e+00 1.764610e+01 
8.150830e+00 1.748086e+01 
8.185500e+00 1.732036e+01 
8.220770e+00 1.715907e+01 
8.255430e+00 1.700249e+01 
8.290100e+00 1.684709e+01 
8.324770e+00 1.669347e+01 
8.359430e+00 1.654172e+01 
8.394700e+00 1.638916e+01 
8.429960e+00 1.623881e+01 
8.464630e+00 1.609309e+01 
8.499890e+00 1.594663e+01 
8.534560e+00 1.580432e+01 
8.569200e+00 1.566379e+01 
