# Parameters:
# omega_b = 0.021972, omega_m = 0.151142, n_s = 0.955512, h = 57.834646, w = -1.000000, sigma_8 = 0.762992
# z = 0.100000
#
# k[1/Mpc] # P(k):
8.694000e-04 1.291703e+04 
2.077466e-03 2.756238e+04 
3.285532e-03 3.917723e+04 
4.493598e-03 4.827968e+04 
5.701664e-03 5.522239e+04 
6.909730e-03 6.031762e+04 
8.117797e-03 6.393592e+04 
9.325863e-03 6.627207e+04 
1.053393e-02 6.752839e+04 
1.174199e-02 6.790018e+04 
1.295006e-02 6.750625e+04 
1.415813e-02 6.651063e+04 
1.536619e-02 6.505699e+04 
1.657426e-02 6.319610e+04 
1.778233e-02 6.088871e+04 
1.899039e-02 5.838818e+04 
2.019846e-02 5.602485e+04 
2.140652e-02 5.381237e+04 
2.261459e-02 5.165239e+04 
2.382266e-02 4.954514e+04 
2.503072e-02 4.752155e+04 
2.623879e-02 4.559756e+04 
2.744685e-02 4.377836e+04 
2.865492e-02 4.207995e+04 
2.986299e-02 4.050466e+04 
3.100100e-02 3.913136e+04 
3.220400e-02 3.779527e+04 
3.288100e-02 3.709372e+04 
3.424300e-02 3.578891e+04 
3.555100e-02 3.465599e+04 
3.686000e-02 3.362808e+04 
3.795000e-02 3.284803e+04 
3.929100e-02 3.196460e+04 
4.039800e-02 3.128591e+04 
4.164000e-02 3.057806e+04 
4.294400e-02 2.986869e+04 
4.415000e-02 2.924616e+04 
4.542900e-02 2.859725e+04 
4.660900e-02 2.801385e+04 
4.782300e-02 2.739919e+04 
4.892900e-02 2.684544e+04 
5.031200e-02 2.614075e+04 
5.155900e-02 2.548926e+04 
5.238100e-02 2.505407e+04 
5.378200e-02 2.430588e+04 
5.513400e-02 2.357198e+04 
5.627600e-02 2.294470e+04 
5.735300e-02 2.235384e+04 
5.870100e-02 2.162010e+04 
5.988700e-02 2.098586e+04 
6.113500e-02 2.033025e+04 
6.225900e-02 1.975667e+04 
6.340100e-02 1.919151e+04 
6.480200e-02 1.852693e+04 
6.601100e-02 1.798530e+04 
6.725500e-02 1.745882e+04 
6.829100e-02 1.704818e+04 
6.958600e-02 1.656255e+04 
7.071100e-02 1.617370e+04 
7.192300e-02 1.578521e+04 
7.307400e-02 1.544236e+04 
7.412300e-02 1.515183e+04 
7.550400e-02 1.480378e+04 
7.663100e-02 1.454121e+04 
7.791200e-02 1.426693e+04 
7.912700e-02 1.402854e+04 
8.027600e-02 1.381780e+04 
8.138400e-02 1.362559e+04 
8.272200e-02 1.340492e+04 
8.406100e-02 1.319154e+04 
8.534100e-02 1.299338e+04 
8.653800e-02 1.280873e+04 
8.759800e-02 1.264650e+04 
8.900300e-02 1.243094e+04 
9.009000e-02 1.225946e+04 
9.113300e-02 1.209286e+04 
9.239600e-02 1.189016e+04 
9.358000e-02 1.169590e+04 
9.496100e-02 1.146412e+04 
9.608400e-02 1.127481e+04 
9.727500e-02 1.107457e+04 
9.852600e-02 1.085993e+04 
9.973800e-02 1.065638e+04 
1.009000e-01 1.046540e+04 
1.020900e-01 1.027034e+04 
1.034000e-01 1.006153e+04 
1.046000e-01 9.875593e+03 
1.057200e-01 9.708138e+03 
1.069100e-01 9.535800e+03 
1.082500e-01 9.350048e+03 
1.093900e-01 9.199036e+03 
1.105400e-01 9.052111e+03 
1.116900e-01 8.913851e+03 
1.129600e-01 8.767070e+03 
1.142000e-01 8.632719e+03 
1.153300e-01 8.515166e+03 
1.166400e-01 8.385142e+03 
1.177800e-01 8.278671e+03 
1.190000e-01 8.169269e+03 
1.201200e-01 8.073451e+03 
1.213400e-01 7.971938e+03 
1.227100e-01 7.864242e+03 
1.238900e-01 7.774101e+03 
1.250700e-01 7.686773e+03 
1.263200e-01 7.596677e+03 
1.275500e-01 7.510657e+03 
1.287500e-01 7.427828e+03 
1.299900e-01 7.342859e+03 
1.311300e-01 7.266004e+03 
1.323500e-01 7.184835e+03 
1.335900e-01 7.102938e+03 
1.347100e-01 7.028891e+03 
1.359800e-01 6.945771e+03 
1.372100e-01 6.865138e+03 
1.384300e-01 6.785860e+03 
1.395700e-01 6.710842e+03 
1.407700e-01 6.633287e+03 
1.420300e-01 6.551510e+03 
1.432800e-01 6.472134e+03 
1.444500e-01 6.397275e+03 
1.456300e-01 6.323284e+03 
1.468900e-01 6.245727e+03 
1.480500e-01 6.175719e+03 
1.491700e-01 6.109275e+03 
1.503800e-01 6.038705e+03 
1.516400e-01 5.967018e+03 
1.528200e-01 5.902595e+03 
1.540200e-01 5.838329e+03 
1.551900e-01 5.778132e+03 
1.564300e-01 5.715853e+03 
1.576600e-01 5.655911e+03 
1.588700e-01 5.598833e+03 
1.600900e-01 5.542419e+03 
1.612700e-01 5.490051e+03 
1.625400e-01 5.434728e+03 
1.637600e-01 5.383378e+03 
1.649500e-01 5.334657e+03 
1.662200e-01 5.283633e+03 
1.674000e-01 5.237249e+03 
1.685000e-01 5.194726e+03 
1.697500e-01 5.147259e+03 
1.710300e-01 5.099570e+03 
1.722200e-01 5.056011e+03 
1.734400e-01 5.011429e+03 
1.746400e-01 4.968293e+03 
1.758700e-01 4.924651e+03 
1.770900e-01 4.881741e+03 
1.782700e-01 4.840921e+03 
1.794600e-01 4.800044e+03 
1.807000e-01 4.757897e+03 
1.819100e-01 4.717448e+03 
1.830100e-01 4.680914e+03 
1.842200e-01 4.641286e+03 
1.855000e-01 4.600061e+03 
1.867000e-01 4.562188e+03 
1.879200e-01 4.524292e+03 
1.890900e-01 4.488459e+03 
1.902800e-01 4.452298e+03 
1.915200e-01 4.415204e+03 
1.926900e-01 4.380881e+03 
1.939000e-01 4.346375e+03 
1.951700e-01 4.310722e+03 
1.963100e-01 4.279199e+03 
1.975100e-01 4.246499e+03 
1.987800e-01 4.212418e+03 
2.000100e-01 4.179930e+03 
2.012500e-01 4.147706e+03 
2.023400e-01 4.119780e+03 
2.036100e-01 4.087783e+03 
2.048900e-01 4.056336e+03 
2.060400e-01 4.028490e+03 
2.072200e-01 4.000324e+03 
2.084200e-01 3.972231e+03 
2.096900e-01 3.942928e+03 
2.109200e-01 3.914960e+03 
2.121100e-01 3.888194e+03 
2.132700e-01 3.862451e+03 
2.145200e-01 3.835092e+03 
2.157200e-01 3.809173e+03 
2.168800e-01 3.784441e+03 
2.180700e-01 3.759405e+03 
2.193400e-01 3.733028e+03 
2.206000e-01 3.707179e+03 
2.217500e-01 3.683901e+03 
2.229500e-01 3.659925e+03 
2.241400e-01 3.636407e+03 
2.253500e-01 3.612804e+03 
2.264900e-01 3.590849e+03 
2.277100e-01 3.567728e+03 
2.289900e-01 3.543881e+03 
2.301500e-01 3.522550e+03 
2.313600e-01 3.500578e+03 
2.325600e-01 3.478976e+03 
2.337700e-01 3.457470e+03 
2.350000e-01 3.435886e+03 
2.362000e-01 3.415244e+03 
2.374100e-01 3.394868e+03 
2.386500e-01 3.374249e+03 
2.399100e-01 3.353565e+03 
2.410400e-01 3.335313e+03 
2.422500e-01 3.316010e+03 
2.435000e-01 3.296315e+03 
2.447300e-01 3.277209e+03 
2.458700e-01 3.259838e+03 
2.470600e-01 3.241914e+03 
2.483300e-01 3.223018e+03 
2.495600e-01 3.204986e+03 
2.507600e-01 3.187662e+03 
2.519600e-01 3.170540e+03 
2.532200e-01 3.152777e+03 
2.543700e-01 3.136811e+03 
2.555500e-01 3.120651e+03 
2.568000e-01 3.103731e+03 
2.580100e-01 3.087544e+03 
2.592400e-01 3.071240e+03 
2.604100e-01 3.055889e+03 
2.616100e-01 3.040321e+03 
2.628400e-01 3.024544e+03 
2.640600e-01 3.009233e+03 
2.652200e-01 2.994898e+03 
2.664300e-01 2.980110e+03 
2.676500e-01 2.965366e+03 
2.688400e-01 2.950979e+03 
2.700700e-01 2.936170e+03 
2.712400e-01 2.922237e+03 
2.724800e-01 2.907630e+03 
2.736700e-01 2.893719e+03 
2.748800e-01 2.879676e+03 
2.761000e-01 2.865670e+03 
2.773200e-01 2.851816e+03 
2.785400e-01 2.838114e+03 
2.797000e-01 2.825229e+03 
2.808900e-01 2.812146e+03 
2.821400e-01 2.798550e+03 
2.833900e-01 2.785092e+03 
2.845500e-01 2.772511e+03 
2.857800e-01 2.759308e+03 
2.870300e-01 2.746033e+03 
2.882100e-01 2.733631e+03 
2.893900e-01 2.721286e+03 
2.906300e-01 2.708408e+03 
2.918900e-01 2.695461e+03 
2.930500e-01 2.683663e+03 
2.942500e-01 2.671556e+03 
2.954200e-01 2.659801e+03 
2.966500e-01 2.647566e+03 
2.978900e-01 2.635358e+03 
2.990400e-01 2.624147e+03 
3.002700e-01 2.612202e+03 
3.015100e-01 2.600248e+03 
3.026800e-01 2.589079e+03 
3.038500e-01 2.578016e+03 
3.050300e-01 2.566963e+03 
3.062600e-01 2.555471e+03 
3.075000e-01 2.544001e+03 
3.087000e-01 2.533009e+03 
3.099100e-01 2.522030e+03 
3.111200e-01 2.511130e+03 
3.123100e-01 2.500465e+03 
3.135300e-01 2.489634e+03 
3.147300e-01 2.479081e+03 
3.159900e-01 2.468107e+03 
3.171800e-01 2.457923e+03 
3.183700e-01 2.447887e+03 
3.196300e-01 2.437361e+03 
3.208400e-01 2.427348e+03 
3.220300e-01 2.417591e+03 
3.232000e-01 2.407963e+03 
3.244300e-01 2.397885e+03 
3.256700e-01 2.387819e+03 
3.269200e-01 2.377768e+03 
3.280800e-01 2.368525e+03 
3.292500e-01 2.359398e+03 
3.304800e-01 2.349925e+03 
3.317100e-01 2.340538e+03 
3.328900e-01 2.331614e+03 
3.340700e-01 2.322767e+03 
3.353600e-01 2.313205e+03 
3.365300e-01 2.304620e+03 
3.377100e-01 2.296035e+03 
3.389200e-01 2.287309e+03 
3.401600e-01 2.278446e+03 
3.413700e-01 2.269894e+03 
3.425300e-01 2.261779e+03 
3.437700e-01 2.253179e+03 
3.449800e-01 2.244861e+03 
3.461800e-01 2.236682e+03 
3.473600e-01 2.228696e+03 
3.485800e-01 2.220477e+03 
3.498100e-01 2.212263e+03 
3.510200e-01 2.204252e+03 
3.522000e-01 2.196505e+03 
3.533900e-01 2.188758e+03 
3.546400e-01 2.180799e+03 
3.558400e-01 2.173231e+03 
3.570600e-01 2.165602e+03 
3.582700e-01 2.158098e+03 
3.595000e-01 2.150535e+03 
3.607100e-01 2.143170e+03 
3.618900e-01 2.136057e+03 
3.631200e-01 2.128703e+03 
3.643200e-01 2.121588e+03 
3.655500e-01 2.114356e+03 
3.667300e-01 2.107474e+03 
3.679500e-01 2.100429e+03 
3.691900e-01 2.093328e+03 
3.703600e-01 2.086682e+03 
3.715700e-01 2.079864e+03 
3.727700e-01 2.073157e+03 
3.739900e-01 2.066406e+03 
3.752000e-01 2.059786e+03 
3.763900e-01 2.053328e+03 
3.775800e-01 2.046921e+03 
3.788200e-01 2.040299e+03 
3.800300e-01 2.033888e+03 
3.812100e-01 2.027647e+03 
3.824200e-01 2.021271e+03 
3.836100e-01 2.015049e+03 
3.848600e-01 2.008566e+03 
3.860400e-01 2.002494e+03 
3.872400e-01 1.996366e+03 
3.884600e-01 1.990194e+03 
3.896500e-01 1.984224e+03 
3.908700e-01 1.978150e+03 
3.920600e-01 1.972272e+03 
3.933100e-01 1.966145e+03 
3.945300e-01 1.960212e+03 
3.957200e-01 1.954478e+03 
3.969300e-01 1.948695e+03 
3.981700e-01 1.942814e+03 
3.993500e-01 1.937260e+03 
4.094840e-01 1.890839e+03 
4.272360e-01 1.815332e+03 
4.454600e-01 1.743712e+03 
4.630560e-01 1.679976e+03 
4.804610e-01 1.621111e+03 
4.980690e-01 1.565509e+03 
5.159230e-01 1.512837e+03 
5.317440e-01 1.468759e+03 
5.489640e-01 1.423705e+03 
5.671990e-01 1.378674e+03 
5.838690e-01 1.339846e+03 
6.018840e-01 1.300228e+03 
6.202330e-01 1.262100e+03 
6.379250e-01 1.227318e+03 
6.545410e-01 1.196038e+03 
6.714560e-01 1.165662e+03 
6.892080e-01 1.135120e+03 
7.066010e-01 1.106520e+03 
7.240540e-01 1.079044e+03 
7.420450e-01 1.051607e+03 
7.593780e-01 1.026373e+03 
7.764720e-01 1.002294e+03 
7.942840e-01 9.781934e+02 
8.116170e-01 9.554123e+02 
8.288310e-01 9.335564e+02 
8.462240e-01 9.121351e+02 
8.631980e-01 8.919891e+02 
8.810700e-01 8.713542e+02 
8.989410e-01 8.514196e+02 
9.166330e-01 8.322461e+02 
9.345640e-01 8.133965e+02 
9.515980e-01 7.960104e+02 
9.688720e-01 7.788332e+02 
9.865640e-01 7.617061e+02 
1.031870e+00 7.202961e+02 
1.063490e+00 6.930805e+02 
1.097920e+00 6.649168e+02 
1.134370e+00 6.367438e+02 
1.167730e+00 6.123984e+02 
1.203830e+00 5.874044e+02 
1.240470e+00 5.634502e+02 
1.275790e+00 5.415286e+02 
1.309140e+00 5.219239e+02 
1.342970e+00 5.030047e+02 
1.378420e+00 4.841837e+02 
1.413200e+00 4.666359e+02 
1.448110e+00 4.498732e+02 
1.484090e+00 4.334559e+02 
1.518820e+00 4.183690e+02 
1.552880e+00 4.042914e+02 
1.588630e+00 3.902306e+02 
1.623230e+00 3.772614e+02 
1.657720e+00 3.649512e+02 
1.692450e+00 3.531042e+02 
1.726400e+00 3.420274e+02 
1.762200e+00 3.308615e+02 
1.797880e+00 3.202400e+02 
1.833270e+00 3.101964e+02 
1.869070e+00 3.004530e+02 
1.903200e+00 2.915885e+02 
1.937740e+00 2.829777e+02 
1.973190e+00 2.745016e+02 
2.007440e+00 2.666587e+02 
2.042160e+00 2.590472e+02 
2.077900e+00 2.514860e+02 
2.112390e+00 2.445121e+02 
2.146220e+00 2.379309e+02 
2.181600e+00 2.313016e+02 
2.216930e+00 2.249648e+02 
2.250760e+00 2.191118e+02 
2.286500e+00 2.131501e+02 
2.321770e+00 2.075041e+02 
2.355950e+00 2.022283e+02 
2.391280e+00 1.969960e+02 
2.426240e+00 1.919824e+02 
2.460670e+00 1.872177e+02 
2.495640e+00 1.825628e+02 
2.531080e+00 1.780015e+02 
2.566220e+00 1.736328e+02 
2.600830e+00 1.694857e+02 
2.635080e+00 1.655315e+02 
2.670340e+00 1.615864e+02 
2.705970e+00 1.577327e+02 
2.740040e+00 1.541667e+02 
2.774520e+00 1.506669e+02 
2.809730e+00 1.472207e+02 
2.844390e+00 1.439405e+02 
2.879960e+00 1.406759e+02 
2.914860e+00 1.375710e+02 
2.949410e+00 1.345936e+02 
2.984440e+00 1.316762e+02 
3.019760e+00 1.288226e+02 
3.054730e+00 1.260817e+02 
3.089030e+00 1.234690e+02 
3.124060e+00 1.208784e+02 
3.159560e+00 1.183293e+02 
3.194710e+00 1.158867e+02 
3.229010e+00 1.135735e+02 
3.263320e+00 1.113208e+02 
3.297930e+00 1.091152e+02 
3.332830e+00 1.069600e+02 
3.368040e+00 1.048443e+02 
3.403300e+00 1.027830e+02 
3.438450e+00 1.007826e+02 
3.473060e+00 9.886572e+01 
3.508440e+00 9.696675e+01 
3.543110e+00 9.515511e+01 
3.577470e+00 9.340437e+01 
3.613040e+00 9.164124e+01 
3.648120e+00 8.995348e+01 
3.682910e+00 8.832170e+01 
3.718050e+00 8.671385e+01 
3.753320e+00 8.514383e+01 
3.787980e+00 8.364366e+01 
3.822290e+00 8.219418e+01 
3.857020e+00 8.076150e+01 
3.891920e+00 7.935613e+01 
3.926650e+00 7.799023e+01 
3.961970e+00 7.663621e+01 
3.997360e+00 7.531638e+01 
4.031670e+00 7.406800e+01 
4.066330e+00 7.284096e+01 
4.101420e+00 7.162731e+01 
4.136200e+00 7.045079e+01 
4.170810e+00 6.930650e+01 
4.206250e+00 6.816575e+01 
4.241580e+00 6.705515e+01 
4.276300e+00 6.598701e+01 
4.310970e+00 6.494323e+01 
4.346120e+00 6.391009e+01 
4.380600e+00 6.292178e+01 
4.414730e+00 6.196420e+01 
4.450350e+00 6.098553e+01 
4.485320e+00 6.004536e+01 
4.519810e+00 5.914042e+01 
4.555430e+00 5.822675e+01 
4.590870e+00 5.733664e+01 
4.625480e+00 5.648478e+01 
4.659910e+00 5.565455e+01 
4.695230e+00 5.482395e+01 
4.729960e+00 5.402436e+01 
4.764450e+00 5.324732e+01 
4.799530e+00 5.247472e+01 
4.834910e+00 5.171107e+01 
4.869700e+00 5.097799e+01 
4.904370e+00 5.026210e+01 
4.939450e+00 4.955151e+01 
4.973940e+00 4.886563e+01 
5.008430e+00 4.819271e+01 
5.043810e+00 4.751528e+01 
5.078840e+00 4.685716e+01 
5.113500e+00 4.621821e+01 
5.148890e+00 4.558431e+01 
5.184210e+00 4.496378e+01 
5.219060e+00 4.436264e+01 
5.253660e+00 4.377613e+01 
5.288570e+00 4.319508e+01 
5.323420e+00 4.262529e+01 
5.358440e+00 4.206277e+01 
5.393590e+00 4.150831e+01 
5.428310e+00 4.097400e+01 
5.462800e+00 4.045442e+01 
5.497640e+00 3.993868e+01 
5.532670e+00 3.942856e+01 
5.567280e+00 3.893307e+01 
5.602000e+00 3.844450e+01 
5.637270e+00 3.795642e+01 
5.672410e+00 3.747842e+01 
5.707020e+00 3.701560e+01 
5.742040e+00 3.655708e+01 
5.777430e+00 3.610192e+01 
5.812210e+00 3.566209e+01 
5.846820e+00 3.523295e+01 
5.881610e+00 3.480896e+01 
5.916510e+00 3.439057e+01 
5.951600e+00 3.397645e+01 
5.986560e+00 3.357041e+01 
6.021830e+00 3.316741e+01 
6.056490e+00 3.277986e+01 
6.091160e+00 3.240010e+01 
6.125830e+00 3.202631e+01 
6.161090e+00 3.165139e+01 
6.195760e+00 3.128692e+01 
6.230420e+00 3.092821e+01 
6.265690e+00 3.056893e+01 
6.300950e+00 3.021693e+01 
6.335620e+00 2.987615e+01 
6.370880e+00 2.953487e+01 
6.405550e+00 2.920542e+01 
6.440220e+00 2.888134e+01 
6.475480e+00 2.855669e+01 
6.510150e+00 2.824218e+01 
6.544810e+00 2.793222e+01 
6.580080e+00 2.762149e+01 
6.614750e+00 2.732056e+01 
6.649410e+00 2.702531e+01 
6.684080e+00 2.673450e+01 
6.719340e+00 2.644304e+01 
6.754010e+00 2.616051e+01 
6.788680e+00 2.588177e+01 
6.823940e+00 2.560237e+01 
6.859800e+00 2.532234e+01 
6.894470e+00 2.505637e+01 
6.929140e+00 2.479444e+01 
6.963800e+00 2.453625e+01 
6.999070e+00 2.427719e+01 
7.033730e+00 2.402604e+01 
7.068400e+00 2.377828e+01 
7.103660e+00 2.352979e+01 
7.138330e+00 2.328919e+01 
7.173600e+00 2.304852e+01 
7.208260e+00 2.281524e+01 
7.243530e+00 2.258109e+01 
7.277600e+00 2.235790e+01 
7.312860e+00 2.212996e+01 
7.348120e+00 2.190512e+01 
7.382790e+00 2.168699e+01 
7.417460e+00 2.147237e+01 
7.452720e+00 2.125730e+01 
7.487390e+00 2.104862e+01 
7.522650e+00 2.083918e+01 
7.557320e+00 2.063585e+01 
7.591990e+00 2.043512e+01 
7.627250e+00 2.023362e+01 
7.662510e+00 2.003475e+01 
7.697180e+00 1.984165e+01 
7.731850e+00 1.965098e+01 
7.766510e+00 1.946279e+01 
7.801180e+00 1.927692e+01 
7.836440e+00 1.909088e+01 
7.871110e+00 1.891064e+01 
7.906380e+00 1.872959e+01 
7.941040e+00 1.855390e+01 
7.976310e+00 1.837683e+01 
8.011570e+00 1.820143e+01 
8.046240e+00 1.803112e+01 
8.080900e+00 1.786294e+01 
8.115570e+00 1.769713e+01 
8.150830e+00 1.753197e+01 
8.185500e+00 1.737155e+01 
8.220770e+00 1.721033e+01 
8.255430e+00 1.705382e+01 
8.290100e+00 1.689847e+01 
8.324770e+00 1.674489e+01 
8.359430e+00 1.659319e+01 
8.394700e+00 1.644066e+01 
8.429960e+00 1.629034e+01 
8.464630e+00 1.614463e+01 
8.499890e+00 1.599818e+01 
8.534560e+00 1.585588e+01 
8.569200e+00 1.571536e+01 
