# Parameters:
# omega_b = 0.021815, omega_m = 0.149488, n_s = 0.953937, h = 77.913386, w = -1.000000, sigma_8 = 0.857480
# z = 0.100000
#
# k[1/Mpc] # P(k):
8.694000e-04 1.156901e+04 
2.077466e-03 2.460877e+04 
3.285532e-03 3.489845e+04 
4.493598e-03 4.291619e+04 
5.701664e-03 4.897949e+04 
6.909730e-03 5.339128e+04 
8.117797e-03 5.649905e+04 
9.325863e-03 5.848310e+04 
1.053393e-02 5.952259e+04 
1.174199e-02 5.978498e+04 
1.295006e-02 5.937831e+04 
1.415813e-02 5.844970e+04 
1.536619e-02 5.712575e+04 
1.657426e-02 5.557588e+04 
1.778233e-02 5.414732e+04 
1.899039e-02 5.274722e+04 
2.019846e-02 5.086437e+04 
2.140652e-02 4.861833e+04 
2.261459e-02 4.632112e+04 
2.382266e-02 4.411418e+04 
2.503072e-02 4.204198e+04 
2.623879e-02 4.011796e+04 
2.744685e-02 3.834889e+04 
2.865492e-02 3.673964e+04 
2.986299e-02 3.528622e+04 
3.100100e-02 3.405715e+04 
3.220400e-02 3.289656e+04 
3.288100e-02 3.230452e+04 
3.424300e-02 3.123223e+04 
3.555100e-02 3.033152e+04 
3.686000e-02 2.953991e+04 
3.795000e-02 2.895359e+04 
3.929100e-02 2.830239e+04 
4.039800e-02 2.780408e+04 
4.164000e-02 2.728213e+04 
4.294400e-02 2.674275e+04 
4.415000e-02 2.625493e+04 
4.542900e-02 2.571735e+04 
4.660900e-02 2.521342e+04 
4.782300e-02 2.464837e+04 
4.892900e-02 2.412009e+04 
5.031200e-02 2.342071e+04 
5.155900e-02 2.275231e+04 
5.238100e-02 2.229799e+04 
5.378200e-02 2.150724e+04 
5.513400e-02 2.072661e+04 
5.627600e-02 2.006118e+04 
5.735300e-02 1.943932e+04 
5.870100e-02 1.867738e+04 
5.988700e-02 1.803058e+04 
6.113500e-02 1.737640e+04 
6.225900e-02 1.681838e+04 
6.340100e-02 1.628327e+04 
6.480200e-02 1.567080e+04 
6.601100e-02 1.518967e+04 
6.725500e-02 1.473687e+04 
6.829100e-02 1.439619e+04 
6.958600e-02 1.400350e+04 
7.071100e-02 1.369922e+04 
7.192300e-02 1.340313e+04 
7.307400e-02 1.314778e+04 
7.412300e-02 1.293523e+04 
7.550400e-02 1.268521e+04 
7.663100e-02 1.249803e+04 
7.791200e-02 1.230224e+04 
7.912700e-02 1.212971e+04 
8.027600e-02 1.197411e+04 
8.138400e-02 1.182885e+04 
8.272200e-02 1.165652e+04 
8.406100e-02 1.148324e+04 
8.534100e-02 1.131476e+04 
8.653800e-02 1.115188e+04 
8.759800e-02 1.100547e+04 
8.900300e-02 1.080626e+04 
9.009000e-02 1.064471e+04 
9.113300e-02 1.048550e+04 
9.239600e-02 1.029029e+04 
9.358000e-02 1.010203e+04 
9.496100e-02 9.876488e+03 
9.608400e-02 9.692225e+03 
9.727500e-02 9.497436e+03 
9.852600e-02 9.289521e+03 
9.973800e-02 9.093115e+03 
1.009000e-01 8.909493e+03 
1.020900e-01 8.724545e+03 
1.034000e-01 8.528218e+03 
1.046000e-01 8.355126e+03 
1.057200e-01 8.202635e+03 
1.069100e-01 8.047148e+03 
1.082500e-01 7.883868e+03 
1.093900e-01 7.753967e+03 
1.105400e-01 7.629245e+03 
1.116900e-01 7.515883e+03 
1.129600e-01 7.396875e+03 
1.142000e-01 7.291287e+03 
1.153300e-01 7.199874e+03 
1.166400e-01 7.100305e+03 
1.177800e-01 7.019543e+03 
1.190000e-01 6.936936e+03 
1.201200e-01 6.863895e+03 
1.213400e-01 6.786391e+03 
1.227100e-01 6.701743e+03 
1.238900e-01 6.630178e+03 
1.250700e-01 6.558427e+03 
1.263200e-01 6.483337e+03 
1.275500e-01 6.409261e+03 
1.287500e-01 6.336739e+03 
1.299900e-01 6.260472e+03 
1.311300e-01 6.190615e+03 
1.323500e-01 6.115533e+03 
1.335900e-01 6.039328e+03 
1.347100e-01 5.969846e+03 
1.359800e-01 5.891828e+03 
1.372100e-01 5.816092e+03 
1.384300e-01 5.741857e+03 
1.395700e-01 5.672128e+03 
1.407700e-01 5.600166e+03 
1.420300e-01 5.525381e+03 
1.432800e-01 5.452814e+03 
1.444500e-01 5.385717e+03 
1.456300e-01 5.319413e+03 
1.468900e-01 5.250901e+03 
1.480500e-01 5.189356e+03 
1.491700e-01 5.131416e+03 
1.503800e-01 5.070475e+03 
1.516400e-01 5.008737e+03 
1.528200e-01 4.953971e+03 
1.540200e-01 4.899341e+03 
1.551900e-01 4.848661e+03 
1.564300e-01 4.796350e+03 
1.576600e-01 4.746153e+03 
1.588700e-01 4.698537e+03 
1.600900e-01 4.651480e+03 
1.612700e-01 4.607908e+03 
1.625400e-01 4.561878e+03 
1.637600e-01 4.519078e+03 
1.649500e-01 4.478424e+03 
1.662200e-01 4.435807e+03 
1.674000e-01 4.396829e+03 
1.685000e-01 4.361095e+03 
1.697500e-01 4.321022e+03 
1.710300e-01 4.280577e+03 
1.722200e-01 4.243636e+03 
1.734400e-01 4.205441e+03 
1.746400e-01 4.168469e+03 
1.758700e-01 4.130957e+03 
1.770900e-01 4.093858e+03 
1.782700e-01 4.058567e+03 
1.794600e-01 4.023089e+03 
1.807000e-01 3.986419e+03 
1.819100e-01 3.951226e+03 
1.830100e-01 3.919342e+03 
1.842200e-01 3.884743e+03 
1.855000e-01 3.848748e+03 
1.867000e-01 3.815626e+03 
1.879200e-01 3.782485e+03 
1.890900e-01 3.751155e+03 
1.902800e-01 3.719567e+03 
1.915200e-01 3.687165e+03 
1.926900e-01 3.657198e+03 
1.939000e-01 3.627114e+03 
1.951700e-01 3.596031e+03 
1.963100e-01 3.568573e+03 
1.975100e-01 3.540151e+03 
1.987800e-01 3.510531e+03 
2.000100e-01 3.482317e+03 
2.012500e-01 3.454384e+03 
2.023400e-01 3.430177e+03 
2.036100e-01 3.402456e+03 
2.048900e-01 3.375270e+03 
2.060400e-01 3.351198e+03 
2.072200e-01 3.326854e+03 
2.084200e-01 3.302641e+03 
2.096900e-01 3.277385e+03 
2.109200e-01 3.253280e+03 
2.121100e-01 3.230311e+03 
2.132700e-01 3.208224e+03 
2.145200e-01 3.184750e+03 
2.157200e-01 3.162598e+03 
2.168800e-01 3.141502e+03 
2.180700e-01 3.120146e+03 
2.193400e-01 3.097706e+03 
2.206000e-01 3.075827e+03 
2.217500e-01 3.056124e+03 
2.229500e-01 3.035830e+03 
2.241400e-01 3.016122e+03 
2.253500e-01 2.996348e+03 
2.264900e-01 2.977954e+03 
2.277100e-01 2.958676e+03 
2.289900e-01 2.938893e+03 
2.301500e-01 2.921198e+03 
2.313600e-01 2.902972e+03 
2.325600e-01 2.885212e+03 
2.337700e-01 2.867531e+03 
2.350000e-01 2.849785e+03 
2.362000e-01 2.832857e+03 
2.374100e-01 2.816199e+03 
2.386500e-01 2.799342e+03 
2.399100e-01 2.782432e+03 
2.410400e-01 2.767511e+03 
2.422500e-01 2.751730e+03 
2.435000e-01 2.735630e+03 
2.447300e-01 2.719996e+03 
2.458700e-01 2.705721e+03 
2.470600e-01 2.690993e+03 
2.483300e-01 2.675466e+03 
2.495600e-01 2.660597e+03 
2.507600e-01 2.646240e+03 
2.519600e-01 2.632052e+03 
2.532200e-01 2.617331e+03 
2.543700e-01 2.604025e+03 
2.555500e-01 2.590506e+03 
2.568000e-01 2.576352e+03 
2.580100e-01 2.562810e+03 
2.592400e-01 2.549088e+03 
2.604100e-01 2.536132e+03 
2.616100e-01 2.522991e+03 
2.628400e-01 2.509675e+03 
2.640600e-01 2.496691e+03 
2.652200e-01 2.484511e+03 
2.664300e-01 2.471944e+03 
2.676500e-01 2.459416e+03 
2.688400e-01 2.447173e+03 
2.700700e-01 2.434559e+03 
2.712400e-01 2.422691e+03 
2.724800e-01 2.410250e+03 
2.736700e-01 2.398397e+03 
2.748800e-01 2.386430e+03 
2.761000e-01 2.374494e+03 
2.773200e-01 2.362687e+03 
2.785400e-01 2.351014e+03 
2.797000e-01 2.340045e+03 
2.808900e-01 2.328908e+03 
2.821400e-01 2.317334e+03 
2.833900e-01 2.305879e+03 
2.845500e-01 2.295211e+03 
2.857800e-01 2.284015e+03 
2.870300e-01 2.272758e+03 
2.882100e-01 2.262242e+03 
2.893900e-01 2.251794e+03 
2.906300e-01 2.240907e+03 
2.918900e-01 2.229961e+03 
2.930500e-01 2.219985e+03 
2.942500e-01 2.209758e+03 
2.954200e-01 2.199854e+03 
2.966500e-01 2.189545e+03 
2.978900e-01 2.179259e+03 
2.990400e-01 2.169812e+03 
3.002700e-01 2.159773e+03 
3.015100e-01 2.149737e+03 
3.026800e-01 2.140360e+03 
3.038500e-01 2.131071e+03 
3.050300e-01 2.121792e+03 
3.062600e-01 2.112169e+03 
3.075000e-01 2.102563e+03 
3.087000e-01 2.093357e+03 
3.099100e-01 2.084164e+03 
3.111200e-01 2.075040e+03 
3.123100e-01 2.066122e+03 
3.135300e-01 2.057066e+03 
3.147300e-01 2.048241e+03 
3.159900e-01 2.039065e+03 
3.171800e-01 2.030556e+03 
3.183700e-01 2.022175e+03 
3.196300e-01 2.013384e+03 
3.208400e-01 2.005022e+03 
3.220300e-01 1.996874e+03 
3.232000e-01 1.988832e+03 
3.244300e-01 1.980413e+03 
3.256700e-01 1.972006e+03 
3.269200e-01 1.963609e+03 
3.280800e-01 1.955888e+03 
3.292500e-01 1.948261e+03 
3.304800e-01 1.940344e+03 
3.317100e-01 1.932499e+03 
3.328900e-01 1.925039e+03 
3.340700e-01 1.917645e+03 
3.353600e-01 1.909648e+03 
3.365300e-01 1.902466e+03 
3.377100e-01 1.895284e+03 
3.389200e-01 1.887983e+03 
3.401600e-01 1.880568e+03 
3.413700e-01 1.873404e+03 
3.425300e-01 1.866600e+03 
3.437700e-01 1.859390e+03 
3.449800e-01 1.852415e+03 
3.461800e-01 1.845558e+03 
3.473600e-01 1.838859e+03 
3.485800e-01 1.831958e+03 
3.498100e-01 1.825060e+03 
3.510200e-01 1.818333e+03 
3.522000e-01 1.811828e+03 
3.533900e-01 1.805322e+03 
3.546400e-01 1.798623e+03 
3.558400e-01 1.792252e+03 
3.570600e-01 1.785829e+03 
3.582700e-01 1.779513e+03 
3.595000e-01 1.773146e+03 
3.607100e-01 1.766939e+03 
3.618900e-01 1.760941e+03 
3.631200e-01 1.754739e+03 
3.643200e-01 1.748739e+03 
3.655500e-01 1.742640e+03 
3.667300e-01 1.736836e+03 
3.679500e-01 1.730882e+03 
3.691900e-01 1.724880e+03 
3.703600e-01 1.719263e+03 
3.715700e-01 1.713500e+03 
3.727700e-01 1.707831e+03 
3.739900e-01 1.702122e+03 
3.752000e-01 1.696520e+03 
3.763900e-01 1.691055e+03 
3.775800e-01 1.685632e+03 
3.788200e-01 1.680027e+03 
3.800300e-01 1.674601e+03 
3.812100e-01 1.669317e+03 
3.824200e-01 1.663917e+03 
3.836100e-01 1.658648e+03 
3.848600e-01 1.653157e+03 
3.860400e-01 1.648014e+03 
3.872400e-01 1.642823e+03 
3.884600e-01 1.637592e+03 
3.896500e-01 1.632529e+03 
3.908700e-01 1.627380e+03 
3.920600e-01 1.622395e+03 
3.933100e-01 1.617199e+03 
3.945300e-01 1.612168e+03 
3.957200e-01 1.607305e+03 
3.969300e-01 1.602399e+03 
3.981700e-01 1.597410e+03 
3.993500e-01 1.592698e+03 
4.094840e-01 1.553346e+03 
4.272360e-01 1.489486e+03 
4.454600e-01 1.429176e+03 
4.630560e-01 1.375774e+03 
4.804610e-01 1.326727e+03 
4.980690e-01 1.280642e+03 
5.159230e-01 1.237194e+03 
5.317440e-01 1.200977e+03 
5.489640e-01 1.164113e+03 
5.671990e-01 1.127416e+03 
5.838690e-01 1.095865e+03 
6.018840e-01 1.063794e+03 
6.202330e-01 1.033041e+03 
6.379250e-01 1.005077e+03 
6.545410e-01 9.800282e+02 
6.714560e-01 9.557646e+02 
6.892080e-01 9.314666e+02 
7.066010e-01 9.087901e+02 
7.240540e-01 8.870638e+02 
7.420450e-01 8.654493e+02 
7.593780e-01 8.456319e+02 
7.764720e-01 8.267684e+02 
7.942840e-01 8.079322e+02 
8.116170e-01 7.901825e+02 
8.288310e-01 7.731829e+02 
8.462240e-01 7.565540e+02 
8.631980e-01 7.409404e+02 
8.810700e-01 7.249634e+02 
8.989410e-01 7.095540e+02 
9.166330e-01 6.947399e+02 
9.345640e-01 6.801794e+02 
9.515980e-01 6.667570e+02 
9.688720e-01 6.534998e+02 
9.865640e-01 6.402788e+02 
1.031870e+00 6.082937e+02 
1.063490e+00 5.872374e+02 
1.097920e+00 5.654104e+02 
1.134370e+00 5.435169e+02 
1.167730e+00 5.245522e+02 
1.203830e+00 5.050215e+02 
1.240470e+00 4.862406e+02 
1.275790e+00 4.689878e+02 
1.309140e+00 4.535060e+02 
1.342970e+00 4.385113e+02 
1.378420e+00 4.235436e+02 
1.413200e+00 4.095325e+02 
1.448110e+00 3.960926e+02 
1.484090e+00 3.828851e+02 
1.518820e+00 3.706948e+02 
1.552880e+00 3.592807e+02 
1.588630e+00 3.478384e+02 
1.623230e+00 3.372451e+02 
1.657720e+00 3.271581e+02 
1.692450e+00 3.174151e+02 
1.726400e+00 3.082707e+02 
1.762200e+00 2.990194e+02 
1.797880e+00 2.901892e+02 
1.833270e+00 2.818140e+02 
1.869070e+00 2.736579e+02 
1.903200e+00 2.662159e+02 
1.937740e+00 2.589647e+02 
1.973190e+00 2.518031e+02 
2.007440e+00 2.451564e+02 
2.042160e+00 2.386881e+02 
2.077900e+00 2.322403e+02 
2.112390e+00 2.262794e+02 
2.146220e+00 2.206359e+02 
2.181600e+00 2.149351e+02 
2.216930e+00 2.094721e+02 
2.250760e+00 2.044121e+02 
2.286500e+00 1.992443e+02 
2.321770e+00 1.943384e+02 
2.355950e+00 1.897427e+02 
2.391280e+00 1.851732e+02 
2.426240e+00 1.807826e+02 
2.460670e+00 1.766004e+02 
2.495640e+00 1.725066e+02 
2.531080e+00 1.684834e+02 
2.566220e+00 1.646210e+02 
2.600830e+00 1.609475e+02 
2.635080e+00 1.574389e+02 
2.670340e+00 1.539279e+02 
2.705970e+00 1.504912e+02 
2.740040e+00 1.473050e+02 
2.774520e+00 1.441707e+02 
2.809730e+00 1.410787e+02 
2.844390e+00 1.381307e+02 
2.879960e+00 1.351904e+02 
2.914860e+00 1.323874e+02 
2.949410e+00 1.296955e+02 
2.984440e+00 1.270527e+02 
3.019760e+00 1.244630e+02 
3.054730e+00 1.219720e+02 
3.089030e+00 1.195913e+02 
3.124060e+00 1.172273e+02 
3.159560e+00 1.148971e+02 
3.194710e+00 1.126604e+02 
3.229010e+00 1.105398e+02 
3.263320e+00 1.084698e+02 
3.297930e+00 1.064410e+02 
3.332830e+00 1.044554e+02 
3.368040e+00 1.025029e+02 
3.403300e+00 1.005980e+02 
3.438450e+00 9.874580e+01 
3.473060e+00 9.696918e+01 
3.508440e+00 9.520570e+01 
3.543110e+00 9.352190e+01 
3.577470e+00 9.189136e+01 
3.613040e+00 9.024784e+01 
3.648120e+00 8.867220e+01 
3.682910e+00 8.714711e+01 
3.718050e+00 8.564193e+01 
3.753320e+00 8.417065e+01 
3.787980e+00 8.276304e+01 
3.822290e+00 8.140143e+01 
3.857020e+00 8.005353e+01 
3.891920e+00 7.872999e+01 
3.926650e+00 7.744173e+01 
3.961970e+00 7.616359e+01 
3.997360e+00 7.491599e+01 
4.031670e+00 7.373509e+01 
4.066330e+00 7.257271e+01 
4.101420e+00 7.142241e+01 
4.136200e+00 7.030528e+01 
4.170810e+00 6.921825e+01 
4.206250e+00 6.813299e+01 
4.241580e+00 6.707572e+01 
4.276300e+00 6.605753e+01 
4.310970e+00 6.506161e+01 
4.346120e+00 6.407503e+01 
4.380600e+00 6.313021e+01 
4.414730e+00 6.221434e+01 
4.450350e+00 6.127670e+01 
4.485320e+00 6.037556e+01 
4.519810e+00 5.950718e+01 
4.555430e+00 5.862978e+01 
4.590870e+00 5.777432e+01 
4.625480e+00 5.695464e+01 
4.659910e+00 5.615544e+01 
4.695230e+00 5.535487e+01 
4.729960e+00 5.458378e+01 
4.764450e+00 5.383388e+01 
4.799530e+00 5.308754e+01 
4.834910e+00 5.234954e+01 
4.869700e+00 5.164029e+01 
4.904370e+00 5.094731e+01 
4.939450e+00 5.025899e+01 
4.973940e+00 4.959378e+01 
5.008430e+00 4.894090e+01 
5.043810e+00 4.828294e+01 
5.078840e+00 4.764325e+01 
5.113500e+00 4.702197e+01 
5.148890e+00 4.640502e+01 
5.184210e+00 4.580084e+01 
5.219060e+00 4.521517e+01 
5.253660e+00 4.464309e+01 
5.288570e+00 4.407614e+01 
5.323420e+00 4.351970e+01 
5.358440e+00 4.296987e+01 
5.393590e+00 4.242771e+01 
5.428310e+00 4.190491e+01 
5.462800e+00 4.139625e+01 
5.497640e+00 4.089118e+01 
5.532670e+00 4.039105e+01 
5.567280e+00 3.990498e+01 
5.602000e+00 3.942554e+01 
5.637270e+00 3.894604e+01 
5.672410e+00 3.847620e+01 
5.707020e+00 3.802113e+01 
5.742040e+00 3.756985e+01 
5.777430e+00 3.712167e+01 
5.812210e+00 3.668843e+01 
5.846820e+00 3.626534e+01 
5.881610e+00 3.584713e+01 
5.916510e+00 3.543432e+01 
5.951600e+00 3.502529e+01 
5.986560e+00 3.462399e+01 
6.021830e+00 3.422557e+01 
6.056490e+00 3.384219e+01 
6.091160e+00 3.346633e+01 
6.125830e+00 3.309625e+01 
6.161090e+00 3.272480e+01 
6.195760e+00 3.236331e+01 
6.230420e+00 3.200742e+01 
6.265690e+00 3.165084e+01 
6.300950e+00 3.130110e+01 
6.335620e+00 3.096240e+01 
6.370880e+00 3.062310e+01 
6.405550e+00 3.029530e+01 
6.440220e+00 2.997267e+01 
6.475480e+00 2.964939e+01 
6.510150e+00 2.933601e+01 
6.544810e+00 2.902684e+01 
6.580080e+00 2.871682e+01 
6.614750e+00 2.841650e+01 
6.649410e+00 2.812154e+01 
6.684080e+00 2.783090e+01 
6.719340e+00 2.753953e+01 
6.754010e+00 2.725691e+01 
6.788680e+00 2.697781e+01 
6.823940e+00 2.669795e+01 
6.859800e+00 2.641740e+01 
6.894470e+00 2.615069e+01 
6.929140e+00 2.588790e+01 
6.963800e+00 2.562879e+01 
6.999070e+00 2.536872e+01 
7.033730e+00 2.511625e+01 
7.068400e+00 2.486712e+01 
7.103660e+00 2.461720e+01 
7.138330e+00 2.437507e+01 
7.173600e+00 2.413266e+01 
7.208260e+00 2.389763e+01 
7.243530e+00 2.366166e+01 
7.277600e+00 2.343654e+01 
7.312860e+00 2.320645e+01 
7.348120e+00 2.297942e+01 
7.382790e+00 2.275913e+01 
7.417460e+00 2.254216e+01 
7.452720e+00 2.232462e+01 
7.487390e+00 2.211349e+01 
7.522650e+00 2.190154e+01 
7.557320e+00 2.169554e+01 
7.591990e+00 2.149205e+01 
7.627250e+00 2.128774e+01 
7.662510e+00 2.108605e+01 
7.697180e+00 2.088998e+01 
7.731850e+00 2.069626e+01 
7.766510e+00 2.050501e+01 
7.801180e+00 2.031607e+01 
7.836440e+00 2.012681e+01 
7.871110e+00 1.994332e+01 
7.906380e+00 1.975896e+01 
7.941040e+00 1.958003e+01 
7.976310e+00 1.939953e+01 
8.011570e+00 1.922053e+01 
8.046240e+00 1.904668e+01 
8.080900e+00 1.887498e+01 
8.115570e+00 1.870563e+01 
8.150830e+00 1.853677e+01 
8.185500e+00 1.837272e+01 
8.220770e+00 1.820783e+01 
8.255430e+00 1.804771e+01 
8.290100e+00 1.788853e+01 
8.324770e+00 1.773111e+01 
8.359430e+00 1.757558e+01 
8.394700e+00 1.741917e+01 
8.429960e+00 1.726490e+01 
8.464630e+00 1.711523e+01 
8.499890e+00 1.696478e+01 
8.534560e+00 1.681856e+01 
8.569200e+00 1.667413e+01 
