# Parameters:
# omega_b = 0.022744, omega_m = 0.143976, n_s = 0.966535, h = 55.708661, w = -1.000000, sigma_8 = 0.833858
# z = 0.100000
#
# k[1/Mpc] # P(k):
8.694000e-04 1.804518e+04 
2.077466e-03 3.861357e+04 
3.285532e-03 5.486375e+04 
4.493598e-03 6.750986e+04 
5.701664e-03 7.702689e+04 
6.909730e-03 8.388662e+04 
8.117797e-03 8.864236e+04 
9.325863e-03 9.157975e+04 
1.053393e-02 9.298836e+04 
1.174199e-02 9.314437e+04 
1.295006e-02 9.222025e+04 
1.415813e-02 9.045655e+04 
1.536619e-02 8.806079e+04 
1.657426e-02 8.505138e+04 
1.778233e-02 8.118074e+04 
1.899039e-02 7.695965e+04 
2.019846e-02 7.326659e+04 
2.140652e-02 7.008794e+04 
2.261459e-02 6.709488e+04 
2.382266e-02 6.421372e+04 
2.503072e-02 6.147266e+04 
2.623879e-02 5.888945e+04 
2.744685e-02 5.647027e+04 
2.865492e-02 5.422925e+04 
2.986299e-02 5.216497e+04 
3.100100e-02 5.037697e+04 
3.220400e-02 4.864492e+04 
3.288100e-02 4.773796e+04 
3.424300e-02 4.605209e+04 
3.555100e-02 4.458616e+04 
3.686000e-02 4.325047e+04 
3.795000e-02 4.223075e+04 
3.929100e-02 4.106454e+04 
4.039800e-02 4.015954e+04 
4.164000e-02 3.920680e+04 
4.294400e-02 3.824104e+04 
4.415000e-02 3.738793e+04 
4.542900e-02 3.649463e+04 
4.660900e-02 3.569118e+04 
4.782300e-02 3.484912e+04 
4.892900e-02 3.409477e+04 
5.031200e-02 3.314444e+04 
5.155900e-02 3.227778e+04 
5.238100e-02 3.170504e+04 
5.378200e-02 3.073114e+04 
5.513400e-02 2.978985e+04 
5.627600e-02 2.899515e+04 
5.735300e-02 2.825344e+04 
5.870100e-02 2.734026e+04 
5.988700e-02 2.655626e+04 
6.113500e-02 2.574987e+04 
6.225900e-02 2.504688e+04 
6.340100e-02 2.435523e+04 
6.480200e-02 2.354184e+04 
6.601100e-02 2.287801e+04 
6.725500e-02 2.223082e+04 
6.829100e-02 2.172387e+04 
6.958600e-02 2.112176e+04 
7.071100e-02 2.063690e+04 
7.192300e-02 2.014986e+04 
7.307400e-02 1.971757e+04 
7.412300e-02 1.934933e+04 
7.550400e-02 1.890541e+04 
7.663100e-02 1.856890e+04 
7.791200e-02 1.821525e+04 
7.912700e-02 1.790638e+04 
8.027600e-02 1.763239e+04 
8.138400e-02 1.738181e+04 
8.272200e-02 1.709336e+04 
8.406100e-02 1.681376e+04 
8.534100e-02 1.655342e+04 
8.653800e-02 1.631043e+04 
8.759800e-02 1.609675e+04 
8.900300e-02 1.581270e+04 
9.009000e-02 1.558697e+04 
9.113300e-02 1.536809e+04 
9.239600e-02 1.510241e+04 
9.358000e-02 1.484890e+04 
9.496100e-02 1.454881e+04 
9.608400e-02 1.430537e+04 
9.727500e-02 1.404924e+04 
9.852600e-02 1.377878e+04 
9.973800e-02 1.352421e+04 
1.009000e-01 1.328691e+04 
1.020900e-01 1.304827e+04 
1.034000e-01 1.279427e+04 
1.046000e-01 1.256961e+04 
1.057200e-01 1.236921e+04 
1.069100e-01 1.216340e+04 
1.082500e-01 1.194260e+04 
1.093900e-01 1.176309e+04 
1.105400e-01 1.158841e+04 
1.116900e-01 1.142334e+04 
1.129600e-01 1.124765e+04 
1.142000e-01 1.108543e+04 
1.153300e-01 1.094260e+04 
1.166400e-01 1.078325e+04 
1.177800e-01 1.065128e+04 
1.190000e-01 1.051494e+04 
1.201200e-01 1.039364e+04 
1.213400e-01 1.026478e+04 
1.227100e-01 1.012577e+04 
1.238900e-01 1.000907e+04 
1.250700e-01 9.894905e+03 
1.263200e-01 9.776894e+03 
1.275500e-01 9.663712e+03 
1.287500e-01 9.554770e+03 
1.299900e-01 9.443087e+03 
1.311300e-01 9.342413e+03 
1.323500e-01 9.236608e+03 
1.335900e-01 9.130484e+03 
1.347100e-01 9.035351e+03 
1.359800e-01 8.929185e+03 
1.372100e-01 8.827426e+03 
1.384300e-01 8.727891e+03 
1.395700e-01 8.634919e+03 
1.407700e-01 8.538946e+03 
1.420300e-01 8.439268e+03 
1.432800e-01 8.342504e+03 
1.444500e-01 8.252329e+03 
1.456300e-01 8.163184e+03 
1.468900e-01 8.070175e+03 
1.480500e-01 7.986336e+03 
1.491700e-01 7.906736e+03 
1.503800e-01 7.822159e+03 
1.516400e-01 7.736147e+03 
1.528200e-01 7.658496e+03 
1.540200e-01 7.581023e+03 
1.551900e-01 7.507815e+03 
1.564300e-01 7.431911e+03 
1.576600e-01 7.358422e+03 
1.588700e-01 7.287919e+03 
1.600900e-01 7.218184e+03 
1.612700e-01 7.152555e+03 
1.625400e-01 7.083222e+03 
1.637600e-01 7.018411e+03 
1.649500e-01 6.956645e+03 
1.662200e-01 6.891891e+03 
1.674000e-01 6.832641e+03 
1.685000e-01 6.778322e+03 
1.697500e-01 6.717620e+03 
1.710300e-01 6.656565e+03 
1.722200e-01 6.600799e+03 
1.734400e-01 6.543843e+03 
1.746400e-01 6.488739e+03 
1.758700e-01 6.433099e+03 
1.770900e-01 6.378616e+03 
1.782700e-01 6.326787e+03 
1.794600e-01 6.275153e+03 
1.807000e-01 6.222093e+03 
1.819100e-01 6.171170e+03 
1.830100e-01 6.125532e+03 
1.842200e-01 6.076092e+03 
1.855000e-01 6.024675e+03 
1.867000e-01 5.977858e+03 
1.879200e-01 5.931011e+03 
1.890900e-01 5.886761e+03 
1.902800e-01 5.842348e+03 
1.915200e-01 5.796787e+03 
1.926900e-01 5.754679e+03 
1.939000e-01 5.712514e+03 
1.951700e-01 5.668947e+03 
1.963100e-01 5.630435e+03 
1.975100e-01 5.590504e+03 
1.987800e-01 5.548887e+03 
2.000100e-01 5.509191e+03 
2.012500e-01 5.469760e+03 
2.023400e-01 5.435587e+03 
2.036100e-01 5.396400e+03 
2.048900e-01 5.357750e+03 
2.060400e-01 5.323527e+03 
2.072200e-01 5.288893e+03 
2.084200e-01 5.254127e+03 
2.096900e-01 5.217865e+03 
2.109200e-01 5.183255e+03 
2.121100e-01 5.149853e+03 
2.132700e-01 5.117713e+03 
2.145200e-01 5.083556e+03 
2.157200e-01 5.051005e+03 
2.168800e-01 5.019856e+03 
2.180700e-01 4.988325e+03 
2.193400e-01 4.955005e+03 
2.206000e-01 4.922170e+03 
2.217500e-01 4.892601e+03 
2.229500e-01 4.862144e+03 
2.241400e-01 4.832046e+03 
2.253500e-01 4.801835e+03 
2.264900e-01 4.773733e+03 
2.277100e-01 4.744058e+03 
2.289900e-01 4.713359e+03 
2.301500e-01 4.685900e+03 
2.313600e-01 4.657615e+03 
2.325600e-01 4.629707e+03 
2.337700e-01 4.601922e+03 
2.350000e-01 4.574037e+03 
2.362000e-01 4.547370e+03 
2.374100e-01 4.521045e+03 
2.386500e-01 4.494407e+03 
2.399100e-01 4.467686e+03 
2.410400e-01 4.444157e+03 
2.422500e-01 4.419280e+03 
2.435000e-01 4.393899e+03 
2.447300e-01 4.369298e+03 
2.458700e-01 4.347020e+03 
2.470600e-01 4.324034e+03 
2.483300e-01 4.299803e+03 
2.495600e-01 4.276740e+03 
2.507600e-01 4.254668e+03 
2.519600e-01 4.232855e+03 
2.532200e-01 4.210226e+03 
2.543700e-01 4.189965e+03 
2.555500e-01 4.169511e+03 
2.568000e-01 4.148098e+03 
2.580100e-01 4.127614e+03 
2.592400e-01 4.107056e+03 
2.604100e-01 4.087733e+03 
2.616100e-01 4.068138e+03 
2.628400e-01 4.048282e+03 
2.640600e-01 4.029081e+03 
2.652200e-01 4.011133e+03 
2.664300e-01 3.992620e+03 
2.676500e-01 3.974164e+03 
2.688400e-01 3.956170e+03 
2.700700e-01 3.937659e+03 
2.712400e-01 3.920244e+03 
2.724800e-01 3.901991e+03 
2.736700e-01 3.884613e+03 
2.748800e-01 3.867080e+03 
2.761000e-01 3.849595e+03 
2.773200e-01 3.832302e+03 
2.785400e-01 3.815203e+03 
2.797000e-01 3.799127e+03 
2.808900e-01 3.782808e+03 
2.821400e-01 3.765850e+03 
2.833900e-01 3.749065e+03 
2.845500e-01 3.733344e+03 
2.857800e-01 3.716848e+03 
2.870300e-01 3.700263e+03 
2.882100e-01 3.684771e+03 
2.893900e-01 3.669337e+03 
2.906300e-01 3.653234e+03 
2.918900e-01 3.637046e+03 
2.930500e-01 3.622295e+03 
2.942500e-01 3.607154e+03 
2.954200e-01 3.592435e+03 
2.966500e-01 3.577117e+03 
2.978900e-01 3.561833e+03 
2.990400e-01 3.547799e+03 
3.002700e-01 3.532836e+03 
3.015100e-01 3.517856e+03 
3.026800e-01 3.503861e+03 
3.038500e-01 3.490000e+03 
3.050300e-01 3.476152e+03 
3.062600e-01 3.461708e+03 
3.075000e-01 3.447291e+03 
3.087000e-01 3.433477e+03 
3.099100e-01 3.419682e+03 
3.111200e-01 3.405983e+03 
3.123100e-01 3.392575e+03 
3.135300e-01 3.378960e+03 
3.147300e-01 3.365696e+03 
3.159900e-01 3.351904e+03 
3.171800e-01 3.339117e+03 
3.183700e-01 3.326522e+03 
3.196300e-01 3.313313e+03 
3.208400e-01 3.300751e+03 
3.220300e-01 3.288511e+03 
3.232000e-01 3.276382e+03 
3.244300e-01 3.263668e+03 
3.256700e-01 3.250971e+03 
3.269200e-01 3.238294e+03 
3.280800e-01 3.226636e+03 
3.292500e-01 3.215140e+03 
3.304800e-01 3.203213e+03 
3.317100e-01 3.191396e+03 
3.328900e-01 3.180163e+03 
3.340700e-01 3.169028e+03 
3.353600e-01 3.156975e+03 
3.365300e-01 3.146145e+03 
3.377100e-01 3.135317e+03 
3.389200e-01 3.124313e+03 
3.401600e-01 3.113137e+03 
3.413700e-01 3.102338e+03 
3.425300e-01 3.092082e+03 
3.437700e-01 3.081214e+03 
3.449800e-01 3.070704e+03 
3.461800e-01 3.060372e+03 
3.473600e-01 3.050278e+03 
3.485800e-01 3.039880e+03 
3.498100e-01 3.029490e+03 
3.510200e-01 3.019357e+03 
3.522000e-01 3.009560e+03 
3.533900e-01 2.999764e+03 
3.546400e-01 2.989666e+03 
3.558400e-01 2.980062e+03 
3.570600e-01 2.970382e+03 
3.582700e-01 2.960863e+03 
3.595000e-01 2.951270e+03 
3.607100e-01 2.941917e+03 
3.618900e-01 2.932873e+03 
3.631200e-01 2.923526e+03 
3.643200e-01 2.914483e+03 
3.655500e-01 2.905293e+03 
3.667300e-01 2.896550e+03 
3.679500e-01 2.887555e+03 
3.691900e-01 2.878491e+03 
3.703600e-01 2.870008e+03 
3.715700e-01 2.861308e+03 
3.727700e-01 2.852749e+03 
3.739900e-01 2.844134e+03 
3.752000e-01 2.835685e+03 
3.763900e-01 2.827443e+03 
3.775800e-01 2.819267e+03 
3.788200e-01 2.810817e+03 
3.800300e-01 2.802640e+03 
3.812100e-01 2.794649e+03 
3.824200e-01 2.786467e+03 
3.836100e-01 2.778484e+03 
3.848600e-01 2.770166e+03 
3.860400e-01 2.762377e+03 
3.872400e-01 2.754517e+03 
3.884600e-01 2.746577e+03 
3.896500e-01 2.738887e+03 
3.908700e-01 2.731066e+03 
3.920600e-01 2.723497e+03 
3.933100e-01 2.715609e+03 
3.945300e-01 2.707973e+03 
3.957200e-01 2.700585e+03 
3.969300e-01 2.693132e+03 
3.981700e-01 2.685554e+03 
3.993500e-01 2.678399e+03 
4.094840e-01 2.618377e+03 
4.272360e-01 2.520155e+03 
4.454600e-01 2.426360e+03 
4.630560e-01 2.342515e+03 
4.804610e-01 2.264603e+03 
4.980690e-01 2.190708e+03 
5.159230e-01 2.120342e+03 
5.317440e-01 2.061219e+03 
5.489640e-01 2.000468e+03 
5.671990e-01 1.939340e+03 
5.838690e-01 1.886340e+03 
6.018840e-01 1.831974e+03 
6.202330e-01 1.779245e+03 
6.379250e-01 1.730920e+03 
6.545410e-01 1.687110e+03 
6.714560e-01 1.644371e+03 
6.892080e-01 1.601106e+03 
7.066010e-01 1.560398e+03 
7.240540e-01 1.521113e+03 
7.420450e-01 1.481653e+03 
7.593780e-01 1.445217e+03 
7.764720e-01 1.410336e+03 
7.942840e-01 1.375288e+03 
8.116170e-01 1.342089e+03 
8.288310e-01 1.310133e+03 
8.462240e-01 1.278765e+03 
8.631980e-01 1.249201e+03 
8.810700e-01 1.218888e+03 
8.989410e-01 1.189586e+03 
9.166330e-01 1.161377e+03 
9.345640e-01 1.133627e+03 
9.515980e-01 1.108040e+03 
9.688720e-01 1.082755e+03 
9.865640e-01 1.057562e+03 
1.031870e+00 9.966820e+02 
1.063490e+00 9.567550e+02 
1.097920e+00 9.155044e+02 
1.134370e+00 8.743577e+02 
1.167730e+00 8.388896e+02 
1.203830e+00 8.025887e+02 
1.240470e+00 7.678888e+02 
1.275790e+00 7.362386e+02 
1.309140e+00 7.080186e+02 
1.342970e+00 6.808652e+02 
1.378420e+00 6.539261e+02 
1.413200e+00 6.288980e+02 
1.448110e+00 6.050531e+02 
1.484090e+00 5.817728e+02 
1.518820e+00 5.604378e+02 
1.552880e+00 5.405923e+02 
1.588630e+00 5.208169e+02 
1.623230e+00 5.026278e+02 
1.657720e+00 4.854035e+02 
1.692450e+00 4.688635e+02 
1.726400e+00 4.534474e+02 
1.762200e+00 4.379401e+02 
1.797880e+00 4.232289e+02 
1.833270e+00 4.093449e+02 
1.869070e+00 3.959126e+02 
1.903200e+00 3.837149e+02 
1.937740e+00 3.718906e+02 
1.973190e+00 3.602755e+02 
2.007440e+00 3.495486e+02 
2.042160e+00 3.391581e+02 
2.077900e+00 3.288581e+02 
2.112390e+00 3.193722e+02 
2.146220e+00 3.104395e+02 
2.181600e+00 3.014571e+02 
2.216930e+00 2.928845e+02 
2.250760e+00 2.849799e+02 
2.286500e+00 2.769417e+02 
2.321770e+00 2.693403e+02 
2.355950e+00 2.622485e+02 
2.391280e+00 2.552260e+02 
2.426240e+00 2.485079e+02 
2.460670e+00 2.421318e+02 
2.495640e+00 2.359102e+02 
2.531080e+00 2.298241e+02 
2.566220e+00 2.240030e+02 
2.600830e+00 2.184832e+02 
2.635080e+00 2.132257e+02 
2.670340e+00 2.079889e+02 
2.705970e+00 2.028794e+02 
2.740040e+00 1.981564e+02 
2.774520e+00 1.935273e+02 
2.809730e+00 1.889740e+02 
2.844390e+00 1.846439e+02 
2.879960e+00 1.803402e+02 
2.914860e+00 1.762515e+02 
2.949410e+00 1.723339e+02 
2.984440e+00 1.684994e+02 
3.019760e+00 1.647525e+02 
3.054730e+00 1.611565e+02 
3.089030e+00 1.577337e+02 
3.124060e+00 1.543421e+02 
3.159560e+00 1.510078e+02 
3.194710e+00 1.478160e+02 
3.229010e+00 1.447948e+02 
3.263320e+00 1.418562e+02 
3.297930e+00 1.389808e+02 
3.332830e+00 1.361735e+02 
3.368040e+00 1.334198e+02 
3.403300e+00 1.307387e+02 
3.438450e+00 1.281394e+02 
3.473060e+00 1.256497e+02 
3.508440e+00 1.231859e+02 
3.543110e+00 1.208363e+02 
3.577470e+00 1.185679e+02 
3.613040e+00 1.162844e+02 
3.648120e+00 1.141002e+02 
3.682910e+00 1.119896e+02 
3.718050e+00 1.099113e+02 
3.753320e+00 1.078830e+02 
3.787980e+00 1.059463e+02 
3.822290e+00 1.040760e+02 
3.857020e+00 1.022285e+02 
3.891920e+00 1.004170e+02 
3.926650e+00 9.865739e+01 
3.961970e+00 9.691383e+01 
3.997360e+00 9.521547e+01 
4.031670e+00 9.360952e+01 
4.066330e+00 9.203207e+01 
4.101420e+00 9.047216e+01 
4.136200e+00 8.896119e+01 
4.170810e+00 8.749187e+01 
4.206250e+00 8.602793e+01 
4.241580e+00 8.460304e+01 
4.276300e+00 8.323337e+01 
4.310970e+00 8.189544e+01 
4.346120e+00 8.057158e+01 
4.380600e+00 7.930574e+01 
4.414730e+00 7.807948e+01 
4.450350e+00 7.682700e+01 
4.485320e+00 7.562399e+01 
4.519810e+00 7.446655e+01 
4.555430e+00 7.329827e+01 
4.590870e+00 7.216042e+01 
4.625480e+00 7.107193e+01 
4.659910e+00 7.001123e+01 
4.695230e+00 6.895055e+01 
4.729960e+00 6.792965e+01 
4.764450e+00 6.693781e+01 
4.799530e+00 6.595199e+01 
4.834910e+00 6.497772e+01 
4.869700e+00 6.404282e+01 
4.904370e+00 6.313001e+01 
4.939450e+00 6.222412e+01 
4.973940e+00 6.134999e+01 
5.008430e+00 6.049249e+01 
5.043810e+00 5.962953e+01 
5.078840e+00 5.879140e+01 
5.113500e+00 5.797778e+01 
5.148890e+00 5.717071e+01 
5.184210e+00 5.638076e+01 
5.219060e+00 5.561564e+01 
5.253660e+00 5.486941e+01 
5.288570e+00 5.413021e+01 
5.323420e+00 5.340548e+01 
5.358440e+00 5.269015e+01 
5.393590e+00 5.198515e+01 
5.428310e+00 5.130589e+01 
5.462800e+00 5.064544e+01 
5.497640e+00 4.998995e+01 
5.532670e+00 4.934174e+01 
5.567280e+00 4.871221e+01 
5.602000e+00 4.809156e+01 
5.637270e+00 4.747166e+01 
5.672410e+00 4.686467e+01 
5.707020e+00 4.627702e+01 
5.742040e+00 4.569487e+01 
5.777430e+00 4.511707e+01 
5.812210e+00 4.455878e+01 
5.846820e+00 4.401414e+01 
5.881610e+00 4.347612e+01 
5.916510e+00 4.294526e+01 
5.951600e+00 4.241990e+01 
5.986560e+00 4.190488e+01 
6.021830e+00 4.139377e+01 
6.056490e+00 4.090226e+01 
6.091160e+00 4.042066e+01 
6.125830e+00 3.994667e+01 
6.161090e+00 3.947133e+01 
6.195760e+00 3.900931e+01 
6.230420e+00 3.855465e+01 
6.265690e+00 3.809931e+01 
6.300950e+00 3.765323e+01 
6.335620e+00 3.722142e+01 
6.370880e+00 3.678903e+01 
6.405550e+00 3.637164e+01 
6.440220e+00 3.596107e+01 
6.475480e+00 3.554985e+01 
6.510150e+00 3.515152e+01 
6.544810e+00 3.475899e+01 
6.580080e+00 3.436554e+01 
6.614750e+00 3.398455e+01 
6.649410e+00 3.361075e+01 
6.684080e+00 3.324261e+01 
6.719340e+00 3.287369e+01 
6.754010e+00 3.251612e+01 
6.788680e+00 3.216339e+01 
6.823940e+00 3.180986e+01 
6.859800e+00 3.145559e+01 
6.894470e+00 3.111910e+01 
6.929140e+00 3.078775e+01 
6.963800e+00 3.046118e+01 
6.999070e+00 3.013354e+01 
7.033730e+00 2.981591e+01 
7.068400e+00 2.950260e+01 
7.103660e+00 2.918843e+01 
7.138330e+00 2.888425e+01 
7.173600e+00 2.858001e+01 
7.208260e+00 2.828516e+01 
7.243530e+00 2.798923e+01 
7.277600e+00 2.770718e+01 
7.312860e+00 2.741915e+01 
7.348120e+00 2.713506e+01 
7.382790e+00 2.685950e+01 
7.417460e+00 2.658837e+01 
7.452720e+00 2.631670e+01 
7.487390e+00 2.605313e+01 
7.522650e+00 2.578864e+01 
7.557320e+00 2.553188e+01 
7.591990e+00 2.527844e+01 
7.627250e+00 2.502406e+01 
7.662510e+00 2.477304e+01 
7.697180e+00 2.452933e+01 
7.731850e+00 2.428872e+01 
7.766510e+00 2.405126e+01 
7.801180e+00 2.381676e+01 
7.836440e+00 2.358207e+01 
7.871110e+00 2.335471e+01 
7.906380e+00 2.312635e+01 
7.941040e+00 2.290478e+01 
7.976310e+00 2.268153e+01 
8.011570e+00 2.246040e+01 
8.046240e+00 2.224571e+01 
8.080900e+00 2.203375e+01 
8.115570e+00 2.182480e+01 
8.150830e+00 2.161665e+01 
8.185500e+00 2.141450e+01 
8.220770e+00 2.121138e+01 
8.255430e+00 2.101422e+01 
8.290100e+00 2.081855e+01 
8.324770e+00 2.062515e+01 
8.359430e+00 2.043413e+01 
8.394700e+00 2.024211e+01 
8.429960e+00 2.005287e+01 
8.464630e+00 1.986945e+01 
8.499890e+00 1.968514e+01 
8.534560e+00 1.950607e+01 
8.569200e+00 1.932926e+01 
