# Parameters:
# omega_b = 0.022634, omega_m = 0.123583, n_s = 0.996457, h = 69.881890, w = -1.000000, sigma_8 = 0.770866
# z = 0.100000
#
# k[1/Mpc] # P(k):
8.694000e-04 1.608386e+04 
2.077466e-03 3.481975e+04 
3.285532e-03 4.929602e+04 
4.493598e-03 6.013950e+04 
5.701664e-03 6.790497e+04 
6.909730e-03 7.312582e+04 
8.117797e-03 7.638555e+04 
9.325863e-03 7.799016e+04 
1.053393e-02 7.823792e+04 
1.174199e-02 7.740452e+04 
1.295006e-02 7.566830e+04 
1.415813e-02 7.326538e+04 
1.536619e-02 7.039514e+04 
1.657426e-02 6.716013e+04 
1.778233e-02 6.357802e+04 
1.899039e-02 5.991417e+04 
2.019846e-02 5.647635e+04 
2.140652e-02 5.330730e+04 
2.261459e-02 5.034143e+04 
2.382266e-02 4.758541e+04 
2.503072e-02 4.505978e+04 
2.623879e-02 4.276830e+04 
2.744685e-02 4.071339e+04 
2.865492e-02 3.888305e+04 
2.986299e-02 3.726138e+04 
3.100100e-02 3.591535e+04 
3.220400e-02 3.466212e+04 
3.288100e-02 3.402898e+04 
3.424300e-02 3.288672e+04 
3.555100e-02 3.192566e+04 
3.686000e-02 3.107218e+04 
3.795000e-02 3.042901e+04 
3.929100e-02 2.969263e+04 
4.039800e-02 2.911089e+04 
4.164000e-02 2.848342e+04 
4.294400e-02 2.781252e+04 
4.415000e-02 2.719488e+04 
4.542900e-02 2.650756e+04 
4.660900e-02 2.586369e+04 
4.782300e-02 2.515261e+04 
4.892900e-02 2.449649e+04 
5.031200e-02 2.364716e+04 
5.155900e-02 2.285739e+04 
5.238100e-02 2.233162e+04 
5.378200e-02 2.143521e+04 
5.513400e-02 2.057408e+04 
5.627600e-02 1.985692e+04 
5.735300e-02 1.919868e+04 
5.870100e-02 1.840661e+04 
5.988700e-02 1.774511e+04 
6.113500e-02 1.708582e+04 
6.225900e-02 1.653114e+04 
6.340100e-02 1.600546e+04 
6.480200e-02 1.540997e+04 
6.601100e-02 1.494816e+04 
6.725500e-02 1.451799e+04 
6.829100e-02 1.419794e+04 
6.958600e-02 1.383164e+04 
7.071100e-02 1.355068e+04 
7.192300e-02 1.327936e+04 
7.307400e-02 1.304668e+04 
7.412300e-02 1.285363e+04 
7.550400e-02 1.262667e+04 
7.663100e-02 1.245590e+04 
7.791200e-02 1.227427e+04 
7.912700e-02 1.210977e+04 
8.027600e-02 1.195693e+04 
8.138400e-02 1.180982e+04 
8.272200e-02 1.162860e+04 
8.406100e-02 1.143922e+04 
8.534100e-02 1.124715e+04 
8.653800e-02 1.105613e+04 
8.759800e-02 1.088176e+04 
8.900300e-02 1.064148e+04 
9.009000e-02 1.044588e+04 
9.113300e-02 1.025341e+04 
9.239600e-02 1.001881e+04 
9.358000e-02 9.795497e+03 
9.496100e-02 9.534093e+03 
9.608400e-02 9.325025e+03 
9.727500e-02 9.107766e+03 
9.852600e-02 8.885968e+03 
9.973800e-02 8.681135e+03 
1.009000e-01 8.493474e+03 
1.020900e-01 8.313834e+03 
1.034000e-01 8.127077e+03 
1.046000e-01 7.966476e+03 
1.057200e-01 7.830694e+03 
1.069100e-01 7.693963e+03 
1.082500e-01 7.554837e+03 
1.093900e-01 7.445923e+03 
1.105400e-01 7.342407e+03 
1.116900e-01 7.249412e+03 
1.129600e-01 7.151822e+03 
1.142000e-01 7.064594e+03 
1.153300e-01 6.988019e+03 
1.166400e-01 6.902942e+03 
1.177800e-01 6.831382e+03 
1.190000e-01 6.756944e+03 
1.201200e-01 6.687022e+03 
1.213400e-01 6.612080e+03 
1.227100e-01 6.524364e+03 
1.238900e-01 6.449140e+03 
1.250700e-01 6.370404e+03 
1.263200e-01 6.287062e+03 
1.275500e-01 6.202782e+03 
1.287500e-01 6.119897e+03 
1.299900e-01 6.032167e+03 
1.311300e-01 5.952060e+03 
1.323500e-01 5.866319e+03 
1.335900e-01 5.780254e+03 
1.347100e-01 5.702997e+03 
1.359800e-01 5.617329e+03 
1.372100e-01 5.536241e+03 
1.384300e-01 5.457794e+03 
1.395700e-01 5.386483e+03 
1.407700e-01 5.313218e+03 
1.420300e-01 5.240213e+03 
1.432800e-01 5.169382e+03 
1.444500e-01 5.106591e+03 
1.456300e-01 5.044538e+03 
1.468900e-01 4.981836e+03 
1.480500e-01 4.925929e+03 
1.491700e-01 4.873664e+03 
1.503800e-01 4.819165e+03 
1.516400e-01 4.763954e+03 
1.528200e-01 4.715013e+03 
1.540200e-01 4.666187e+03 
1.551900e-01 4.620354e+03 
1.564300e-01 4.572908e+03 
1.576600e-01 4.526875e+03 
1.588700e-01 4.482595e+03 
1.600900e-01 4.438767e+03 
1.612700e-01 4.396928e+03 
1.625400e-01 4.352730e+03 
1.637600e-01 4.310885e+03 
1.649500e-01 4.270696e+03 
1.662200e-01 4.228423e+03 
1.674000e-01 4.188958e+03 
1.685000e-01 4.152779e+03 
1.697500e-01 4.111932e+03 
1.710300e-01 4.070432e+03 
1.722200e-01 4.032530e+03 
1.734400e-01 3.993185e+03 
1.746400e-01 3.955099e+03 
1.758700e-01 3.916520e+03 
1.770900e-01 3.878492e+03 
1.782700e-01 3.842321e+03 
1.794600e-01 3.806189e+03 
1.807000e-01 3.768995e+03 
1.819100e-01 3.733305e+03 
1.830100e-01 3.701379e+03 
1.842200e-01 3.666806e+03 
1.855000e-01 3.630865e+03 
1.867000e-01 3.598288e+03 
1.879200e-01 3.565694e+03 
1.890900e-01 3.534964e+03 
1.902800e-01 3.504393e+03 
1.915200e-01 3.473035e+03 
1.926900e-01 3.444122e+03 
1.939000e-01 3.415386e+03 
1.951700e-01 3.385696e+03 
1.963100e-01 3.359538e+03 
1.975100e-01 3.332650e+03 
1.987800e-01 3.304627e+03 
2.000100e-01 3.277972e+03 
2.012500e-01 3.251666e+03 
2.023400e-01 3.228869e+03 
2.036100e-01 3.202757e+03 
2.048900e-01 3.177125e+03 
2.060400e-01 3.154429e+03 
2.072200e-01 3.131465e+03 
2.084200e-01 3.108489e+03 
2.096900e-01 3.084524e+03 
2.109200e-01 3.061651e+03 
2.121100e-01 3.039629e+03 
2.132700e-01 3.018441e+03 
2.145200e-01 2.995924e+03 
2.157200e-01 2.974471e+03 
2.168800e-01 2.953945e+03 
2.180700e-01 2.933167e+03 
2.193400e-01 2.911217e+03 
2.206000e-01 2.889596e+03 
2.217500e-01 2.870126e+03 
2.229500e-01 2.850072e+03 
2.241400e-01 2.830283e+03 
2.253500e-01 2.810419e+03 
2.264900e-01 2.791943e+03 
2.277100e-01 2.772447e+03 
2.289900e-01 2.752295e+03 
2.301500e-01 2.734270e+03 
2.313600e-01 2.715703e+03 
2.325600e-01 2.697439e+03 
2.337700e-01 2.679255e+03 
2.350000e-01 2.661006e+03 
2.362000e-01 2.643566e+03 
2.374100e-01 2.626364e+03 
2.386500e-01 2.608957e+03 
2.399100e-01 2.591495e+03 
2.410400e-01 2.576146e+03 
2.422500e-01 2.559921e+03 
2.435000e-01 2.543366e+03 
2.447300e-01 2.527320e+03 
2.458700e-01 2.512792e+03 
2.470600e-01 2.497801e+03 
2.483300e-01 2.481996e+03 
2.495600e-01 2.466951e+03 
2.507600e-01 2.452548e+03 
2.519600e-01 2.438314e+03 
2.532200e-01 2.423545e+03 
2.543700e-01 2.410314e+03 
2.555500e-01 2.396952e+03 
2.568000e-01 2.382961e+03 
2.580100e-01 2.369576e+03 
2.592400e-01 2.356134e+03 
2.604100e-01 2.343495e+03 
2.616100e-01 2.330676e+03 
2.628400e-01 2.317685e+03 
2.640600e-01 2.305094e+03 
2.652200e-01 2.293312e+03 
2.664300e-01 2.281157e+03 
2.676500e-01 2.269037e+03 
2.688400e-01 2.257239e+03 
2.700700e-01 2.245112e+03 
2.712400e-01 2.233701e+03 
2.724800e-01 2.221739e+03 
2.736700e-01 2.210357e+03 
2.748800e-01 2.198881e+03 
2.761000e-01 2.187435e+03 
2.773200e-01 2.176113e+03 
2.785400e-01 2.164920e+03 
2.797000e-01 2.154408e+03 
2.808900e-01 2.143735e+03 
2.821400e-01 2.132642e+03 
2.833900e-01 2.121663e+03 
2.845500e-01 2.111438e+03 
2.857800e-01 2.100707e+03 
2.870300e-01 2.089917e+03 
2.882100e-01 2.079837e+03 
2.893900e-01 2.069820e+03 
2.906300e-01 2.059382e+03 
2.918900e-01 2.048886e+03 
2.930500e-01 2.039322e+03 
2.942500e-01 2.029515e+03 
2.954200e-01 2.020019e+03 
2.966500e-01 2.010134e+03 
2.978900e-01 2.000270e+03 
2.990400e-01 1.991212e+03 
3.002700e-01 1.981585e+03 
3.015100e-01 1.971962e+03 
3.026800e-01 1.962970e+03 
3.038500e-01 1.954063e+03 
3.050300e-01 1.945165e+03 
3.062600e-01 1.935943e+03 
3.075000e-01 1.926737e+03 
3.087000e-01 1.917915e+03 
3.099100e-01 1.909103e+03 
3.111200e-01 1.900363e+03 
3.123100e-01 1.891824e+03 
3.135300e-01 1.883153e+03 
3.147300e-01 1.874704e+03 
3.159900e-01 1.865917e+03 
3.171800e-01 1.857771e+03 
3.183700e-01 1.849748e+03 
3.196300e-01 1.841333e+03 
3.208400e-01 1.833328e+03 
3.220300e-01 1.825527e+03 
3.232000e-01 1.817840e+03 
3.244300e-01 1.809798e+03 
3.256700e-01 1.801767e+03 
3.269200e-01 1.793746e+03 
3.280800e-01 1.786370e+03 
3.292500e-01 1.779085e+03 
3.304800e-01 1.771524e+03 
3.317100e-01 1.764032e+03 
3.328900e-01 1.756908e+03 
3.340700e-01 1.749846e+03 
3.353600e-01 1.742217e+03 
3.365300e-01 1.735367e+03 
3.377100e-01 1.728519e+03 
3.389200e-01 1.721557e+03 
3.401600e-01 1.714485e+03 
3.413700e-01 1.707659e+03 
3.425300e-01 1.701181e+03 
3.437700e-01 1.694315e+03 
3.449800e-01 1.687674e+03 
3.461800e-01 1.681144e+03 
3.473600e-01 1.674768e+03 
3.485800e-01 1.668207e+03 
3.498100e-01 1.661649e+03 
3.510200e-01 1.655254e+03 
3.522000e-01 1.649069e+03 
3.533900e-01 1.642882e+03 
3.546400e-01 1.636519e+03 
3.558400e-01 1.630467e+03 
3.570600e-01 1.624366e+03 
3.582700e-01 1.618365e+03 
3.595000e-01 1.612315e+03 
3.607100e-01 1.606424e+03 
3.618900e-01 1.600732e+03 
3.631200e-01 1.594848e+03 
3.643200e-01 1.589155e+03 
3.655500e-01 1.583368e+03 
3.667300e-01 1.577860e+03 
3.679500e-01 1.572219e+03 
3.691900e-01 1.566532e+03 
3.703600e-01 1.561210e+03 
3.715700e-01 1.555749e+03 
3.727700e-01 1.550376e+03 
3.739900e-01 1.544967e+03 
3.752000e-01 1.539663e+03 
3.763900e-01 1.534487e+03 
3.775800e-01 1.529351e+03 
3.788200e-01 1.524042e+03 
3.800300e-01 1.518903e+03 
3.812100e-01 1.513902e+03 
3.824200e-01 1.508796e+03 
3.836100e-01 1.503812e+03 
3.848600e-01 1.498618e+03 
3.860400e-01 1.493754e+03 
3.872400e-01 1.488844e+03 
3.884600e-01 1.483900e+03 
3.896500e-01 1.479117e+03 
3.908700e-01 1.474251e+03 
3.920600e-01 1.469541e+03 
3.933100e-01 1.464632e+03 
3.945300e-01 1.459877e+03 
3.957200e-01 1.455284e+03 
3.969300e-01 1.450652e+03 
3.981700e-01 1.445941e+03 
3.993500e-01 1.441492e+03 
4.094840e-01 1.404354e+03 
4.272360e-01 1.344171e+03 
4.454600e-01 1.287433e+03 
4.630560e-01 1.237254e+03 
4.804610e-01 1.191242e+03 
4.980690e-01 1.148065e+03 
5.159230e-01 1.107416e+03 
5.317440e-01 1.073587e+03 
5.489640e-01 1.039203e+03 
5.671990e-01 1.005042e+03 
5.838690e-01 9.757286e+02 
6.018840e-01 9.459855e+02 
6.202330e-01 9.175381e+02 
6.379250e-01 8.917177e+02 
6.545410e-01 8.686597e+02 
6.714560e-01 8.463674e+02 
6.892080e-01 8.241079e+02 
7.066010e-01 8.033808e+02 
7.240540e-01 7.835678e+02 
7.420450e-01 7.639170e+02 
7.593780e-01 7.459402e+02 
7.764720e-01 7.288673e+02 
7.942840e-01 7.118554e+02 
8.116170e-01 6.958630e+02 
8.288310e-01 6.805814e+02 
8.462240e-01 6.656597e+02 
8.631980e-01 6.516737e+02 
8.810700e-01 6.373889e+02 
8.989410e-01 6.236336e+02 
9.166330e-01 6.104306e+02 
9.345640e-01 5.974727e+02 
9.515980e-01 5.855449e+02 
9.688720e-01 5.737782e+02 
9.865640e-01 5.620591e+02 
1.031870e+00 5.337513e+02 
1.063490e+00 5.151539e+02 
1.097920e+00 4.959032e+02 
1.134370e+00 4.766166e+02 
1.167730e+00 4.599262e+02 
1.203830e+00 4.427531e+02 
1.240470e+00 4.262501e+02 
1.275790e+00 4.111012e+02 
1.309140e+00 3.975116e+02 
1.342970e+00 3.843553e+02 
1.378420e+00 3.712255e+02 
1.413200e+00 3.589375e+02 
1.448110e+00 3.471535e+02 
1.484090e+00 3.355743e+02 
1.518820e+00 3.248889e+02 
1.552880e+00 3.148833e+02 
1.588630e+00 3.048541e+02 
1.623230e+00 2.955684e+02 
1.657720e+00 2.867262e+02 
1.692450e+00 2.781865e+02 
1.726400e+00 2.701709e+02 
1.762200e+00 2.620604e+02 
1.797880e+00 2.543190e+02 
1.833270e+00 2.469765e+02 
1.869070e+00 2.398247e+02 
1.903200e+00 2.332992e+02 
1.937740e+00 2.269404e+02 
1.973190e+00 2.206598e+02 
2.007440e+00 2.148301e+02 
2.042160e+00 2.091562e+02 
2.077900e+00 2.035003e+02 
2.112390e+00 1.982708e+02 
2.146220e+00 1.933192e+02 
2.181600e+00 1.883167e+02 
2.216930e+00 1.835226e+02 
2.250760e+00 1.790817e+02 
2.286500e+00 1.745460e+02 
2.321770e+00 1.702402e+02 
2.355950e+00 1.662059e+02 
2.391280e+00 1.621942e+02 
2.426240e+00 1.583390e+02 
2.460670e+00 1.546666e+02 
2.495640e+00 1.510716e+02 
2.531080e+00 1.475384e+02 
2.566220e+00 1.441464e+02 
2.600830e+00 1.409199e+02 
2.635080e+00 1.378380e+02 
2.670340e+00 1.347535e+02 
2.705970e+00 1.317342e+02 
2.740040e+00 1.289349e+02 
2.774520e+00 1.261810e+02 
2.809730e+00 1.234641e+02 
2.844390e+00 1.208736e+02 
2.879960e+00 1.182897e+02 
2.914860e+00 1.158262e+02 
2.949410e+00 1.134601e+02 
2.984440e+00 1.111372e+02 
3.019760e+00 1.088608e+02 
3.054730e+00 1.066711e+02 
3.089030e+00 1.045782e+02 
3.124060e+00 1.025000e+02 
3.159560e+00 1.004515e+02 
3.194710e+00 9.848502e+01 
3.229010e+00 9.662059e+01 
3.263320e+00 9.480040e+01 
3.297930e+00 9.301645e+01 
3.332830e+00 9.127051e+01 
3.368040e+00 8.955364e+01 
3.403300e+00 8.787856e+01 
3.438450e+00 8.624973e+01 
3.473060e+00 8.468747e+01 
3.508440e+00 8.313663e+01 
3.543110e+00 8.165591e+01 
3.577470e+00 8.022190e+01 
3.613040e+00 7.877652e+01 
3.648120e+00 7.739079e+01 
3.682910e+00 7.604952e+01 
3.718050e+00 7.472568e+01 
3.753320e+00 7.343176e+01 
3.787980e+00 7.219391e+01 
3.822290e+00 7.099651e+01 
3.857020e+00 6.981116e+01 
3.891920e+00 6.864723e+01 
3.926650e+00 6.751429e+01 
3.961970e+00 6.639030e+01 
3.997360e+00 6.529317e+01 
4.031670e+00 6.425477e+01 
4.066330e+00 6.323265e+01 
4.101420e+00 6.222124e+01 
4.136200e+00 6.123900e+01 
4.170810e+00 6.028331e+01 
4.206250e+00 5.932911e+01 
4.241580e+00 5.839957e+01 
4.276300e+00 5.750446e+01 
4.310970e+00 5.662900e+01 
4.346120e+00 5.576178e+01 
4.380600e+00 5.493130e+01 
4.414730e+00 5.412634e+01 
4.450350e+00 5.330229e+01 
4.485320e+00 5.251039e+01 
4.519810e+00 5.174733e+01 
4.555430e+00 5.097640e+01 
4.590870e+00 5.022478e+01 
4.625480e+00 4.950458e+01 
4.659910e+00 4.880245e+01 
4.695230e+00 4.809922e+01 
4.729960e+00 4.742194e+01 
4.764450e+00 4.676335e+01 
4.799530e+00 4.610796e+01 
4.834910e+00 4.545995e+01 
4.869700e+00 4.483722e+01 
4.904370e+00 4.422883e+01 
4.939450e+00 4.362457e+01 
4.973940e+00 4.304067e+01 
5.008430e+00 4.246765e+01 
5.043810e+00 4.189027e+01 
5.078840e+00 4.132900e+01 
5.113500e+00 4.078393e+01 
5.148890e+00 4.024271e+01 
5.184210e+00 3.971275e+01 
5.219060e+00 3.919906e+01 
5.253660e+00 3.869736e+01 
5.288570e+00 3.820019e+01 
5.323420e+00 3.771235e+01 
5.358440e+00 3.723042e+01 
5.393590e+00 3.675525e+01 
5.428310e+00 3.629713e+01 
5.462800e+00 3.585145e+01 
5.497640e+00 3.540895e+01 
5.532670e+00 3.497088e+01 
5.567280e+00 3.454518e+01 
5.602000e+00 3.412532e+01 
5.637270e+00 3.370553e+01 
5.672410e+00 3.329425e+01 
5.707020e+00 3.289594e+01 
5.742040e+00 3.250100e+01 
5.777430e+00 3.210882e+01 
5.812210e+00 3.172975e+01 
5.846820e+00 3.135968e+01 
5.881610e+00 3.099394e+01 
5.916510e+00 3.063295e+01 
5.951600e+00 3.027539e+01 
5.986560e+00 2.992466e+01 
6.021830e+00 2.957647e+01 
6.056490e+00 2.924149e+01 
6.091160e+00 2.891311e+01 
6.125830e+00 2.858981e+01 
6.161090e+00 2.826539e+01 
6.195760e+00 2.794979e+01 
6.230420e+00 2.763909e+01 
6.265690e+00 2.732782e+01 
6.300950e+00 2.702265e+01 
6.335620e+00 2.672713e+01 
6.370880e+00 2.643112e+01 
6.405550e+00 2.614524e+01 
6.440220e+00 2.586393e+01 
6.475480e+00 2.558207e+01 
6.510150e+00 2.530890e+01 
6.544810e+00 2.503949e+01 
6.580080e+00 2.476935e+01 
6.614750e+00 2.450768e+01 
6.649410e+00 2.425082e+01 
6.684080e+00 2.399776e+01 
6.719340e+00 2.374408e+01 
6.754010e+00 2.349807e+01 
6.788680e+00 2.325522e+01 
6.823940e+00 2.301174e+01 
6.859800e+00 2.276766e+01 
6.894470e+00 2.253571e+01 
6.929140e+00 2.230722e+01 
6.963800e+00 2.208193e+01 
6.999070e+00 2.185584e+01 
7.033730e+00 2.163648e+01 
7.068400e+00 2.142005e+01 
7.103660e+00 2.120294e+01 
7.138330e+00 2.099265e+01 
7.173600e+00 2.078221e+01 
7.208260e+00 2.057820e+01 
7.243530e+00 2.037337e+01 
7.277600e+00 2.017803e+01 
7.312860e+00 1.997844e+01 
7.348120e+00 1.978150e+01 
7.382790e+00 1.959042e+01 
7.417460e+00 1.940232e+01 
7.452720e+00 1.921379e+01 
7.487390e+00 1.903082e+01 
7.522650e+00 1.884714e+01 
7.557320e+00 1.866870e+01 
7.591990e+00 1.849248e+01 
7.627250e+00 1.831555e+01 
7.662510e+00 1.814090e+01 
7.697180e+00 1.797120e+01 
7.731850e+00 1.780357e+01 
7.766510e+00 1.763809e+01 
7.801180e+00 1.747462e+01 
7.836440e+00 1.731093e+01 
7.871110e+00 1.715230e+01 
7.906380e+00 1.699292e+01 
7.941040e+00 1.683823e+01 
7.976310e+00 1.668224e+01 
8.011570e+00 1.652762e+01 
8.046240e+00 1.637745e+01 
8.080900e+00 1.622914e+01 
8.115570e+00 1.608288e+01 
8.150830e+00 1.593714e+01 
8.185500e+00 1.579556e+01 
8.220770e+00 1.565325e+01 
8.255430e+00 1.551507e+01 
8.290100e+00 1.537778e+01 
8.324770e+00 1.524202e+01 
8.359430e+00 1.510789e+01 
8.394700e+00 1.497301e+01 
8.429960e+00 1.484003e+01 
8.464630e+00 1.471105e+01 
8.499890e+00 1.458141e+01 
8.534560e+00 1.445541e+01 
8.569200e+00 1.433096e+01 
