# Parameters:
# omega_b = 0.022445, omega_m = 0.145354, n_s = 1.002756, h = 55.236220, w = -1.000000, sigma_8 = 0.882677
# z = 0.100000
#
# k[1/Mpc] # P(k):
8.694000e-04 1.660982e+04 
2.077466e-03 3.665159e+04 
3.285532e-03 5.299437e+04 
4.493598e-03 6.604350e+04 
5.701664e-03 7.610947e+04 
6.909730e-03 8.357675e+04 
8.117797e-03 8.894792e+04 
9.325863e-03 9.247845e+04 
1.053393e-02 9.443739e+04 
1.174199e-02 9.508808e+04 
1.295006e-02 9.459550e+04 
1.415813e-02 9.319916e+04 
1.536619e-02 9.110839e+04 
1.657426e-02 8.834084e+04 
1.778233e-02 8.463950e+04 
1.899039e-02 8.052256e+04 
2.019846e-02 7.690137e+04 
2.140652e-02 7.377614e+04 
2.261459e-02 7.081157e+04 
2.382266e-02 6.793485e+04 
2.503072e-02 6.517909e+04 
2.623879e-02 6.256621e+04 
2.744685e-02 6.010496e+04 
2.865492e-02 5.781464e+04 
2.986299e-02 5.569699e+04 
3.100100e-02 5.385665e+04 
3.220400e-02 5.206954e+04 
3.288100e-02 5.113218e+04 
3.424300e-02 4.938837e+04 
3.555100e-02 4.787136e+04 
3.686000e-02 4.648952e+04 
3.795000e-02 4.543571e+04 
3.929100e-02 4.423259e+04 
4.039800e-02 4.330053e+04 
4.164000e-02 4.232124e+04 
4.294400e-02 4.133031e+04 
4.415000e-02 4.045613e+04 
4.542900e-02 3.954106e+04 
4.660900e-02 3.871796e+04 
4.782300e-02 3.785347e+04 
4.892900e-02 3.707821e+04 
5.031200e-02 3.609864e+04 
5.155900e-02 3.520210e+04 
5.238100e-02 3.460787e+04 
5.378200e-02 3.359439e+04 
5.513400e-02 3.261058e+04 
5.627600e-02 3.177650e+04 
5.735300e-02 3.099539e+04 
5.870100e-02 3.003010e+04 
5.988700e-02 2.919827e+04 
6.113500e-02 2.833942e+04 
6.225900e-02 2.758798e+04 
6.340100e-02 2.684601e+04 
6.480200e-02 2.597041e+04 
6.601100e-02 2.525289e+04 
6.725500e-02 2.455087e+04 
6.829100e-02 2.399902e+04 
6.958600e-02 2.334188e+04 
7.071100e-02 2.281114e+04 
7.192300e-02 2.227688e+04 
7.307400e-02 2.180186e+04 
7.412300e-02 2.139682e+04 
7.550400e-02 2.090842e+04 
7.663100e-02 2.053846e+04 
7.791200e-02 2.015059e+04 
7.912700e-02 1.981335e+04 
8.027600e-02 1.951570e+04 
8.138400e-02 1.924496e+04 
8.272200e-02 1.893544e+04 
8.406100e-02 1.863762e+04 
8.534100e-02 1.836278e+04 
8.653800e-02 1.810778e+04 
8.759800e-02 1.788427e+04 
8.900300e-02 1.758795e+04 
9.009000e-02 1.735248e+04 
9.113300e-02 1.712395e+04 
9.239600e-02 1.684609e+04 
9.358000e-02 1.658000e+04 
9.496100e-02 1.626328e+04 
9.608400e-02 1.600515e+04 
9.727500e-02 1.573255e+04 
9.852600e-02 1.544220e+04 
9.973800e-02 1.516782e+04 
1.009000e-01 1.491117e+04 
1.020900e-01 1.465081e+04 
1.034000e-01 1.437276e+04 
1.046000e-01 1.412588e+04 
1.057200e-01 1.390432e+04 
1.069100e-01 1.367637e+04 
1.082500e-01 1.343079e+04 
1.093900e-01 1.323067e+04 
1.105400e-01 1.303566e+04 
1.116900e-01 1.285113e+04 
1.129600e-01 1.265471e+04 
1.142000e-01 1.247345e+04 
1.153300e-01 1.231406e+04 
1.166400e-01 1.213651e+04 
1.177800e-01 1.199000e+04 
1.190000e-01 1.183891e+04 
1.201200e-01 1.170525e+04 
1.213400e-01 1.156340e+04 
1.227100e-01 1.141161e+04 
1.238900e-01 1.128443e+04 
1.250700e-01 1.116078e+04 
1.263200e-01 1.103324e+04 
1.275500e-01 1.091154e+04 
1.287500e-01 1.079458e+04 
1.299900e-01 1.067496e+04 
1.311300e-01 1.056723e+04 
1.323500e-01 1.045416e+04 
1.335900e-01 1.034067e+04 
1.347100e-01 1.023883e+04 
1.359800e-01 1.012505e+04 
1.372100e-01 1.001573e+04 
1.384300e-01 9.908607e+03 
1.395700e-01 9.808117e+03 
1.407700e-01 9.704320e+03 
1.420300e-01 9.595915e+03 
1.432800e-01 9.490675e+03 
1.444500e-01 9.391966e+03 
1.456300e-01 9.294380e+03 
1.468900e-01 9.192171e+03 
1.480500e-01 9.099920e+03 
1.491700e-01 9.012165e+03 
1.503800e-01 8.918709e+03 
1.516400e-01 8.823626e+03 
1.528200e-01 8.737614e+03 
1.540200e-01 8.651797e+03 
1.551900e-01 8.570633e+03 
1.564300e-01 8.486464e+03 
1.576600e-01 8.404973e+03 
1.588700e-01 8.326794e+03 
1.600900e-01 8.249472e+03 
1.612700e-01 8.176803e+03 
1.625400e-01 8.100032e+03 
1.637600e-01 8.028361e+03 
1.649500e-01 7.960113e+03 
1.662200e-01 7.888593e+03 
1.674000e-01 7.823308e+03 
1.685000e-01 7.763458e+03 
1.697500e-01 7.696657e+03 
1.710300e-01 7.629550e+03 
1.722200e-01 7.568257e+03 
1.734400e-01 7.505783e+03 
1.746400e-01 7.445345e+03 
1.758700e-01 7.384346e+03 
1.770900e-01 7.324667e+03 
1.782700e-01 7.267895e+03 
1.794600e-01 7.211366e+03 
1.807000e-01 7.153294e+03 
1.819100e-01 7.097561e+03 
1.830100e-01 7.047597e+03 
1.842200e-01 6.993467e+03 
1.855000e-01 6.937173e+03 
1.867000e-01 6.885894e+03 
1.879200e-01 6.834582e+03 
1.890900e-01 6.786101e+03 
1.902800e-01 6.737357e+03 
1.915200e-01 6.687355e+03 
1.926900e-01 6.641129e+03 
1.939000e-01 6.594794e+03 
1.951700e-01 6.546921e+03 
1.963100e-01 6.504574e+03 
1.975100e-01 6.460587e+03 
1.987800e-01 6.414746e+03 
2.000100e-01 6.370994e+03 
2.012500e-01 6.327467e+03 
2.023400e-01 6.289747e+03 
2.036100e-01 6.246482e+03 
2.048900e-01 6.203766e+03 
2.060400e-01 6.165946e+03 
2.072200e-01 6.127670e+03 
2.084200e-01 6.089214e+03 
2.096900e-01 6.049105e+03 
2.109200e-01 6.010827e+03 
2.121100e-01 5.973857e+03 
2.132700e-01 5.938284e+03 
2.145200e-01 5.900482e+03 
2.157200e-01 5.864468e+03 
2.168800e-01 5.830013e+03 
2.180700e-01 5.795136e+03 
2.193400e-01 5.758295e+03 
2.206000e-01 5.722010e+03 
2.217500e-01 5.689335e+03 
2.229500e-01 5.655682e+03 
2.241400e-01 5.622490e+03 
2.253500e-01 5.589175e+03 
2.264900e-01 5.558188e+03 
2.277100e-01 5.525505e+03 
2.289900e-01 5.491739e+03 
2.301500e-01 5.461538e+03 
2.313600e-01 5.430431e+03 
2.325600e-01 5.399805e+03 
2.337700e-01 5.369315e+03 
2.350000e-01 5.338718e+03 
2.362000e-01 5.309496e+03 
2.374100e-01 5.280697e+03 
2.386500e-01 5.251557e+03 
2.399100e-01 5.222329e+03 
2.410400e-01 5.196618e+03 
2.422500e-01 5.169440e+03 
2.435000e-01 5.141715e+03 
2.447300e-01 5.114846e+03 
2.458700e-01 5.090520e+03 
2.470600e-01 5.065426e+03 
2.483300e-01 5.038974e+03 
2.495600e-01 5.013788e+03 
2.507600e-01 4.989670e+03 
2.519600e-01 4.965839e+03 
2.532200e-01 4.941119e+03 
2.543700e-01 4.918957e+03 
2.555500e-01 4.896567e+03 
2.568000e-01 4.873130e+03 
2.580100e-01 4.850714e+03 
2.592400e-01 4.828164e+03 
2.604100e-01 4.806948e+03 
2.616100e-01 4.785436e+03 
2.628400e-01 4.763641e+03 
2.640600e-01 4.742534e+03 
2.652200e-01 4.722795e+03 
2.664300e-01 4.702436e+03 
2.676500e-01 4.682144e+03 
2.688400e-01 4.662311e+03 
2.700700e-01 4.641877e+03 
2.712400e-01 4.622657e+03 
2.724800e-01 4.602513e+03 
2.736700e-01 4.583313e+03 
2.748800e-01 4.563916e+03 
2.761000e-01 4.544576e+03 
2.773200e-01 4.525451e+03 
2.785400e-01 4.506533e+03 
2.797000e-01 4.488730e+03 
2.808900e-01 4.470660e+03 
2.821400e-01 4.451886e+03 
2.833900e-01 4.433304e+03 
2.845500e-01 4.415866e+03 
2.857800e-01 4.397571e+03 
2.870300e-01 4.379180e+03 
2.882100e-01 4.362004e+03 
2.893900e-01 4.344882e+03 
2.906300e-01 4.327012e+03 
2.918900e-01 4.309049e+03 
2.930500e-01 4.292684e+03 
2.942500e-01 4.275885e+03 
2.954200e-01 4.259539e+03 
2.966500e-01 4.242529e+03 
2.978900e-01 4.225560e+03 
2.990400e-01 4.209981e+03 
3.002700e-01 4.193364e+03 
3.015100e-01 4.176725e+03 
3.026800e-01 4.161184e+03 
3.038500e-01 4.145793e+03 
3.050300e-01 4.130417e+03 
3.062600e-01 4.114345e+03 
3.075000e-01 4.098305e+03 
3.087000e-01 4.082937e+03 
3.099100e-01 4.067593e+03 
3.111200e-01 4.052352e+03 
3.123100e-01 4.037426e+03 
3.135300e-01 4.022272e+03 
3.147300e-01 4.007511e+03 
3.159900e-01 3.992163e+03 
3.171800e-01 3.977940e+03 
3.183700e-01 3.963936e+03 
3.196300e-01 3.949252e+03 
3.208400e-01 3.935288e+03 
3.220300e-01 3.921685e+03 
3.232000e-01 3.908159e+03 
3.244300e-01 3.893964e+03 
3.256700e-01 3.879790e+03 
3.269200e-01 3.865639e+03 
3.280800e-01 3.852628e+03 
3.292500e-01 3.839804e+03 
3.304800e-01 3.826502e+03 
3.317100e-01 3.813326e+03 
3.328900e-01 3.800801e+03 
3.340700e-01 3.788390e+03 
3.353600e-01 3.774929e+03 
3.365300e-01 3.762828e+03 
3.377100e-01 3.750731e+03 
3.389200e-01 3.738438e+03 
3.401600e-01 3.725956e+03 
3.413700e-01 3.713877e+03 
3.425300e-01 3.702393e+03 
3.437700e-01 3.690226e+03 
3.449800e-01 3.678461e+03 
3.461800e-01 3.666897e+03 
3.473600e-01 3.655594e+03 
3.485800e-01 3.643934e+03 
3.498100e-01 3.632284e+03 
3.510200e-01 3.620924e+03 
3.522000e-01 3.609943e+03 
3.533900e-01 3.598963e+03 
3.546400e-01 3.587615e+03 
3.558400e-01 3.576823e+03 
3.570600e-01 3.565946e+03 
3.582700e-01 3.555252e+03 
3.595000e-01 3.544477e+03 
3.607100e-01 3.533957e+03 
3.618900e-01 3.523775e+03 
3.631200e-01 3.513253e+03 
3.643200e-01 3.503076e+03 
3.655500e-01 3.492734e+03 
3.667300e-01 3.482897e+03 
3.679500e-01 3.472737e+03 
3.691900e-01 3.462500e+03 
3.703600e-01 3.452923e+03 
3.715700e-01 3.443099e+03 
3.727700e-01 3.433439e+03 
3.739900e-01 3.423712e+03 
3.752000e-01 3.414168e+03 
3.763900e-01 3.404859e+03 
3.775800e-01 3.395626e+03 
3.788200e-01 3.386086e+03 
3.800300e-01 3.376855e+03 
3.812100e-01 3.367811e+03 
3.824200e-01 3.358533e+03 
3.836100e-01 3.349483e+03 
3.848600e-01 3.340055e+03 
3.860400e-01 3.331227e+03 
3.872400e-01 3.322321e+03 
3.884600e-01 3.313303e+03 
3.896500e-01 3.304562e+03 
3.908700e-01 3.295674e+03 
3.920600e-01 3.287073e+03 
3.933100e-01 3.278111e+03 
3.945300e-01 3.269435e+03 
3.957200e-01 3.261034e+03 
3.969300e-01 3.252558e+03 
3.981700e-01 3.243941e+03 
3.993500e-01 3.235806e+03 
4.094840e-01 3.167412e+03 
4.272360e-01 3.055074e+03 
4.454600e-01 2.947355e+03 
4.630560e-01 2.850822e+03 
4.804610e-01 2.760791e+03 
4.980690e-01 2.675194e+03 
5.159230e-01 2.593432e+03 
5.317440e-01 2.524545e+03 
5.489640e-01 2.453532e+03 
5.671990e-01 2.381765e+03 
5.838690e-01 2.319300e+03 
6.018840e-01 2.255001e+03 
6.202330e-01 2.192307e+03 
6.379250e-01 2.134663e+03 
6.545410e-01 2.082109e+03 
6.714560e-01 2.030673e+03 
6.892080e-01 1.978352e+03 
7.066010e-01 1.928953e+03 
7.240540e-01 1.881119e+03 
7.420450e-01 1.832860e+03 
7.593780e-01 1.788167e+03 
7.764720e-01 1.745265e+03 
7.942840e-01 1.702036e+03 
8.116170e-01 1.660998e+03 
8.288310e-01 1.621391e+03 
8.462240e-01 1.582450e+03 
8.631980e-01 1.545682e+03 
8.810700e-01 1.507927e+03 
8.989410e-01 1.471392e+03 
9.166330e-01 1.436177e+03 
9.345640e-01 1.401497e+03 
9.515980e-01 1.369501e+03 
9.688720e-01 1.337859e+03 
9.865640e-01 1.306321e+03 
1.031870e+00 1.230054e+03 
1.063490e+00 1.180021e+03 
1.097920e+00 1.128321e+03 
1.134370e+00 1.076773e+03 
1.167730e+00 1.032356e+03 
1.203830e+00 9.869249e+02 
1.240470e+00 9.435206e+02 
1.275790e+00 9.039615e+02 
1.309140e+00 8.687209e+02 
1.342970e+00 8.348379e+02 
1.378420e+00 8.012498e+02 
1.413200e+00 7.700787e+02 
1.448110e+00 7.404023e+02 
1.484090e+00 7.114591e+02 
1.518820e+00 6.849545e+02 
1.552880e+00 6.603280e+02 
1.588630e+00 6.358051e+02 
1.623230e+00 6.132711e+02 
1.657720e+00 5.919491e+02 
1.692450e+00 5.714869e+02 
1.726400e+00 5.524362e+02 
1.762200e+00 5.332863e+02 
1.797880e+00 5.151364e+02 
1.833270e+00 4.980174e+02 
1.869070e+00 4.814717e+02 
1.903200e+00 4.664553e+02 
1.937740e+00 4.519089e+02 
1.973190e+00 4.376297e+02 
2.007440e+00 4.244509e+02 
2.042160e+00 4.116941e+02 
2.077900e+00 3.990566e+02 
2.112390e+00 3.874243e+02 
2.146220e+00 3.764782e+02 
2.181600e+00 3.654779e+02 
2.216930e+00 3.549849e+02 
2.250760e+00 3.453151e+02 
2.286500e+00 3.354870e+02 
2.321770e+00 3.261971e+02 
2.355950e+00 3.175352e+02 
2.391280e+00 3.089624e+02 
2.426240e+00 3.007655e+02 
2.460670e+00 2.929897e+02 
2.495640e+00 2.854050e+02 
2.531080e+00 2.779898e+02 
2.566220e+00 2.709003e+02 
2.600830e+00 2.641804e+02 
2.635080e+00 2.577823e+02 
2.670340e+00 2.514129e+02 
2.705970e+00 2.452005e+02 
2.740040e+00 2.394598e+02 
2.774520e+00 2.338359e+02 
2.809730e+00 2.283061e+02 
2.844390e+00 2.230488e+02 
2.879960e+00 2.178257e+02 
2.914860e+00 2.128656e+02 
2.949410e+00 2.081142e+02 
2.984440e+00 2.034652e+02 
3.019760e+00 1.989239e+02 
3.054730e+00 1.945664e+02 
3.089030e+00 1.904208e+02 
3.124060e+00 1.863137e+02 
3.159560e+00 1.822771e+02 
3.194710e+00 1.784143e+02 
3.229010e+00 1.747585e+02 
3.263320e+00 1.712043e+02 
3.297930e+00 1.677268e+02 
3.332830e+00 1.643326e+02 
3.368040e+00 1.610040e+02 
3.403300e+00 1.577637e+02 
3.438450e+00 1.546233e+02 
3.473060e+00 1.516155e+02 
3.508440e+00 1.486401e+02 
3.543110e+00 1.458028e+02 
3.577470e+00 1.430644e+02 
3.613040e+00 1.403081e+02 
3.648120e+00 1.376724e+02 
3.682910e+00 1.351255e+02 
3.718050e+00 1.326183e+02 
3.753320e+00 1.301717e+02 
3.787980e+00 1.278360e+02 
3.822290e+00 1.255805e+02 
3.857020e+00 1.233529e+02 
3.891920e+00 1.211690e+02 
3.926650e+00 1.190480e+02 
3.961970e+00 1.169465e+02 
3.997360e+00 1.148998e+02 
4.031670e+00 1.129646e+02 
4.066330e+00 1.110640e+02 
4.101420e+00 1.091846e+02 
4.136200e+00 1.073645e+02 
4.170810e+00 1.055945e+02 
4.206250e+00 1.038313e+02 
4.241580e+00 1.021152e+02 
4.276300e+00 1.004658e+02 
4.310970e+00 9.885460e+01 
4.346120e+00 9.726045e+01 
4.380600e+00 9.573630e+01 
4.414730e+00 9.425978e+01 
4.450350e+00 9.275185e+01 
4.485320e+00 9.130344e+01 
4.519810e+00 8.990998e+01 
4.555430e+00 8.850350e+01 
4.590870e+00 8.713369e+01 
4.625480e+00 8.582342e+01 
4.659910e+00 8.454656e+01 
4.695230e+00 8.326974e+01 
4.729960e+00 8.204079e+01 
4.764450e+00 8.084681e+01 
4.799530e+00 7.966008e+01 
4.834910e+00 7.848722e+01 
4.869700e+00 7.736181e+01 
4.904370e+00 7.626297e+01 
4.939450e+00 7.517244e+01 
4.973940e+00 7.412009e+01 
5.008430e+00 7.308774e+01 
5.043810e+00 7.204878e+01 
5.078840e+00 7.103967e+01 
5.113500e+00 7.006005e+01 
5.148890e+00 6.908824e+01 
5.184210e+00 6.813701e+01 
5.219060e+00 6.721566e+01 
5.253660e+00 6.631705e+01 
5.288570e+00 6.542688e+01 
5.323420e+00 6.455403e+01 
5.358440e+00 6.369241e+01 
5.393590e+00 6.284320e+01 
5.428310e+00 6.202493e+01 
5.462800e+00 6.122926e+01 
5.497640e+00 6.043954e+01 
5.532670e+00 5.965851e+01 
5.567280e+00 5.889993e+01 
5.602000e+00 5.815203e+01 
5.637270e+00 5.740492e+01 
5.672410e+00 5.667332e+01 
5.707020e+00 5.596502e+01 
5.742040e+00 5.526324e+01 
5.777430e+00 5.456666e+01 
5.812210e+00 5.389360e+01 
5.846820e+00 5.323685e+01 
5.881610e+00 5.258803e+01 
5.916510e+00 5.194785e+01 
5.951600e+00 5.131415e+01 
5.986560e+00 5.069285e+01 
6.021830e+00 5.007626e+01 
6.056490e+00 4.948323e+01 
6.091160e+00 4.890209e+01 
6.125830e+00 4.833012e+01 
6.161090e+00 4.775645e+01 
6.195760e+00 4.719873e+01 
6.230420e+00 4.664987e+01 
6.265690e+00 4.610019e+01 
6.300950e+00 4.556152e+01 
6.335620e+00 4.504006e+01 
6.370880e+00 4.451791e+01 
6.405550e+00 4.401372e+01 
6.440220e+00 4.351770e+01 
6.475480e+00 4.302090e+01 
6.510150e+00 4.253960e+01 
6.544810e+00 4.206523e+01 
6.580080e+00 4.158973e+01 
6.614750e+00 4.112928e+01 
6.649410e+00 4.067735e+01 
6.684080e+00 4.023222e+01 
6.719340e+00 3.978615e+01 
6.754010e+00 3.935375e+01 
6.788680e+00 3.892709e+01 
6.823940e+00 3.849945e+01 
6.859800e+00 3.807093e+01 
6.894470e+00 3.766378e+01 
6.929140e+00 3.726281e+01 
6.963800e+00 3.686761e+01 
6.999070e+00 3.647112e+01 
7.033730e+00 3.608656e+01 
7.068400e+00 3.570724e+01 
7.103660e+00 3.532687e+01 
7.138330e+00 3.495855e+01 
7.173600e+00 3.459003e+01 
7.208260e+00 3.423288e+01 
7.243530e+00 3.387444e+01 
7.277600e+00 3.353272e+01 
7.312860e+00 3.318370e+01 
7.348120e+00 3.283945e+01 
7.382790e+00 3.250553e+01 
7.417460e+00 3.217686e+01 
7.452720e+00 3.184747e+01 
7.487390e+00 3.152791e+01 
7.522650e+00 3.120724e+01 
7.557320e+00 3.089585e+01 
7.591990e+00 3.058843e+01 
7.627250e+00 3.027990e+01 
7.662510e+00 2.997543e+01 
7.697180e+00 2.967974e+01 
7.731850e+00 2.938776e+01 
7.766510e+00 2.909961e+01 
7.801180e+00 2.881507e+01 
7.836440e+00 2.853020e+01 
7.871110e+00 2.825417e+01 
7.906380e+00 2.797693e+01 
7.941040e+00 2.770795e+01 
7.976310e+00 2.743686e+01 
8.011570e+00 2.716829e+01 
8.046240e+00 2.690755e+01 
8.080900e+00 2.665012e+01 
8.115570e+00 2.639633e+01 
8.150830e+00 2.614339e+01 
8.185500e+00 2.589775e+01 
8.220770e+00 2.565094e+01 
8.255430e+00 2.541137e+01 
8.290100e+00 2.517352e+01 
8.324770e+00 2.493843e+01 
8.359430e+00 2.470625e+01 
8.394700e+00 2.447284e+01 
8.429960e+00 2.424278e+01 
8.464630e+00 2.401972e+01 
8.499890e+00 2.379560e+01 
8.534560e+00 2.357785e+01 
8.569200e+00 2.336286e+01 
