# Parameters:
# omega_b = 0.023028, omega_m = 0.134055, n_s = 1.038976, h = 83.346457, w = -1.000000, sigma_8 = 0.866929
# z = 0.100000
#
# k[1/Mpc] # P(k):
8.694000e-04 1.035917e+04 
2.077466e-03 2.340726e+04 
3.285532e-03 3.408130e+04 
4.493598e-03 4.252402e+04 
5.701664e-03 4.892587e+04 
6.909730e-03 5.356771e+04 
8.117797e-03 5.680868e+04 
9.325863e-03 5.883151e+04 
1.053393e-02 5.982089e+04 
1.174199e-02 5.995189e+04 
1.295006e-02 5.934335e+04 
1.415813e-02 5.816242e+04 
1.536619e-02 5.655287e+04 
1.657426e-02 5.468085e+04 
1.778233e-02 5.283604e+04 
1.899039e-02 5.097516e+04 
2.019846e-02 4.875614e+04 
2.140652e-02 4.631589e+04 
2.261459e-02 4.390231e+04 
2.382266e-02 4.162927e+04 
2.503072e-02 3.953315e+04 
2.623879e-02 3.762326e+04 
2.744685e-02 3.590659e+04 
2.865492e-02 3.437744e+04 
2.986299e-02 3.302565e+04 
3.100100e-02 3.190995e+04 
3.220400e-02 3.088039e+04 
3.288100e-02 3.036621e+04 
3.424300e-02 2.945157e+04 
3.555100e-02 2.869828e+04 
3.686000e-02 2.804597e+04 
3.795000e-02 2.756592e+04 
3.929100e-02 2.702902e+04 
4.039800e-02 2.660963e+04 
4.164000e-02 2.615948e+04 
4.294400e-02 2.567051e+04 
4.415000e-02 2.521285e+04 
4.542900e-02 2.468514e+04 
4.660900e-02 2.417742e+04 
4.782300e-02 2.359214e+04 
4.892900e-02 2.303835e+04 
5.031200e-02 2.229930e+04 
5.155900e-02 2.159178e+04 
5.238100e-02 2.111203e+04 
5.378200e-02 2.028080e+04 
5.513400e-02 1.946823e+04 
5.627600e-02 1.878337e+04 
5.735300e-02 1.815035e+04 
5.870100e-02 1.738478e+04 
5.988700e-02 1.674394e+04 
6.113500e-02 1.610528e+04 
6.225900e-02 1.556931e+04 
6.340100e-02 1.506374e+04 
6.480200e-02 1.449436e+04 
6.601100e-02 1.405732e+04 
6.725500e-02 1.365459e+04 
6.829100e-02 1.335920e+04 
6.958600e-02 1.302501e+04 
7.071100e-02 1.277297e+04 
7.192300e-02 1.253339e+04 
7.307400e-02 1.233119e+04 
7.412300e-02 1.216589e+04 
7.550400e-02 1.197517e+04 
7.663100e-02 1.183343e+04 
7.791200e-02 1.168421e+04 
7.912700e-02 1.154951e+04 
8.027600e-02 1.142410e+04 
8.138400e-02 1.130277e+04 
8.272200e-02 1.115188e+04 
8.406100e-02 1.099211e+04 
8.534100e-02 1.082772e+04 
8.653800e-02 1.066207e+04 
8.759800e-02 1.050959e+04 
8.900300e-02 1.029740e+04 
9.009000e-02 1.012275e+04 
9.113300e-02 9.949233e+03 
9.239600e-02 9.736149e+03 
9.358000e-02 9.531271e+03 
9.496100e-02 9.288318e+03 
9.608400e-02 9.092086e+03 
9.727500e-02 8.886623e+03 
9.852600e-02 8.673127e+03 
9.973800e-02 8.474372e+03 
1.009000e-01 8.290961e+03 
1.020900e-01 8.112517e+03 
1.034000e-01 7.925995e+03 
1.046000e-01 7.764552e+03 
1.057200e-01 7.626979e+03 
1.069100e-01 7.488282e+03 
1.082500e-01 7.347052e+03 
1.093900e-01 7.236944e+03 
1.105400e-01 7.132566e+03 
1.116900e-01 7.040207e+03 
1.129600e-01 6.943927e+03 
1.142000e-01 6.859818e+03 
1.153300e-01 6.786911e+03 
1.166400e-01 6.707370e+03 
1.177800e-01 6.641885e+03 
1.190000e-01 6.574449e+03 
1.201200e-01 6.512119e+03 
1.213400e-01 6.445505e+03 
1.227100e-01 6.368153e+03 
1.238900e-01 6.301779e+03 
1.250700e-01 6.232075e+03 
1.263200e-01 6.158046e+03 
1.275500e-01 6.082643e+03 
1.287500e-01 6.007988e+03 
1.299900e-01 5.928201e+03 
1.311300e-01 5.854823e+03 
1.323500e-01 5.775517e+03 
1.335900e-01 5.695313e+03 
1.347100e-01 5.622546e+03 
1.359800e-01 5.541407e+03 
1.372100e-01 5.463726e+03 
1.384300e-01 5.388233e+03 
1.395700e-01 5.318812e+03 
1.407700e-01 5.247399e+03 
1.420300e-01 5.175365e+03 
1.432800e-01 5.105477e+03 
1.444500e-01 5.042917e+03 
1.456300e-01 4.981095e+03 
1.468900e-01 4.918434e+03 
1.480500e-01 4.862505e+03 
1.491700e-01 4.810271e+03 
1.503800e-01 4.755867e+03 
1.516400e-01 4.700831e+03 
1.528200e-01 4.652388e+03 
1.540200e-01 4.604058e+03 
1.551900e-01 4.559181e+03 
1.564300e-01 4.512846e+03 
1.576600e-01 4.468178e+03 
1.588700e-01 4.425556e+03 
1.600900e-01 4.383399e+03 
1.612700e-01 4.343726e+03 
1.625400e-01 4.301813e+03 
1.637600e-01 4.262376e+03 
1.649500e-01 4.224641e+03 
1.662200e-01 4.184977e+03 
1.674000e-01 4.148108e+03 
1.685000e-01 4.114308e+03 
1.697500e-01 4.076126e+03 
1.710300e-01 4.037312e+03 
1.722200e-01 4.001862e+03 
1.734400e-01 3.964866e+03 
1.746400e-01 3.929042e+03 
1.758700e-01 3.892655e+03 
1.770900e-01 3.856587e+03 
1.782700e-01 3.822279e+03 
1.794600e-01 3.787818e+03 
1.807000e-01 3.752218e+03 
1.819100e-01 3.718056e+03 
1.830100e-01 3.687249e+03 
1.842200e-01 3.653846e+03 
1.855000e-01 3.619108e+03 
1.867000e-01 3.587377e+03 
1.879200e-01 3.555629e+03 
1.890900e-01 3.525660e+03 
1.902800e-01 3.495677e+03 
1.915200e-01 3.464920e+03 
1.926900e-01 3.436534e+03 
1.939000e-01 3.408232e+03 
1.951700e-01 3.378989e+03 
1.963100e-01 3.353209e+03 
1.975100e-01 3.326668e+03 
1.987800e-01 3.299006e+03 
2.000100e-01 3.272694e+03 
2.012500e-01 3.246724e+03 
2.023400e-01 3.224218e+03 
2.036100e-01 3.198452e+03 
2.048900e-01 3.173213e+03 
2.060400e-01 3.150864e+03 
2.072200e-01 3.128260e+03 
2.084200e-01 3.105737e+03 
2.096900e-01 3.082244e+03 
2.109200e-01 3.059821e+03 
2.121100e-01 3.038352e+03 
2.132700e-01 3.017704e+03 
2.145200e-01 2.995759e+03 
2.157200e-01 2.974954e+03 
2.168800e-01 2.955095e+03 
2.180700e-01 2.934992e+03 
2.193400e-01 2.913809e+03 
2.206000e-01 2.893044e+03 
2.217500e-01 2.874345e+03 
2.229500e-01 2.855084e+03 
2.241400e-01 2.836231e+03 
2.253500e-01 2.817311e+03 
2.264900e-01 2.799712e+03 
2.277100e-01 2.781198e+03 
2.289900e-01 2.762124e+03 
2.301500e-01 2.745062e+03 
2.313600e-01 2.727488e+03 
2.325600e-01 2.710265e+03 
2.337700e-01 2.693117e+03 
2.350000e-01 2.675907e+03 
2.362000e-01 2.659464e+03 
2.374100e-01 2.643251e+03 
2.386500e-01 2.626844e+03 
2.399100e-01 2.610386e+03 
2.410400e-01 2.595859e+03 
2.422500e-01 2.580495e+03 
2.435000e-01 2.564818e+03 
2.447300e-01 2.549601e+03 
2.458700e-01 2.535733e+03 
2.470600e-01 2.521423e+03 
2.483300e-01 2.506336e+03 
2.495600e-01 2.491916e+03 
2.507600e-01 2.478031e+03 
2.519600e-01 2.464309e+03 
2.532200e-01 2.450071e+03 
2.543700e-01 2.437247e+03 
2.555500e-01 2.424249e+03 
2.568000e-01 2.410639e+03 
2.580100e-01 2.397619e+03 
2.592400e-01 2.384478e+03 
2.604100e-01 2.372094e+03 
2.616100e-01 2.359533e+03 
2.628400e-01 2.346805e+03 
2.640600e-01 2.334440e+03 
2.652200e-01 2.322859e+03 
2.664300e-01 2.310910e+03 
2.676500e-01 2.298997e+03 
2.688400e-01 2.287396e+03 
2.700700e-01 2.275467e+03 
2.712400e-01 2.264244e+03 
2.724800e-01 2.252479e+03 
2.736700e-01 2.241294e+03 
2.748800e-01 2.230025e+03 
2.761000e-01 2.218786e+03 
2.773200e-01 2.207668e+03 
2.785400e-01 2.196689e+03 
2.797000e-01 2.186398e+03 
2.808900e-01 2.175950e+03 
2.821400e-01 2.165091e+03 
2.833900e-01 2.154346e+03 
2.845500e-01 2.144376e+03 
2.857800e-01 2.133914e+03 
2.870300e-01 2.123394e+03 
2.882100e-01 2.113566e+03 
2.893900e-01 2.103819e+03 
2.906300e-01 2.093673e+03 
2.918900e-01 2.083471e+03 
2.930500e-01 2.074174e+03 
2.942500e-01 2.064648e+03 
2.954200e-01 2.055440e+03 
2.966500e-01 2.045856e+03 
2.978900e-01 2.036293e+03 
2.990400e-01 2.027511e+03 
3.002700e-01 2.018192e+03 
3.015100e-01 2.008883e+03 
3.026800e-01 2.000186e+03 
3.038500e-01 1.991571e+03 
3.050300e-01 1.982965e+03 
3.062600e-01 1.974050e+03 
3.075000e-01 1.965152e+03 
3.087000e-01 1.956625e+03 
3.099100e-01 1.948108e+03 
3.111200e-01 1.939659e+03 
3.123100e-01 1.931405e+03 
3.135300e-01 1.923022e+03 
3.147300e-01 1.914854e+03 
3.159900e-01 1.906361e+03 
3.171800e-01 1.898490e+03 
3.183700e-01 1.890740e+03 
3.196300e-01 1.882612e+03 
3.208400e-01 1.874880e+03 
3.220300e-01 1.867346e+03 
3.232000e-01 1.859904e+03 
3.244300e-01 1.852110e+03 
3.256700e-01 1.844327e+03 
3.269200e-01 1.836554e+03 
3.280800e-01 1.829406e+03 
3.292500e-01 1.822344e+03 
3.304800e-01 1.815014e+03 
3.317100e-01 1.807750e+03 
3.328900e-01 1.800843e+03 
3.340700e-01 1.793997e+03 
3.353600e-01 1.786587e+03 
3.365300e-01 1.779929e+03 
3.377100e-01 1.773271e+03 
3.389200e-01 1.766504e+03 
3.401600e-01 1.759630e+03 
3.413700e-01 1.752982e+03 
3.425300e-01 1.746662e+03 
3.437700e-01 1.739965e+03 
3.449800e-01 1.733487e+03 
3.461800e-01 1.727118e+03 
3.473600e-01 1.720893e+03 
3.485800e-01 1.714475e+03 
3.498100e-01 1.708059e+03 
3.510200e-01 1.701802e+03 
3.522000e-01 1.695752e+03 
3.533900e-01 1.689701e+03 
3.546400e-01 1.683458e+03 
3.558400e-01 1.677519e+03 
3.570600e-01 1.671532e+03 
3.582700e-01 1.665644e+03 
3.595000e-01 1.659709e+03 
3.607100e-01 1.653919e+03 
3.618900e-01 1.648318e+03 
3.631200e-01 1.642528e+03 
3.643200e-01 1.636927e+03 
3.655500e-01 1.631232e+03 
3.667300e-01 1.625813e+03 
3.679500e-01 1.620242e+03 
3.691900e-01 1.614627e+03 
3.703600e-01 1.609371e+03 
3.715700e-01 1.603979e+03 
3.727700e-01 1.598674e+03 
3.739900e-01 1.593330e+03 
3.752000e-01 1.588084e+03 
3.763900e-01 1.582965e+03 
3.775800e-01 1.577887e+03 
3.788200e-01 1.572637e+03 
3.800300e-01 1.567555e+03 
3.812100e-01 1.562602e+03 
3.824200e-01 1.557537e+03 
3.836100e-01 1.552595e+03 
3.848600e-01 1.547445e+03 
3.860400e-01 1.542621e+03 
3.872400e-01 1.537753e+03 
3.884600e-01 1.532842e+03 
3.896500e-01 1.528088e+03 
3.908700e-01 1.523251e+03 
3.920600e-01 1.518569e+03 
3.933100e-01 1.513690e+03 
3.945300e-01 1.508964e+03 
3.957200e-01 1.504395e+03 
3.969300e-01 1.499785e+03 
3.981700e-01 1.495097e+03 
3.993500e-01 1.490670e+03 
4.094840e-01 1.453689e+03 
4.272360e-01 1.393708e+03 
4.454600e-01 1.337152e+03 
4.630560e-01 1.287196e+03 
4.804610e-01 1.241432e+03 
4.980690e-01 1.198545e+03 
5.159230e-01 1.158203e+03 
5.317440e-01 1.124634e+03 
5.489640e-01 1.090528e+03 
5.671990e-01 1.056626e+03 
5.838690e-01 1.027501e+03 
6.018840e-01 9.979426e+02 
6.202330e-01 9.696253e+02 
6.379250e-01 9.439082e+02 
6.545410e-01 9.208952e+02 
6.714560e-01 8.986218e+02 
6.892080e-01 8.763451e+02 
7.066010e-01 8.555819e+02 
7.240540e-01 8.357056e+02 
7.420450e-01 8.159552e+02 
7.593780e-01 7.978703e+02 
7.764720e-01 7.806708e+02 
7.942840e-01 7.635097e+02 
8.116170e-01 7.473631e+02 
8.288310e-01 7.319049e+02 
8.462240e-01 7.167977e+02 
8.631980e-01 7.026215e+02 
8.810700e-01 6.881198e+02 
8.989410e-01 6.741461e+02 
9.166330e-01 6.607125e+02 
9.345640e-01 6.475079e+02 
9.515980e-01 6.353392e+02 
9.688720e-01 6.233216e+02 
9.865640e-01 6.113353e+02 
1.031870e+00 5.823253e+02 
1.063490e+00 5.632096e+02 
1.097920e+00 5.433747e+02 
1.134370e+00 5.234502e+02 
1.167730e+00 5.061692e+02 
1.203830e+00 4.883424e+02 
1.240470e+00 4.711676e+02 
1.275790e+00 4.553567e+02 
1.309140e+00 4.411430e+02 
1.342970e+00 4.273484e+02 
1.378420e+00 4.135531e+02 
1.413200e+00 4.006113e+02 
1.448110e+00 3.881668e+02 
1.484090e+00 3.759160e+02 
1.518820e+00 3.645794e+02 
1.552880e+00 3.539454e+02 
1.588630e+00 3.432624e+02 
1.623230e+00 3.333517e+02 
1.657720e+00 3.238983e+02 
1.692450e+00 3.147474e+02 
1.726400e+00 3.061408e+02 
1.762200e+00 2.974150e+02 
1.797880e+00 2.890711e+02 
1.833270e+00 2.811433e+02 
1.869070e+00 2.734061e+02 
1.903200e+00 2.663346e+02 
1.937740e+00 2.594323e+02 
1.973190e+00 2.526022e+02 
2.007440e+00 2.462523e+02 
2.042160e+00 2.400631e+02 
2.077900e+00 2.338811e+02 
2.112390e+00 2.281584e+02 
2.146220e+00 2.227303e+02 
2.181600e+00 2.172382e+02 
2.216930e+00 2.119677e+02 
2.250760e+00 2.070781e+02 
2.286500e+00 2.020764e+02 
2.321770e+00 1.973219e+02 
2.355950e+00 1.928615e+02 
2.391280e+00 1.884200e+02 
2.426240e+00 1.841454e+02 
2.460670e+00 1.800684e+02 
2.495640e+00 1.760731e+02 
2.531080e+00 1.721400e+02 
2.566220e+00 1.683590e+02 
2.600830e+00 1.647588e+02 
2.635080e+00 1.613170e+02 
2.670340e+00 1.578668e+02 
2.705970e+00 1.544854e+02 
2.740040e+00 1.513471e+02 
2.774520e+00 1.482558e+02 
2.809730e+00 1.452028e+02 
2.844390e+00 1.422893e+02 
2.879960e+00 1.393795e+02 
2.914860e+00 1.366021e+02 
2.949410e+00 1.339322e+02 
2.984440e+00 1.313082e+02 
3.019760e+00 1.287340e+02 
3.054730e+00 1.262559e+02 
3.089030e+00 1.238839e+02 
3.124060e+00 1.215265e+02 
3.159560e+00 1.192004e+02 
3.194710e+00 1.169654e+02 
3.229010e+00 1.148450e+02 
3.263320e+00 1.127724e+02 
3.297930e+00 1.107397e+02 
3.332830e+00 1.087484e+02 
3.368040e+00 1.067884e+02 
3.403300e+00 1.048746e+02 
3.438450e+00 1.030115e+02 
3.473060e+00 1.012235e+02 
3.508440e+00 9.944666e+01 
3.543110e+00 9.774923e+01 
3.577470e+00 9.610346e+01 
3.613040e+00 9.444374e+01 
3.648120e+00 9.285115e+01 
3.682910e+00 9.130862e+01 
3.718050e+00 8.978471e+01 
3.753320e+00 8.829422e+01 
3.787980e+00 8.686716e+01 
3.822290e+00 8.548575e+01 
3.857020e+00 8.411699e+01 
3.891920e+00 8.277212e+01 
3.926650e+00 8.146196e+01 
3.961970e+00 8.016142e+01 
3.997360e+00 7.889089e+01 
4.031670e+00 7.768778e+01 
4.066330e+00 7.650251e+01 
4.101420e+00 7.532918e+01 
4.136200e+00 7.418841e+01 
4.170810e+00 7.307807e+01 
4.206250e+00 7.196854e+01 
4.241580e+00 7.088721e+01 
4.276300e+00 6.984499e+01 
4.310970e+00 6.882497e+01 
4.346120e+00 6.781399e+01 
4.380600e+00 6.684516e+01 
4.414730e+00 6.590574e+01 
4.450350e+00 6.494295e+01 
4.485320e+00 6.401739e+01 
4.519810e+00 6.312485e+01 
4.555430e+00 6.222262e+01 
4.590870e+00 6.134252e+01 
4.625480e+00 6.049859e+01 
4.659910e+00 5.967554e+01 
4.695230e+00 5.885043e+01 
4.729960e+00 5.805542e+01 
4.764450e+00 5.728190e+01 
4.799530e+00 5.651157e+01 
4.834910e+00 5.574968e+01 
4.869700e+00 5.501693e+01 
4.904370e+00 5.430077e+01 
4.939450e+00 5.358909e+01 
4.973940e+00 5.290076e+01 
5.008430e+00 5.222504e+01 
5.043810e+00 5.154360e+01 
5.078840e+00 5.088074e+01 
5.113500e+00 5.023680e+01 
5.148890e+00 4.959697e+01 
5.184210e+00 4.897023e+01 
5.219060e+00 4.836243e+01 
5.253660e+00 4.776830e+01 
5.288570e+00 4.717936e+01 
5.323420e+00 4.660100e+01 
5.358440e+00 4.602917e+01 
5.393590e+00 4.546521e+01 
5.428310e+00 4.492112e+01 
5.462800e+00 4.439156e+01 
5.497640e+00 4.386563e+01 
5.532670e+00 4.334446e+01 
5.567280e+00 4.283773e+01 
5.602000e+00 4.233780e+01 
5.637270e+00 4.183744e+01 
5.672410e+00 4.134699e+01 
5.707020e+00 4.087186e+01 
5.742040e+00 4.040036e+01 
5.777430e+00 3.993196e+01 
5.812210e+00 3.947909e+01 
5.846820e+00 3.903653e+01 
5.881610e+00 3.859895e+01 
5.916510e+00 3.816692e+01 
5.951600e+00 3.773854e+01 
5.986560e+00 3.731808e+01 
6.021830e+00 3.690055e+01 
6.056490e+00 3.649862e+01 
6.091160e+00 3.610441e+01 
6.125830e+00 3.571620e+01 
6.161090e+00 3.532638e+01 
6.195760e+00 3.494670e+01 
6.230420e+00 3.457283e+01 
6.265690e+00 3.419815e+01 
6.300950e+00 3.383036e+01 
6.335620e+00 3.347412e+01 
6.370880e+00 3.311718e+01 
6.405550e+00 3.277212e+01 
6.440220e+00 3.243239e+01 
6.475480e+00 3.209191e+01 
6.510150e+00 3.176172e+01 
6.544810e+00 3.143573e+01 
6.580080e+00 3.110878e+01 
6.614750e+00 3.079201e+01 
6.649410e+00 3.048065e+01 
6.684080e+00 3.017376e+01 
6.719340e+00 2.986605e+01 
6.754010e+00 2.956746e+01 
6.788680e+00 2.927236e+01 
6.823940e+00 2.897643e+01 
6.859800e+00 2.867971e+01 
6.894470e+00 2.839742e+01 
6.929140e+00 2.811918e+01 
6.963800e+00 2.784480e+01 
6.999070e+00 2.756935e+01 
7.033730e+00 2.730167e+01 
7.068400e+00 2.703751e+01 
7.103660e+00 2.677245e+01 
7.138330e+00 2.651556e+01 
7.173600e+00 2.625819e+01 
7.208260e+00 2.600861e+01 
7.243530e+00 2.575800e+01 
7.277600e+00 2.551877e+01 
7.312860e+00 2.527411e+01 
7.348120e+00 2.503267e+01 
7.382790e+00 2.479836e+01 
7.417460e+00 2.456742e+01 
7.452720e+00 2.433577e+01 
7.487390e+00 2.411091e+01 
7.522650e+00 2.388515e+01 
7.557320e+00 2.366554e+01 
7.591990e+00 2.344852e+01 
7.627250e+00 2.323060e+01 
7.662510e+00 2.301544e+01 
7.697180e+00 2.280609e+01 
7.731850e+00 2.259916e+01 
7.766510e+00 2.239485e+01 
7.801180e+00 2.219298e+01 
7.836440e+00 2.199063e+01 
7.871110e+00 2.179436e+01 
7.906380e+00 2.159713e+01 
7.941040e+00 2.140568e+01 
7.976310e+00 2.121243e+01 
8.011570e+00 2.102064e+01 
8.046240e+00 2.083435e+01 
8.080900e+00 2.065033e+01 
8.115570e+00 2.046878e+01 
8.150830e+00 2.028761e+01 
8.185500e+00 2.011158e+01 
8.220770e+00 1.993462e+01 
8.255430e+00 1.976277e+01 
8.290100e+00 1.959173e+01 
8.324770e+00 1.942254e+01 
8.359430e+00 1.925536e+01 
8.394700e+00 1.908722e+01 
8.429960e+00 1.892128e+01 
8.464630e+00 1.876018e+01 
8.499890e+00 1.859823e+01 
8.534560e+00 1.844082e+01 
8.569200e+00 1.828532e+01 
