# Parameters:
# omega_b = 0.021831, omega_m = 0.151969, n_s = 1.023228, h = 55.944882, w = -1.000000, sigma_8 = 0.843307
# z = 0.100000
#
# k[1/Mpc] # P(k):
8.694000e-04 1.155472e+04 
2.077466e-03 2.614812e+04 
3.285532e-03 3.838493e+04 
4.493598e-03 4.836903e+04 
5.701664e-03 5.628408e+04 
6.909730e-03 6.233833e+04 
8.117797e-03 6.684790e+04 
9.325863e-03 6.997741e+04 
1.053393e-02 7.191795e+04 
1.174199e-02 7.286590e+04 
1.295006e-02 7.293838e+04 
1.415813e-02 7.230661e+04 
1.536619e-02 7.112560e+04 
1.657426e-02 6.943922e+04 
1.778233e-02 6.717879e+04 
1.899039e-02 6.465705e+04 
2.019846e-02 6.229391e+04 
2.140652e-02 6.009127e+04 
2.261459e-02 5.791461e+04 
2.382266e-02 5.576082e+04 
2.503072e-02 5.366792e+04 
2.623879e-02 5.165763e+04 
2.744685e-02 4.973852e+04 
2.865492e-02 4.793373e+04 
2.986299e-02 4.624971e+04 
3.100100e-02 4.477393e+04 
3.220400e-02 4.333260e+04 
3.288100e-02 4.257376e+04 
3.424300e-02 4.116050e+04 
3.555100e-02 3.993225e+04 
3.686000e-02 3.881806e+04 
3.795000e-02 3.797378e+04 
3.929100e-02 3.701992e+04 
4.039800e-02 3.628899e+04 
4.164000e-02 3.552913e+04 
4.294400e-02 3.476996e+04 
4.415000e-02 3.410546e+04 
4.542900e-02 3.341356e+04 
4.660900e-02 3.279178e+04 
4.782300e-02 3.213471e+04 
4.892900e-02 3.154203e+04 
5.031200e-02 3.078445e+04 
5.155900e-02 3.008017e+04 
5.238100e-02 2.960760e+04 
5.378200e-02 2.879137e+04 
5.513400e-02 2.798527e+04 
5.627600e-02 2.729172e+04 
5.735300e-02 2.663493e+04 
5.870100e-02 2.581446e+04 
5.988700e-02 2.510098e+04 
6.113500e-02 2.435888e+04 
6.225900e-02 2.370570e+04 
6.340100e-02 2.305825e+04 
6.480200e-02 2.229238e+04 
6.601100e-02 2.166379e+04 
6.725500e-02 2.104892e+04 
6.829100e-02 2.056627e+04 
6.958600e-02 1.999274e+04 
7.071100e-02 1.953096e+04 
7.192300e-02 1.906768e+04 
7.307400e-02 1.865740e+04 
7.412300e-02 1.830898e+04 
7.550400e-02 1.789116e+04 
7.663100e-02 1.757619e+04 
7.791200e-02 1.724842e+04 
7.912700e-02 1.696570e+04 
8.027600e-02 1.671795e+04 
8.138400e-02 1.649412e+04 
8.272200e-02 1.624033e+04 
8.406100e-02 1.599818e+04 
8.534100e-02 1.577692e+04 
8.653800e-02 1.557296e+04 
8.759800e-02 1.539485e+04 
8.900300e-02 1.515932e+04 
9.009000e-02 1.497193e+04 
9.113300e-02 1.478952e+04 
9.239600e-02 1.456687e+04 
9.358000e-02 1.435201e+04 
9.496100e-02 1.409302e+04 
9.608400e-02 1.387970e+04 
9.727500e-02 1.365258e+04 
9.852600e-02 1.340546e+04 
9.973800e-02 1.316958e+04 
1.009000e-01 1.294699e+04 
1.020900e-01 1.271651e+04 
1.034000e-01 1.246851e+04 
1.046000e-01 1.224638e+04 
1.057200e-01 1.204458e+04 
1.069100e-01 1.183634e+04 
1.082500e-01 1.161058e+04 
1.093900e-01 1.142644e+04 
1.105400e-01 1.124693e+04 
1.116900e-01 1.107770e+04 
1.129600e-01 1.089800e+04 
1.142000e-01 1.073367e+04 
1.153300e-01 1.059011e+04 
1.166400e-01 1.043171e+04 
1.177800e-01 1.030271e+04 
1.190000e-01 1.017050e+04 
1.201200e-01 1.005573e+04 
1.213400e-01 9.934330e+03 
1.227100e-01 9.807196e+03 
1.238900e-01 9.701120e+03 
1.250700e-01 9.599412e+03 
1.263200e-01 9.494861e+03 
1.275500e-01 9.395882e+03 
1.287500e-01 9.300813e+03 
1.299900e-01 9.203656e+03 
1.311300e-01 9.115886e+03 
1.323500e-01 9.023349e+03 
1.335900e-01 8.929841e+03 
1.347100e-01 8.845100e+03 
1.359800e-01 8.749759e+03 
1.372100e-01 8.656825e+03 
1.384300e-01 8.565170e+03 
1.395700e-01 8.477775e+03 
1.407700e-01 8.387329e+03 
1.420300e-01 8.291071e+03 
1.432800e-01 8.197625e+03 
1.444500e-01 8.108606e+03 
1.456300e-01 8.020605e+03 
1.468900e-01 7.927838e+03 
1.480500e-01 7.843936e+03 
1.491700e-01 7.764092e+03 
1.503800e-01 7.679018e+03 
1.516400e-01 7.592544e+03 
1.528200e-01 7.514644e+03 
1.540200e-01 7.436926e+03 
1.551900e-01 7.364073e+03 
1.564300e-01 7.288683e+03 
1.576600e-01 7.216136e+03 
1.588700e-01 7.147074e+03 
1.600900e-01 7.078820e+03 
1.612700e-01 7.015606e+03 
1.625400e-01 6.948824e+03 
1.637600e-01 6.886950e+03 
1.649500e-01 6.828311e+03 
1.662200e-01 6.766933e+03 
1.674000e-01 6.711310e+03 
1.685000e-01 6.660318e+03 
1.697500e-01 6.603477e+03 
1.710300e-01 6.546449e+03 
1.722200e-01 6.494362e+03 
1.734400e-01 6.441155e+03 
1.746400e-01 6.389679e+03 
1.758700e-01 6.337617e+03 
1.770900e-01 6.286461e+03 
1.782700e-01 6.237798e+03 
1.794600e-01 6.189087e+03 
1.807000e-01 6.138877e+03 
1.819100e-01 6.090689e+03 
1.830100e-01 6.047140e+03 
1.842200e-01 5.999899e+03 
1.855000e-01 5.950754e+03 
1.867000e-01 5.905599e+03 
1.879200e-01 5.860415e+03 
1.890900e-01 5.817676e+03 
1.902800e-01 5.774466e+03 
1.915200e-01 5.730139e+03 
1.926900e-01 5.689114e+03 
1.939000e-01 5.647841e+03 
1.951700e-01 5.605195e+03 
1.963100e-01 5.567460e+03 
1.975100e-01 5.528233e+03 
1.987800e-01 5.487350e+03 
2.000100e-01 5.448345e+03 
2.012500e-01 5.409581e+03 
2.023400e-01 5.375986e+03 
2.036100e-01 5.337480e+03 
2.048900e-01 5.299575e+03 
2.060400e-01 5.266013e+03 
2.072200e-01 5.232060e+03 
2.084200e-01 5.198130e+03 
2.096900e-01 5.162741e+03 
2.109200e-01 5.128964e+03 
2.121100e-01 5.096569e+03 
2.132700e-01 5.065408e+03 
2.145200e-01 5.032292e+03 
2.157200e-01 5.000906e+03 
2.168800e-01 4.970952e+03 
2.180700e-01 4.940631e+03 
2.193400e-01 4.908685e+03 
2.206000e-01 4.877377e+03 
2.217500e-01 4.849183e+03 
2.229500e-01 4.820145e+03 
2.241400e-01 4.791708e+03 
2.253500e-01 4.763171e+03 
2.264900e-01 4.736627e+03 
2.277100e-01 4.708711e+03 
2.289900e-01 4.679959e+03 
2.301500e-01 4.654242e+03 
2.313600e-01 4.627754e+03 
2.325600e-01 4.601784e+03 
2.337700e-01 4.575929e+03 
2.350000e-01 4.549984e+03 
2.362000e-01 4.525219e+03 
2.374100e-01 4.500829e+03 
2.386500e-01 4.476152e+03 
2.399100e-01 4.451400e+03 
2.410400e-01 4.429595e+03 
2.422500e-01 4.406540e+03 
2.435000e-01 4.383021e+03 
2.447300e-01 4.360211e+03 
2.458700e-01 4.339486e+03 
2.470600e-01 4.318106e+03 
2.483300e-01 4.295569e+03 
2.495600e-01 4.274053e+03 
2.507600e-01 4.253368e+03 
2.519600e-01 4.232928e+03 
2.532200e-01 4.211726e+03 
2.543700e-01 4.192637e+03 
2.555500e-01 4.173296e+03 
2.568000e-01 4.153049e+03 
2.580100e-01 4.133684e+03 
2.592400e-01 4.114117e+03 
2.604100e-01 4.095670e+03 
2.616100e-01 4.076963e+03 
2.628400e-01 4.058010e+03 
2.640600e-01 4.039584e+03 
2.652200e-01 4.022323e+03 
2.664300e-01 4.004518e+03 
2.676500e-01 3.986771e+03 
2.688400e-01 3.969395e+03 
2.700700e-01 3.951472e+03 
2.712400e-01 3.934612e+03 
2.724800e-01 3.916942e+03 
2.736700e-01 3.900084e+03 
2.748800e-01 3.883040e+03 
2.761000e-01 3.866044e+03 
2.773200e-01 3.849236e+03 
2.785400e-01 3.832604e+03 
2.797000e-01 3.816945e+03 
2.808900e-01 3.801049e+03 
2.821400e-01 3.784532e+03 
2.833900e-01 3.768184e+03 
2.845500e-01 3.752861e+03 
2.857800e-01 3.736782e+03 
2.870300e-01 3.720618e+03 
2.882100e-01 3.705521e+03 
2.893900e-01 3.690478e+03 
2.906300e-01 3.674781e+03 
2.918900e-01 3.659002e+03 
2.930500e-01 3.644625e+03 
2.942500e-01 3.629869e+03 
2.954200e-01 3.615523e+03 
2.966500e-01 3.600593e+03 
2.978900e-01 3.585698e+03 
2.990400e-01 3.572021e+03 
3.002700e-01 3.557441e+03 
3.015100e-01 3.542845e+03 
3.026800e-01 3.529210e+03 
3.038500e-01 3.515706e+03 
3.050300e-01 3.502216e+03 
3.062600e-01 3.488142e+03 
3.075000e-01 3.474096e+03 
3.087000e-01 3.460638e+03 
3.099100e-01 3.447200e+03 
3.111200e-01 3.433850e+03 
3.123100e-01 3.420776e+03 
3.135300e-01 3.407502e+03 
3.147300e-01 3.394570e+03 
3.159900e-01 3.381124e+03 
3.171800e-01 3.368655e+03 
3.183700e-01 3.356371e+03 
3.196300e-01 3.343491e+03 
3.208400e-01 3.331241e+03 
3.220300e-01 3.319306e+03 
3.232000e-01 3.307466e+03 
3.244300e-01 3.295048e+03 
3.256700e-01 3.282649e+03 
3.269200e-01 3.270268e+03 
3.280800e-01 3.258885e+03 
3.292500e-01 3.247653e+03 
3.304800e-01 3.236000e+03 
3.317100e-01 3.224455e+03 
3.328900e-01 3.213481e+03 
3.340700e-01 3.202604e+03 
3.353600e-01 3.190816e+03 
3.365300e-01 3.180220e+03 
3.377100e-01 3.169627e+03 
3.389200e-01 3.158862e+03 
3.401600e-01 3.147930e+03 
3.413700e-01 3.137357e+03 
3.425300e-01 3.127308e+03 
3.437700e-01 3.116661e+03 
3.449800e-01 3.106364e+03 
3.461800e-01 3.096243e+03 
3.473600e-01 3.086350e+03 
3.485800e-01 3.076147e+03 
3.498100e-01 3.065951e+03 
3.510200e-01 3.056009e+03 
3.522000e-01 3.046397e+03 
3.533900e-01 3.036786e+03 
3.546400e-01 3.026873e+03 
3.558400e-01 3.017444e+03 
3.570600e-01 3.007942e+03 
3.582700e-01 2.998598e+03 
3.595000e-01 2.989182e+03 
3.607100e-01 2.979995e+03 
3.618900e-01 2.971106e+03 
3.631200e-01 2.961919e+03 
3.643200e-01 2.953033e+03 
3.655500e-01 2.944002e+03 
3.667300e-01 2.935411e+03 
3.679500e-01 2.926562e+03 
3.691900e-01 2.917645e+03 
3.703600e-01 2.909302e+03 
3.715700e-01 2.900744e+03 
3.727700e-01 2.892327e+03 
3.739900e-01 2.883852e+03 
3.752000e-01 2.875535e+03 
3.763900e-01 2.867423e+03 
3.775800e-01 2.859377e+03 
3.788200e-01 2.851061e+03 
3.800300e-01 2.843015e+03 
3.812100e-01 2.835148e+03 
3.824200e-01 2.827089e+03 
3.836100e-01 2.819227e+03 
3.848600e-01 2.811035e+03 
3.860400e-01 2.803365e+03 
3.872400e-01 2.795627e+03 
3.884600e-01 2.787804e+03 
3.896500e-01 2.780227e+03 
3.908700e-01 2.772521e+03 
3.920600e-01 2.765064e+03 
3.933100e-01 2.757293e+03 
3.945300e-01 2.749770e+03 
3.957200e-01 2.742488e+03 
3.969300e-01 2.735140e+03 
3.981700e-01 2.727670e+03 
3.993500e-01 2.720618e+03 
4.094840e-01 2.661457e+03 
4.272360e-01 2.564632e+03 
4.454600e-01 2.472154e+03 
4.630560e-01 2.389497e+03 
4.804610e-01 2.312683e+03 
4.980690e-01 2.239822e+03 
5.159230e-01 2.170434e+03 
5.317440e-01 2.112097e+03 
5.489640e-01 2.052141e+03 
5.671990e-01 1.991772e+03 
5.838690e-01 1.939383e+03 
6.018840e-01 1.885608e+03 
6.202330e-01 1.833390e+03 
6.379250e-01 1.785491e+03 
6.545410e-01 1.741997e+03 
6.714560e-01 1.699520e+03 
6.892080e-01 1.656454e+03 
7.066010e-01 1.615880e+03 
7.240540e-01 1.576670e+03 
7.420450e-01 1.537211e+03 
7.593780e-01 1.500727e+03 
7.764720e-01 1.465747e+03 
7.942840e-01 1.430554e+03 
8.116170e-01 1.397159e+03 
8.288310e-01 1.364966e+03 
8.462240e-01 1.333322e+03 
8.631980e-01 1.303462e+03 
8.810700e-01 1.272797e+03 
8.989410e-01 1.243118e+03 
9.166330e-01 1.214507e+03 
9.345640e-01 1.186326e+03 
9.515980e-01 1.160305e+03 
9.688720e-01 1.134564e+03 
9.865640e-01 1.108881e+03 
1.031870e+00 1.046713e+03 
1.063490e+00 1.005841e+03 
1.097920e+00 9.635386e+02 
1.134370e+00 9.212623e+02 
1.167730e+00 8.847618e+02 
1.203830e+00 8.473401e+02 
1.240470e+00 8.115167e+02 
1.275790e+00 7.787869e+02 
1.309140e+00 7.495687e+02 
1.342970e+00 7.214173e+02 
1.378420e+00 6.934582e+02 
1.413200e+00 6.674492e+02 
1.448110e+00 6.426406e+02 
1.484090e+00 6.183944e+02 
1.518820e+00 5.961484e+02 
1.552880e+00 5.754368e+02 
1.588630e+00 5.547790e+02 
1.623230e+00 5.357616e+02 
1.657720e+00 5.177393e+02 
1.692450e+00 5.004171e+02 
1.726400e+00 4.842571e+02 
1.762200e+00 4.679902e+02 
1.797880e+00 4.525455e+02 
1.833270e+00 4.379588e+02 
1.869070e+00 4.238361e+02 
1.903200e+00 4.110023e+02 
1.937740e+00 3.985534e+02 
1.973190e+00 3.863162e+02 
2.007440e+00 3.750082e+02 
2.042160e+00 3.640485e+02 
2.077900e+00 3.531760e+02 
2.112390e+00 3.431584e+02 
2.146220e+00 3.337189e+02 
2.181600e+00 3.242218e+02 
2.216930e+00 3.151534e+02 
2.250760e+00 3.067870e+02 
2.286500e+00 2.982742e+02 
2.321770e+00 2.902197e+02 
2.355950e+00 2.827021e+02 
2.391280e+00 2.752544e+02 
2.426240e+00 2.681258e+02 
2.460670e+00 2.613573e+02 
2.495640e+00 2.547500e+02 
2.531080e+00 2.482829e+02 
2.566220e+00 2.420942e+02 
2.600830e+00 2.362238e+02 
2.635080e+00 2.306308e+02 
2.670340e+00 2.250570e+02 
2.705970e+00 2.196162e+02 
2.740040e+00 2.145849e+02 
2.774520e+00 2.096517e+02 
2.809730e+00 2.047975e+02 
2.844390e+00 2.001796e+02 
2.879960e+00 1.955879e+02 
2.914860e+00 1.912242e+02 
2.949410e+00 1.870418e+02 
2.984440e+00 1.829466e+02 
3.019760e+00 1.789435e+02 
3.054730e+00 1.751004e+02 
3.089030e+00 1.714406e+02 
3.124060e+00 1.678132e+02 
3.159560e+00 1.642458e+02 
3.194710e+00 1.608298e+02 
3.229010e+00 1.575957e+02 
3.263320e+00 1.544490e+02 
3.297930e+00 1.513690e+02 
3.332830e+00 1.483609e+02 
3.368040e+00 1.454094e+02 
3.403300e+00 1.425348e+02 
3.438450e+00 1.397471e+02 
3.473060e+00 1.370761e+02 
3.508440e+00 1.344321e+02 
3.543110e+00 1.319101e+02 
3.577470e+00 1.294744e+02 
3.613040e+00 1.270220e+02 
3.648120e+00 1.246757e+02 
3.682910e+00 1.224077e+02 
3.718050e+00 1.201740e+02 
3.753320e+00 1.179934e+02 
3.787980e+00 1.159105e+02 
3.822290e+00 1.138985e+02 
3.857020e+00 1.119106e+02 
3.891920e+00 1.099609e+02 
3.926650e+00 1.080667e+02 
3.961970e+00 1.061893e+02 
3.997360e+00 1.043601e+02 
4.031670e+00 1.026300e+02 
4.066330e+00 1.009301e+02 
4.101420e+00 9.924885e+01 
4.136200e+00 9.761973e+01 
4.170810e+00 9.603523e+01 
4.206250e+00 9.445621e+01 
4.241580e+00 9.291901e+01 
4.276300e+00 9.144092e+01 
4.310970e+00 8.999671e+01 
4.346120e+00 8.856738e+01 
4.380600e+00 8.720037e+01 
4.414730e+00 8.587585e+01 
4.450350e+00 8.452253e+01 
4.485320e+00 8.322242e+01 
4.519810e+00 8.197123e+01 
4.555430e+00 8.070805e+01 
4.590870e+00 7.947754e+01 
4.625480e+00 7.830016e+01 
4.659910e+00 7.715265e+01 
4.695230e+00 7.600473e+01 
4.729960e+00 7.489965e+01 
4.764450e+00 7.382577e+01 
4.799530e+00 7.275810e+01 
4.834910e+00 7.170275e+01 
4.869700e+00 7.068980e+01 
4.904370e+00 6.970060e+01 
4.939450e+00 6.871869e+01 
4.973940e+00 6.777092e+01 
5.008430e+00 6.684105e+01 
5.043810e+00 6.590492e+01 
5.078840e+00 6.499547e+01 
5.113500e+00 6.411248e+01 
5.148890e+00 6.323638e+01 
5.184210e+00 6.237875e+01 
5.219060e+00 6.154789e+01 
5.253660e+00 6.073729e+01 
5.288570e+00 5.993420e+01 
5.323420e+00 5.914656e+01 
5.358440e+00 5.836886e+01 
5.393590e+00 5.760227e+01 
5.428310e+00 5.686347e+01 
5.462800e+00 5.614496e+01 
5.497640e+00 5.543174e+01 
5.532670e+00 5.472619e+01 
5.567280e+00 5.404081e+01 
5.602000e+00 5.336499e+01 
5.637270e+00 5.268970e+01 
5.672410e+00 5.202831e+01 
5.707020e+00 5.138790e+01 
5.742040e+00 5.075331e+01 
5.777430e+00 5.012333e+01 
5.812210e+00 4.951455e+01 
5.846820e+00 4.892037e+01 
5.881610e+00 4.833328e+01 
5.916510e+00 4.775393e+01 
5.951600e+00 4.718029e+01 
5.986560e+00 4.661777e+01 
6.021830e+00 4.605945e+01 
6.056490e+00 4.552242e+01 
6.091160e+00 4.499610e+01 
6.125830e+00 4.447802e+01 
6.161090e+00 4.395830e+01 
6.195760e+00 4.345289e+01 
6.230420e+00 4.295546e+01 
6.265690e+00 4.245721e+01 
6.300950e+00 4.196883e+01 
6.335620e+00 4.149601e+01 
6.370880e+00 4.102249e+01 
6.405550e+00 4.056519e+01 
6.440220e+00 4.011524e+01 
6.475480e+00 3.966451e+01 
6.510150e+00 3.922779e+01 
6.544810e+00 3.879724e+01 
6.580080e+00 3.836561e+01 
6.614750e+00 3.794761e+01 
6.649410e+00 3.753724e+01 
6.684080e+00 3.713298e+01 
6.719340e+00 3.672783e+01 
6.754010e+00 3.633502e+01 
6.788680e+00 3.594733e+01 
6.823940e+00 3.555871e+01 
6.859800e+00 3.516923e+01 
6.894470e+00 3.479911e+01 
6.929140e+00 3.443457e+01 
6.963800e+00 3.407523e+01 
6.999070e+00 3.371467e+01 
7.033730e+00 3.336486e+01 
7.068400e+00 3.301978e+01 
7.103660e+00 3.267369e+01 
7.138330e+00 3.233851e+01 
7.173600e+00 3.200307e+01 
7.208260e+00 3.167793e+01 
7.243530e+00 3.135159e+01 
7.277600e+00 3.104041e+01 
7.312860e+00 3.072252e+01 
7.348120e+00 3.040895e+01 
7.382790e+00 3.010476e+01 
7.417460e+00 2.980527e+01 
7.452720e+00 2.950507e+01 
7.487390e+00 2.921381e+01 
7.522650e+00 2.892148e+01 
7.557320e+00 2.863755e+01 
7.591990e+00 2.835720e+01 
7.627250e+00 2.807579e+01 
7.662510e+00 2.779806e+01 
7.697180e+00 2.752825e+01 
7.731850e+00 2.726178e+01 
7.766510e+00 2.699878e+01 
7.801180e+00 2.673904e+01 
7.836440e+00 2.647894e+01 
7.871110e+00 2.622686e+01 
7.906380e+00 2.597366e+01 
7.941040e+00 2.572797e+01 
7.976310e+00 2.548028e+01 
8.011570e+00 2.523483e+01 
8.046240e+00 2.499651e+01 
8.080900e+00 2.476119e+01 
8.115570e+00 2.452915e+01 
8.150830e+00 2.429784e+01 
8.185500e+00 2.407319e+01 
8.220770e+00 2.384744e+01 
8.255430e+00 2.362829e+01 
8.290100e+00 2.341063e+01 
8.324770e+00 2.319546e+01 
8.359430e+00 2.298292e+01 
8.394700e+00 2.276925e+01 
8.429960e+00 2.255859e+01 
8.464630e+00 2.235431e+01 
8.499890e+00 2.214901e+01 
8.534560e+00 2.194955e+01 
8.569200e+00 2.175259e+01 
