# Parameters:
# omega_b = 0.022854, omega_m = 0.121929, n_s = 1.043701, h = 78.385827, w = -1.000000, sigma_8 = 0.726772
# z = 0.100000
#
# k[1/Mpc] # P(k):
8.694000e-04 1.038179e+04 
2.077466e-03 2.335120e+04 
3.285532e-03 3.373887e+04 
4.493598e-03 4.171712e+04 
5.701664e-03 4.757264e+04 
6.909730e-03 5.162780e+04 
8.117797e-03 5.426848e+04 
9.325863e-03 5.569803e+04 
1.053393e-02 5.612190e+04 
1.174199e-02 5.573437e+04 
1.295006e-02 5.466307e+04 
1.415813e-02 5.307988e+04 
1.536619e-02 5.113217e+04 
1.657426e-02 4.893591e+04 
1.778233e-02 4.662767e+04 
1.899039e-02 4.430074e+04 
2.019846e-02 4.193137e+04 
2.140652e-02 3.959020e+04 
2.261459e-02 3.735620e+04 
2.382266e-02 3.528020e+04 
2.503072e-02 3.338400e+04 
2.623879e-02 3.167125e+04 
2.744685e-02 3.014534e+04 
2.865492e-02 2.879602e+04 
2.986299e-02 2.761084e+04 
3.100100e-02 2.663838e+04 
3.220400e-02 2.574492e+04 
3.288100e-02 2.529993e+04 
3.424300e-02 2.450896e+04 
3.555100e-02 2.385672e+04 
3.686000e-02 2.328956e+04 
3.795000e-02 2.286942e+04 
3.929100e-02 2.239469e+04 
4.039800e-02 2.202036e+04 
4.164000e-02 2.161515e+04 
4.294400e-02 2.117215e+04 
4.415000e-02 2.075644e+04 
4.542900e-02 2.027813e+04 
4.660900e-02 1.981937e+04 
4.782300e-02 1.929502e+04 
4.892900e-02 1.880143e+04 
5.031200e-02 1.814812e+04 
5.155900e-02 1.752812e+04 
5.238100e-02 1.711036e+04 
5.378200e-02 1.639094e+04 
5.513400e-02 1.569310e+04 
5.627600e-02 1.510889e+04 
5.735300e-02 1.457170e+04 
5.870100e-02 1.392557e+04 
5.988700e-02 1.338754e+04 
6.113500e-02 1.285413e+04 
6.225900e-02 1.240873e+04 
6.340100e-02 1.199070e+04 
6.480200e-02 1.152236e+04 
6.601100e-02 1.116528e+04 
6.725500e-02 1.083842e+04 
6.829100e-02 1.060056e+04 
6.958600e-02 1.033322e+04 
7.071100e-02 1.013344e+04 
7.192300e-02 9.945116e+03 
7.307400e-02 9.787476e+03 
7.412300e-02 9.659473e+03 
7.550400e-02 9.512690e+03 
7.663100e-02 9.403779e+03 
7.791200e-02 9.288529e+03 
7.912700e-02 9.183066e+03 
8.027600e-02 9.083258e+03 
8.138400e-02 8.985088e+03 
8.272200e-02 8.860607e+03 
8.406100e-02 8.726346e+03 
8.534100e-02 8.585607e+03 
8.653800e-02 8.442210e+03 
8.759800e-02 8.309485e+03 
8.900300e-02 8.124044e+03 
9.009000e-02 7.971336e+03 
9.113300e-02 7.819800e+03 
9.239600e-02 7.634177e+03 
9.358000e-02 7.456582e+03 
9.496100e-02 7.247604e+03 
9.608400e-02 7.080007e+03 
9.727500e-02 6.905548e+03 
9.852600e-02 6.726688e+03 
9.973800e-02 6.561333e+03 
1.009000e-01 6.409702e+03 
1.020900e-01 6.264485e+03 
1.034000e-01 6.113731e+03 
1.046000e-01 5.984305e+03 
1.057200e-01 5.875546e+03 
1.069100e-01 5.766423e+03 
1.082500e-01 5.656649e+03 
1.093900e-01 5.571752e+03 
1.105400e-01 5.491695e+03 
1.116900e-01 5.421482e+03 
1.129600e-01 5.348443e+03 
1.142000e-01 5.284848e+03 
1.153300e-01 5.229607e+03 
1.166400e-01 5.169156e+03 
1.177800e-01 5.118879e+03 
1.190000e-01 5.066858e+03 
1.201200e-01 5.017844e+03 
1.213400e-01 4.965295e+03 
1.227100e-01 4.902818e+03 
1.238900e-01 4.848931e+03 
1.250700e-01 4.791490e+03 
1.263200e-01 4.730212e+03 
1.275500e-01 4.667211e+03 
1.287500e-01 4.604687e+03 
1.299900e-01 4.537645e+03 
1.311300e-01 4.475948e+03 
1.323500e-01 4.409204e+03 
1.335900e-01 4.341822e+03 
1.347100e-01 4.280833e+03 
1.359800e-01 4.212992e+03 
1.372100e-01 4.148332e+03 
1.384300e-01 4.085692e+03 
1.395700e-01 4.028505e+03 
1.407700e-01 3.969759e+03 
1.420300e-01 3.911072e+03 
1.432800e-01 3.854157e+03 
1.444500e-01 3.803805e+03 
1.456300e-01 3.754064e+03 
1.468900e-01 3.704031e+03 
1.480500e-01 3.659499e+03 
1.491700e-01 3.618078e+03 
1.503800e-01 3.575154e+03 
1.516400e-01 3.531779e+03 
1.528200e-01 3.493785e+03 
1.540200e-01 3.455883e+03 
1.551900e-01 3.420766e+03 
1.564300e-01 3.384529e+03 
1.576600e-01 3.349587e+03 
1.588700e-01 3.316238e+03 
1.600900e-01 3.283247e+03 
1.612700e-01 3.252074e+03 
1.625400e-01 3.219142e+03 
1.637600e-01 3.188038e+03 
1.649500e-01 3.158206e+03 
1.662200e-01 3.126815e+03 
1.674000e-01 3.097442e+03 
1.685000e-01 3.070515e+03 
1.697500e-01 3.039994e+03 
1.710300e-01 3.008867e+03 
1.722200e-01 2.980440e+03 
1.734400e-01 2.950621e+03 
1.746400e-01 2.921745e+03 
1.758700e-01 2.892391e+03 
1.770900e-01 2.863239e+03 
1.782700e-01 2.835514e+03 
1.794600e-01 2.807650e+03 
1.807000e-01 2.778857e+03 
1.819100e-01 2.751232e+03 
1.830100e-01 2.726360e+03 
1.842200e-01 2.699403e+03 
1.855000e-01 2.671378e+03 
1.867000e-01 2.645847e+03 
1.879200e-01 2.620307e+03 
1.890900e-01 2.596226e+03 
1.902800e-01 2.572246e+03 
1.915200e-01 2.547652e+03 
1.926900e-01 2.524983e+03 
1.939000e-01 2.502464e+03 
1.951700e-01 2.479200e+03 
1.963100e-01 2.458729e+03 
1.975100e-01 2.437747e+03 
1.987800e-01 2.415882e+03 
2.000100e-01 2.395116e+03 
2.012500e-01 2.374692e+03 
2.023400e-01 2.356994e+03 
2.036100e-01 2.336746e+03 
2.048900e-01 2.316952e+03 
2.060400e-01 2.299427e+03 
2.072200e-01 2.281703e+03 
2.084200e-01 2.264058e+03 
2.096900e-01 2.245654e+03 
2.109200e-01 2.228088e+03 
2.121100e-01 2.211260e+03 
2.132700e-01 2.195075e+03 
2.145200e-01 2.177874e+03 
2.157200e-01 2.161531e+03 
2.168800e-01 2.145917e+03 
2.180700e-01 2.130110e+03 
2.193400e-01 2.113431e+03 
2.206000e-01 2.097037e+03 
2.217500e-01 2.082275e+03 
2.229500e-01 2.067070e+03 
2.241400e-01 2.052105e+03 
2.253500e-01 2.037085e+03 
2.264900e-01 2.023114e+03 
2.277100e-01 2.008380e+03 
2.289900e-01 1.993158e+03 
2.301500e-01 1.979544e+03 
2.313600e-01 1.965520e+03 
2.325600e-01 1.951724e+03 
2.337700e-01 1.937990e+03 
2.350000e-01 1.924206e+03 
2.362000e-01 1.911018e+03 
2.374100e-01 1.897991e+03 
2.386500e-01 1.884809e+03 
2.399100e-01 1.871586e+03 
2.410400e-01 1.859922e+03 
2.422500e-01 1.847587e+03 
2.435000e-01 1.835003e+03 
2.447300e-01 1.822794e+03 
2.458700e-01 1.811691e+03 
2.470600e-01 1.800236e+03 
2.483300e-01 1.788159e+03 
2.495600e-01 1.776638e+03 
2.507600e-01 1.765575e+03 
2.519600e-01 1.754641e+03 
2.532200e-01 1.743297e+03 
2.543700e-01 1.733113e+03 
2.555500e-01 1.722813e+03 
2.568000e-01 1.712028e+03 
2.580100e-01 1.701710e+03 
2.592400e-01 1.691339e+03 
2.604100e-01 1.681583e+03 
2.616100e-01 1.671688e+03 
2.628400e-01 1.661661e+03 
2.640600e-01 1.651941e+03 
2.652200e-01 1.642846e+03 
2.664300e-01 1.633462e+03 
2.676500e-01 1.624106e+03 
2.688400e-01 1.615021e+03 
2.700700e-01 1.605697e+03 
2.712400e-01 1.596923e+03 
2.724800e-01 1.587726e+03 
2.736700e-01 1.578993e+03 
2.748800e-01 1.570206e+03 
2.761000e-01 1.561442e+03 
2.773200e-01 1.552772e+03 
2.785400e-01 1.544213e+03 
2.797000e-01 1.536195e+03 
2.808900e-01 1.528055e+03 
2.821400e-01 1.519595e+03 
2.833900e-01 1.511223e+03 
2.845500e-01 1.503469e+03 
2.857800e-01 1.495332e+03 
2.870300e-01 1.487149e+03 
2.882100e-01 1.479504e+03 
2.893900e-01 1.471927e+03 
2.906300e-01 1.464041e+03 
2.918900e-01 1.456111e+03 
2.930500e-01 1.448885e+03 
2.942500e-01 1.441481e+03 
2.954200e-01 1.434332e+03 
2.966500e-01 1.426890e+03 
2.978900e-01 1.419463e+03 
2.990400e-01 1.412643e+03 
3.002700e-01 1.405409e+03 
3.015100e-01 1.398184e+03 
3.026800e-01 1.391433e+03 
3.038500e-01 1.384746e+03 
3.050300e-01 1.378065e+03 
3.062600e-01 1.371165e+03 
3.075000e-01 1.364278e+03 
3.087000e-01 1.357678e+03 
3.099100e-01 1.351086e+03 
3.111200e-01 1.344548e+03 
3.123100e-01 1.338166e+03 
3.135300e-01 1.331684e+03 
3.147300e-01 1.325369e+03 
3.159900e-01 1.318801e+03 
3.171800e-01 1.312710e+03 
3.183700e-01 1.306711e+03 
3.196300e-01 1.300418e+03 
3.208400e-01 1.294432e+03 
3.220300e-01 1.288598e+03 
3.232000e-01 1.282865e+03 
3.244300e-01 1.276872e+03 
3.256700e-01 1.270886e+03 
3.269200e-01 1.264908e+03 
3.280800e-01 1.259411e+03 
3.292500e-01 1.253976e+03 
3.304800e-01 1.248334e+03 
3.317100e-01 1.242742e+03 
3.328900e-01 1.237425e+03 
3.340700e-01 1.232154e+03 
3.353600e-01 1.226464e+03 
3.365300e-01 1.221357e+03 
3.377100e-01 1.216250e+03 
3.389200e-01 1.211058e+03 
3.401600e-01 1.205785e+03 
3.413700e-01 1.200696e+03 
3.425300e-01 1.195867e+03 
3.437700e-01 1.190749e+03 
3.449800e-01 1.185798e+03 
3.461800e-01 1.180930e+03 
3.473600e-01 1.176177e+03 
3.485800e-01 1.171286e+03 
3.498100e-01 1.166398e+03 
3.510200e-01 1.161630e+03 
3.522000e-01 1.157019e+03 
3.533900e-01 1.152407e+03 
3.546400e-01 1.147669e+03 
3.558400e-01 1.143163e+03 
3.570600e-01 1.138620e+03 
3.582700e-01 1.134152e+03 
3.595000e-01 1.129647e+03 
3.607100e-01 1.125262e+03 
3.618900e-01 1.121026e+03 
3.631200e-01 1.116648e+03 
3.643200e-01 1.112411e+03 
3.655500e-01 1.108103e+03 
3.667300e-01 1.104004e+03 
3.679500e-01 1.099814e+03 
3.691900e-01 1.095591e+03 
3.703600e-01 1.091637e+03 
3.715700e-01 1.087581e+03 
3.727700e-01 1.083590e+03 
3.739900e-01 1.079572e+03 
3.752000e-01 1.075630e+03 
3.763900e-01 1.071784e+03 
3.775800e-01 1.067967e+03 
3.788200e-01 1.064021e+03 
3.800300e-01 1.060202e+03 
3.812100e-01 1.056493e+03 
3.824200e-01 1.052712e+03 
3.836100e-01 1.049021e+03 
3.848600e-01 1.045175e+03 
3.860400e-01 1.041571e+03 
3.872400e-01 1.037935e+03 
3.884600e-01 1.034279e+03 
3.896500e-01 1.030744e+03 
3.908700e-01 1.027148e+03 
3.920600e-01 1.023667e+03 
3.933100e-01 1.020038e+03 
3.945300e-01 1.016524e+03 
3.957200e-01 1.013131e+03 
3.969300e-01 1.009709e+03 
3.981700e-01 1.006228e+03 
3.993500e-01 1.002941e+03 
4.094840e-01 9.755818e+02 
4.272360e-01 9.314838e+02 
4.454600e-01 8.901920e+02 
4.630560e-01 8.538771e+02 
4.804610e-01 8.208079e+02 
4.980690e-01 7.899433e+02 
5.159230e-01 7.610600e+02 
5.317440e-01 7.371350e+02 
5.489640e-01 7.129580e+02 
5.671990e-01 6.891010e+02 
5.838690e-01 6.687393e+02 
6.018840e-01 6.481985e+02 
6.202330e-01 6.287010e+02 
6.379250e-01 6.110950e+02 
6.545410e-01 5.955007e+02 
6.714560e-01 5.804980e+02 
6.892080e-01 5.656305e+02 
7.066010e-01 5.518655e+02 
7.240540e-01 5.387765e+02 
7.420450e-01 5.258871e+02 
7.593780e-01 5.141581e+02 
7.764720e-01 5.030674e+02 
7.942840e-01 4.920716e+02 
8.116170e-01 4.817752e+02 
8.288310e-01 4.719787e+02 
8.462240e-01 4.624404e+02 
8.631980e-01 4.535300e+02 
8.810700e-01 4.444466e+02 
8.989410e-01 4.357172e+02 
9.166330e-01 4.273511e+02 
9.345640e-01 4.191500e+02 
9.515980e-01 4.116038e+02 
9.688720e-01 4.041658e+02 
9.865640e-01 3.967543e+02 
1.031870e+00 3.788504e+02 
1.063490e+00 3.670606e+02 
1.097920e+00 3.548328e+02 
1.134370e+00 3.425343e+02 
1.167730e+00 3.318564e+02 
1.203830e+00 3.208202e+02 
1.240470e+00 3.101717e+02 
1.275790e+00 3.003457e+02 
1.309140e+00 2.914902e+02 
1.342970e+00 2.828761e+02 
1.378420e+00 2.742421e+02 
1.413200e+00 2.661157e+02 
1.448110e+00 2.582846e+02 
1.484090e+00 2.505525e+02 
1.518820e+00 2.433806e+02 
1.552880e+00 2.366317e+02 
1.588630e+00 2.298383e+02 
1.623230e+00 2.235185e+02 
1.657720e+00 2.174769e+02 
1.692450e+00 2.116179e+02 
1.726400e+00 2.060893e+02 
1.762200e+00 2.004728e+02 
1.797880e+00 1.950876e+02 
1.833270e+00 1.899622e+02 
1.869070e+00 1.849457e+02 
1.903200e+00 1.803532e+02 
1.937740e+00 1.758614e+02 
1.973190e+00 1.714078e+02 
2.007440e+00 1.672595e+02 
2.042160e+00 1.632085e+02 
2.077900e+00 1.591541e+02 
2.112390e+00 1.553956e+02 
2.146220e+00 1.518229e+02 
2.181600e+00 1.482019e+02 
2.216930e+00 1.447218e+02 
2.250760e+00 1.414878e+02 
2.286500e+00 1.381747e+02 
2.321770e+00 1.350211e+02 
2.355950e+00 1.320577e+02 
2.391280e+00 1.291024e+02 
2.426240e+00 1.262538e+02 
2.460670e+00 1.235332e+02 
2.495640e+00 1.208643e+02 
2.531080e+00 1.182325e+02 
2.566220e+00 1.156993e+02 
2.600830e+00 1.132847e+02 
2.635080e+00 1.109740e+02 
2.670340e+00 1.086538e+02 
2.705970e+00 1.063775e+02 
2.740040e+00 1.042629e+02 
2.774520e+00 1.021771e+02 
2.809730e+00 1.001152e+02 
2.844390e+00 9.814580e+01 
2.879960e+00 9.617653e+01 
2.914860e+00 9.429463e+01 
2.949410e+00 9.248440e+01 
2.984440e+00 9.070339e+01 
3.019760e+00 8.895462e+01 
3.054730e+00 8.726995e+01 
3.089030e+00 8.565513e+01 
3.124060e+00 8.404940e+01 
3.159560e+00 8.246366e+01 
3.194710e+00 8.093865e+01 
3.229010e+00 7.949119e+01 
3.263320e+00 7.807458e+01 
3.297930e+00 7.668467e+01 
3.332830e+00 7.532206e+01 
3.368040e+00 7.397994e+01 
3.403300e+00 7.266871e+01 
3.438450e+00 7.139104e+01 
3.473060e+00 7.016451e+01 
3.508440e+00 6.894434e+01 
3.543110e+00 6.777844e+01 
3.577470e+00 6.664698e+01 
3.613040e+00 6.550558e+01 
3.648120e+00 6.440953e+01 
3.682910e+00 6.334756e+01 
3.718050e+00 6.229775e+01 
3.753320e+00 6.127057e+01 
3.787980e+00 6.028657e+01 
3.822290e+00 5.933369e+01 
3.857020e+00 5.838903e+01 
3.891920e+00 5.746057e+01 
3.926650e+00 5.655559e+01 
3.961970e+00 5.565701e+01 
3.997360e+00 5.477866e+01 
4.031670e+00 5.394679e+01 
4.066330e+00 5.312680e+01 
4.101420e+00 5.231503e+01 
4.136200e+00 5.152526e+01 
4.170810e+00 5.075653e+01 
4.206250e+00 4.998797e+01 
4.241580e+00 4.923885e+01 
4.276300e+00 4.851656e+01 
4.310970e+00 4.780951e+01 
4.346120e+00 4.710859e+01 
4.380600e+00 4.643666e+01 
4.414730e+00 4.578512e+01 
4.450350e+00 4.511708e+01 
4.485320e+00 4.447487e+01 
4.519810e+00 4.385539e+01 
4.555430e+00 4.322911e+01 
4.590870e+00 4.261810e+01 
4.625480e+00 4.203202e+01 
4.659910e+00 4.146043e+01 
4.695230e+00 4.088730e+01 
4.729960e+00 4.033506e+01 
4.764450e+00 3.979769e+01 
4.799530e+00 3.926247e+01 
4.834910e+00 3.873310e+01 
4.869700e+00 3.822386e+01 
4.904370e+00 3.772614e+01 
4.939450e+00 3.723153e+01 
4.973940e+00 3.675310e+01 
5.008430e+00 3.628344e+01 
5.043810e+00 3.580977e+01 
5.078840e+00 3.534900e+01 
5.113500e+00 3.490138e+01 
5.148890e+00 3.445664e+01 
5.184210e+00 3.402101e+01 
5.219060e+00 3.359852e+01 
5.253660e+00 3.318549e+01 
5.288570e+00 3.277607e+01 
5.323420e+00 3.237405e+01 
5.358440e+00 3.197661e+01 
5.393590e+00 3.158464e+01 
5.428310e+00 3.120652e+01 
5.462800e+00 3.083851e+01 
5.497640e+00 3.047302e+01 
5.532670e+00 3.011089e+01 
5.567280e+00 2.975880e+01 
5.602000e+00 2.941145e+01 
5.637270e+00 2.906385e+01 
5.672410e+00 2.872315e+01 
5.707020e+00 2.839310e+01 
5.742040e+00 2.806563e+01 
5.777430e+00 2.774033e+01 
5.812210e+00 2.742581e+01 
5.846820e+00 2.711855e+01 
5.881610e+00 2.681476e+01 
5.916510e+00 2.651483e+01 
5.951600e+00 2.621752e+01 
5.986560e+00 2.592574e+01 
6.021830e+00 2.563600e+01 
6.056490e+00 2.535714e+01 
6.091160e+00 2.508369e+01 
6.125830e+00 2.481439e+01 
6.161090e+00 2.454402e+01 
6.195760e+00 2.428077e+01 
6.230420e+00 2.402155e+01 
6.265690e+00 2.376177e+01 
6.300950e+00 2.350689e+01 
6.335620e+00 2.326000e+01 
6.370880e+00 2.301263e+01 
6.405550e+00 2.277361e+01 
6.440220e+00 2.253832e+01 
6.475480e+00 2.230251e+01 
6.510150e+00 2.207385e+01 
6.544810e+00 2.184817e+01 
6.580080e+00 2.162183e+01 
6.614750e+00 2.140252e+01 
6.649410e+00 2.118711e+01 
6.684080e+00 2.097481e+01 
6.719340e+00 2.076193e+01 
6.754010e+00 2.055540e+01 
6.788680e+00 2.035137e+01 
6.823940e+00 2.014675e+01 
6.859800e+00 1.994157e+01 
6.894470e+00 1.974648e+01 
6.929140e+00 1.955422e+01 
6.963800e+00 1.936462e+01 
6.999070e+00 1.917428e+01 
7.033730e+00 1.898945e+01 
7.068400e+00 1.880703e+01 
7.103660e+00 1.862400e+01 
7.138330e+00 1.844664e+01 
7.173600e+00 1.826904e+01 
7.208260e+00 1.809682e+01 
7.243530e+00 1.792387e+01 
7.277600e+00 1.775883e+01 
7.312860e+00 1.759010e+01 
7.348120e+00 1.742358e+01 
7.382790e+00 1.726197e+01 
7.417460e+00 1.710279e+01 
7.452720e+00 1.694316e+01 
7.487390e+00 1.678820e+01 
7.522650e+00 1.663262e+01 
7.557320e+00 1.648134e+01 
7.591990e+00 1.633188e+01 
7.627250e+00 1.618178e+01 
7.662510e+00 1.603358e+01 
7.697180e+00 1.588945e+01 
7.731850e+00 1.574702e+01 
7.766510e+00 1.560637e+01 
7.801180e+00 1.546740e+01 
7.836440e+00 1.532817e+01 
7.871110e+00 1.519317e+01 
7.906380e+00 1.505750e+01 
7.941040e+00 1.492579e+01 
7.976310e+00 1.479288e+01 
8.011570e+00 1.466103e+01 
8.046240e+00 1.453294e+01 
8.080900e+00 1.440640e+01 
8.115570e+00 1.428159e+01 
8.150830e+00 1.415713e+01 
8.185500e+00 1.403619e+01 
8.220770e+00 1.391460e+01 
8.255430e+00 1.379652e+01 
8.290100e+00 1.367905e+01 
8.324770e+00 1.356286e+01 
8.359430e+00 1.344804e+01 
8.394700e+00 1.333255e+01 
8.429960e+00 1.321861e+01 
8.464630e+00 1.310804e+01 
8.499890e+00 1.299687e+01 
8.534560e+00 1.288880e+01 
8.569200e+00 1.278204e+01 
