# Parameters:
# omega_b = 0.022429, omega_m = 0.148386, n_s = 0.949213, h = 76.023622, w = -1.000000, sigma_8 = 0.770315
# z = 1.000000
#
# k[1/Mpc] # P(k):
8.694000e-04 4.451857e+03 
2.077466e-03 9.434219e+03 
3.285532e-03 1.334445e+04 
4.493598e-03 1.638156e+04 
5.701664e-03 1.866958e+04 
6.909730e-03 2.032547e+04 
8.117797e-03 2.148398e+04 
9.325863e-03 2.221415e+04 
1.053393e-02 2.258569e+04 
1.174199e-02 2.266288e+04 
1.295006e-02 2.248739e+04 
1.415813e-02 2.211510e+04 
1.536619e-02 2.159194e+04 
1.657426e-02 2.094441e+04 
1.778233e-02 2.016355e+04 
1.899039e-02 1.926473e+04 
2.019846e-02 1.834136e+04 
2.140652e-02 1.746569e+04 
2.261459e-02 1.663130e+04 
2.382266e-02 1.583698e+04 
2.503072e-02 1.509053e+04 
2.623879e-02 1.439617e+04 
2.744685e-02 1.375623e+04 
2.865492e-02 1.317287e+04 
2.986299e-02 1.264485e+04 
3.100100e-02 1.219729e+04 
3.220400e-02 1.177390e+04 
3.288100e-02 1.155789e+04 
3.424300e-02 1.116660e+04 
3.555100e-02 1.083794e+04 
3.686000e-02 1.055043e+04 
3.795000e-02 1.033678e+04 
3.929100e-02 1.010239e+04 
4.039800e-02 9.925604e+03 
4.164000e-02 9.739484e+03 
4.294400e-02 9.550760e+03 
4.415000e-02 9.379170e+03 
4.542900e-02 9.191086e+03 
4.660900e-02 9.013594e+03 
4.782300e-02 8.815355e+03 
4.892900e-02 8.626994e+03 
5.031200e-02 8.376387e+03 
5.155900e-02 8.135099e+03 
5.238100e-02 7.969892e+03 
5.378200e-02 7.679599e+03 
5.513400e-02 7.390374e+03 
5.627600e-02 7.142730e+03 
5.735300e-02 6.909962e+03 
5.870100e-02 6.623090e+03 
5.988700e-02 6.378615e+03 
6.113500e-02 6.131505e+03 
6.225900e-02 5.920092e+03 
6.340100e-02 5.717984e+03 
6.480200e-02 5.487886e+03 
6.601100e-02 5.307153e+03 
6.725500e-02 5.138217e+03 
6.829100e-02 5.011942e+03 
6.958600e-02 4.868557e+03 
7.071100e-02 4.758174e+03 
7.192300e-02 4.651963e+03 
7.307400e-02 4.562068e+03 
7.412300e-02 4.488285e+03 
7.550400e-02 4.402247e+03 
7.663100e-02 4.338665e+03 
7.791200e-02 4.273626e+03 
7.912700e-02 4.216568e+03 
8.027600e-02 4.165057e+03 
8.138400e-02 4.116718e+03 
8.272200e-02 4.058964e+03 
8.406100e-02 4.000686e+03 
8.534100e-02 3.942763e+03 
8.653800e-02 3.885870e+03 
8.759800e-02 3.833824e+03 
8.900300e-02 3.761739e+03 
9.009000e-02 3.702982e+03 
9.113300e-02 3.643732e+03 
9.239600e-02 3.570276e+03 
9.358000e-02 3.498902e+03 
9.496100e-02 3.412268e+03 
9.608400e-02 3.341002e+03 
9.727500e-02 3.265343e+03 
9.852600e-02 3.183865e+03 
9.973800e-02 3.106236e+03 
1.009000e-01 3.033125e+03 
1.020900e-01 2.959519e+03 
1.034000e-01 2.881460e+03 
1.046000e-01 2.812683e+03 
1.057200e-01 2.752206e+03 
1.069100e-01 2.690748e+03 
1.082500e-01 2.626780e+03 
1.093900e-01 2.576483e+03 
1.105400e-01 2.528557e+03 
1.116900e-01 2.485828e+03 
1.129600e-01 2.441325e+03 
1.142000e-01 2.402766e+03 
1.153300e-01 2.370004e+03 
1.166400e-01 2.335291e+03 
1.177800e-01 2.307664e+03 
1.190000e-01 2.279662e+03 
1.201200e-01 2.255804e+03 
1.213400e-01 2.230652e+03 
1.227100e-01 2.203634e+03 
1.238900e-01 2.180814e+03 
1.250700e-01 2.157967e+03 
1.263200e-01 2.133834e+03 
1.275500e-01 2.109538e+03 
1.287500e-01 2.085535e+03 
1.299900e-01 2.059959e+03 
1.311300e-01 2.035946e+03 
1.323500e-01 2.009269e+03 
1.335900e-01 1.981675e+03 
1.347100e-01 1.955844e+03 
1.359800e-01 1.926341e+03 
1.372100e-01 1.896704e+03 
1.384300e-01 1.867409e+03 
1.395700e-01 1.839275e+03 
1.407700e-01 1.810191e+03 
1.420300e-01 1.779089e+03 
1.432800e-01 1.748967e+03 
1.444500e-01 1.720909e+03 
1.456300e-01 1.693236e+03 
1.468900e-01 1.664732e+03 
1.480500e-01 1.639185e+03 
1.491700e-01 1.615506e+03 
1.503800e-01 1.591065e+03 
1.516400e-01 1.566470e+03 
1.528200e-01 1.545248e+03 
1.540200e-01 1.524101e+03 
1.551900e-01 1.505319e+03 
1.564300e-01 1.486149e+03 
1.576600e-01 1.468223e+03 
1.588700e-01 1.451784e+03 
1.600900e-01 1.435580e+03 
1.612700e-01 1.421271e+03 
1.625400e-01 1.406155e+03 
1.637600e-01 1.392203e+03 
1.649500e-01 1.379011e+03 
1.662200e-01 1.365167e+03 
1.674000e-01 1.352423e+03 
1.685000e-01 1.340740e+03 
1.697500e-01 1.327368e+03 
1.710300e-01 1.313602e+03 
1.722200e-01 1.301031e+03 
1.734400e-01 1.287442e+03 
1.746400e-01 1.274268e+03 
1.758700e-01 1.260692e+03 
1.770900e-01 1.246837e+03 
1.782700e-01 1.233665e+03 
1.794600e-01 1.220156e+03 
1.807000e-01 1.206020e+03 
1.819100e-01 1.192466e+03 
1.830100e-01 1.179987e+03 
1.842200e-01 1.166423e+03 
1.855000e-01 1.152320e+03 
1.867000e-01 1.139203e+03 
1.879200e-01 1.126092e+03 
1.890900e-01 1.113752e+03 
1.902800e-01 1.101535e+03 
1.915200e-01 1.089016e+03 
1.926900e-01 1.077475e+03 
1.939000e-01 1.065989e+03 
1.951700e-01 1.054131e+03 
1.963100e-01 1.043755e+03 
1.975100e-01 1.033266e+03 
1.987800e-01 1.022342e+03 
2.000100e-01 1.012043e+03 
2.012500e-01 1.002079e+03 
2.023400e-01 9.934490e+02 
2.036100e-01 9.835957e+02 
2.048900e-01 9.740328e+02 
2.060400e-01 9.655687e+02 
2.072200e-01 9.570188e+02 
2.084200e-01 9.485958e+02 
2.096900e-01 9.398131e+02 
2.109200e-01 9.314334e+02 
2.121100e-01 9.234866e+02 
2.132700e-01 9.158493e+02 
2.145200e-01 9.077352e+02 
2.157200e-01 9.000584e+02 
2.168800e-01 8.927395e+02 
2.180700e-01 8.853326e+02 
2.193400e-01 8.775304e+02 
2.206000e-01 8.698851e+02 
2.217500e-01 8.630023e+02 
2.229500e-01 8.559151e+02 
2.241400e-01 8.489809e+02 
2.253500e-01 8.420242e+02 
2.264900e-01 8.355552e+02 
2.277100e-01 8.287414e+02 
2.289900e-01 8.217116e+02 
2.301500e-01 8.154254e+02 
2.313600e-01 8.089530e+02 
2.325600e-01 8.026964e+02 
2.337700e-01 7.964688e+02 
2.350000e-01 7.902204e+02 
2.362000e-01 7.842544e+02 
2.374100e-01 7.783758e+02 
2.386500e-01 7.724285e+02 
2.399100e-01 7.664635e+02 
2.410400e-01 7.612657e+02 
2.422500e-01 7.557775e+02 
2.435000e-01 7.501789e+02 
2.447300e-01 7.447565e+02 
2.458700e-01 7.398609e+02 
2.470600e-01 7.348102e+02 
2.483300e-01 7.294860e+02 
2.495600e-01 7.244093e+02 
2.507600e-01 7.195376e+02 
2.519600e-01 7.147232e+02 
2.532200e-01 7.097287e+02 
2.543700e-01 7.052242e+02 
2.555500e-01 7.006548e+02 
2.568000e-01 6.958708e+02 
2.580100e-01 6.912945e+02 
2.592400e-01 6.866699e+02 
2.604100e-01 6.823094e+02 
2.616100e-01 6.778872e+02 
2.628400e-01 6.734062e+02 
2.640600e-01 6.689659e+02 
2.652200e-01 6.647724e+02 
2.664300e-01 6.604464e+02 
2.676500e-01 6.561336e+02 
2.688400e-01 6.519330e+02 
2.700700e-01 6.476140e+02 
2.712400e-01 6.435508e+02 
2.724800e-01 6.392918e+02 
2.736700e-01 6.352192e+02 
2.748800e-01 6.310917e+02 
2.761000e-01 6.269758e+02 
2.773200e-01 6.229049e+02 
2.785400e-01 6.188631e+02 
2.797000e-01 6.150287e+02 
2.808900e-01 6.111363e+02 
2.821400e-01 6.070917e+02 
2.833900e-01 6.030900e+02 
2.845500e-01 5.993796e+02 
2.857800e-01 5.954865e+02 
2.870300e-01 5.915728e+02 
2.882100e-01 5.879172e+02 
2.893900e-01 5.842834e+02 
2.906300e-01 5.804963e+02 
2.918900e-01 5.766894e+02 
2.930500e-01 5.732208e+02 
2.942500e-01 5.696650e+02 
2.954200e-01 5.662209e+02 
2.966500e-01 5.626369e+02 
2.978900e-01 5.590613e+02 
2.990400e-01 5.557784e+02 
3.002700e-01 5.522953e+02 
3.015100e-01 5.488166e+02 
3.026800e-01 5.455670e+02 
3.038500e-01 5.423489e+02 
3.050300e-01 5.391345e+02 
3.062600e-01 5.358134e+02 
3.075000e-01 5.324990e+02 
3.087000e-01 5.293234e+02 
3.099100e-01 5.261525e+02 
3.111200e-01 5.230138e+02 
3.123100e-01 5.199587e+02 
3.135300e-01 5.168568e+02 
3.147300e-01 5.138351e+02 
3.159900e-01 5.106934e+02 
3.171800e-01 5.077583e+02 
3.183700e-01 5.048529e+02 
3.196300e-01 5.018061e+02 
3.208400e-01 4.989085e+02 
3.220300e-01 4.960854e+02 
3.232000e-01 4.933411e+02 
3.244300e-01 4.904850e+02 
3.256700e-01 4.876331e+02 
3.269200e-01 4.847857e+02 
3.280800e-01 4.821676e+02 
3.292500e-01 4.795593e+02 
3.304800e-01 4.768449e+02 
3.317100e-01 4.741557e+02 
3.328900e-01 4.715992e+02 
3.340700e-01 4.690654e+02 
3.353600e-01 4.663309e+02 
3.365300e-01 4.638772e+02 
3.377100e-01 4.614242e+02 
3.389200e-01 4.589309e+02 
3.401600e-01 4.563989e+02 
3.413700e-01 4.539611e+02 
3.425300e-01 4.516519e+02 
3.437700e-01 4.492049e+02 
3.449800e-01 4.468383e+02 
3.461800e-01 4.445117e+02 
3.473600e-01 4.422479e+02 
3.485800e-01 4.399383e+02 
3.498100e-01 4.376301e+02 
3.510200e-01 4.353792e+02 
3.522000e-01 4.332027e+02 
3.533900e-01 4.310260e+02 
3.546400e-01 4.287752e+02 
3.558400e-01 4.266338e+02 
3.570600e-01 4.244750e+02 
3.582700e-01 4.223521e+02 
3.595000e-01 4.202123e+02 
3.607100e-01 4.181335e+02 
3.618900e-01 4.161294e+02 
3.631200e-01 4.140577e+02 
3.643200e-01 4.120533e+02 
3.655500e-01 4.100157e+02 
3.667300e-01 4.080770e+02 
3.679500e-01 4.061046e+02 
3.691900e-01 4.041165e+02 
3.703600e-01 4.022558e+02 
3.715700e-01 4.003469e+02 
3.727700e-01 3.984689e+02 
3.739900e-01 3.965802e+02 
3.752000e-01 3.947318e+02 
3.763900e-01 3.929282e+02 
3.775800e-01 3.911388e+02 
3.788200e-01 3.892891e+02 
3.800300e-01 3.874985e+02 
3.812100e-01 3.857721e+02 
3.824200e-01 3.840198e+02 
3.836100e-01 3.823098e+02 
3.848600e-01 3.805277e+02 
3.860400e-01 3.788586e+02 
3.872400e-01 3.771740e+02 
3.884600e-01 3.754831e+02 
3.896500e-01 3.738495e+02 
3.908700e-01 3.721875e+02 
3.920600e-01 3.705788e+02 
3.933100e-01 3.689019e+02 
3.945300e-01 3.672779e+02 
3.957200e-01 3.657140e+02 
3.969300e-01 3.641381e+02 
3.981700e-01 3.625353e+02 
3.993500e-01 3.610215e+02 
4.094840e-01 3.484763e+02 
4.272360e-01 3.284351e+02 
4.454600e-01 3.099646e+02 
4.630560e-01 2.938456e+02 
4.804610e-01 2.793259e+02 
4.980690e-01 2.658896e+02 
5.159230e-01 2.533996e+02 
5.317440e-01 2.431827e+02 
5.489640e-01 2.328906e+02 
5.671990e-01 2.228461e+02 
5.838690e-01 2.143521e+02 
6.018840e-01 2.058506e+02 
6.202330e-01 1.978532e+02 
6.379250e-01 1.906963e+02 
6.545410e-01 1.844583e+02 
6.714560e-01 1.785162e+02 
6.892080e-01 1.726966e+02 
7.066010e-01 1.673772e+02 
7.240540e-01 1.623724e+02 
7.420450e-01 1.575483e+02 
7.593780e-01 1.531842e+02 
7.764720e-01 1.491253e+02 
7.942840e-01 1.451368e+02 
8.116170e-01 1.414752e+02 
8.288310e-01 1.380344e+02 
8.462240e-01 1.347335e+02 
8.631980e-01 1.316716e+02 
8.810700e-01 1.286033e+02 
8.989410e-01 1.256842e+02 
9.166330e-01 1.229266e+02 
9.345640e-01 1.202581e+02 
9.515980e-01 1.178316e+02 
9.688720e-01 1.154706e+02 
9.865640e-01 1.131488e+02 
1.031870e+00 1.076023e+02 
1.063490e+00 1.040323e+02 
1.097920e+00 1.003941e+02 
1.134370e+00 9.678691e+01 
1.167730e+00 9.368981e+01 
1.203830e+00 9.052343e+01 
1.240470e+00 8.749884e+01 
1.275790e+00 8.473751e+01 
1.309140e+00 8.226826e+01 
1.342970e+00 7.987273e+01 
1.378420e+00 7.748944e+01 
1.413200e+00 7.525649e+01 
1.448110e+00 7.311510e+01 
1.484090e+00 7.101141e+01 
1.518820e+00 6.906767e+01 
1.552880e+00 6.723663e+01 
1.588630e+00 6.539414e+01 
1.623230e+00 6.368572e+01 
1.657720e+00 6.204952e+01 
1.692450e+00 6.046593e+01 
1.726400e+00 5.897240e+01 
1.762200e+00 5.745675e+01 
1.797880e+00 5.600338e+01 
1.833270e+00 5.461564e+01 
1.869070e+00 5.326266e+01 
1.903200e+00 5.201820e+01 
1.937740e+00 5.080223e+01 
1.973190e+00 4.959629e+01 
2.007440e+00 4.847092e+01 
2.042160e+00 4.736714e+01 
2.077900e+00 4.626816e+01 
2.112390e+00 4.524339e+01 
2.146220e+00 4.426811e+01 
2.181600e+00 4.327958e+01 
2.216930e+00 4.232439e+01 
2.250760e+00 4.143801e+01 
2.286500e+00 4.053031e+01 
2.321770e+00 3.966244e+01 
2.355950e+00 3.884588e+01 
2.391280e+00 3.802555e+01 
2.426240e+00 3.723778e+01 
2.460670e+00 3.648502e+01 
2.495640e+00 3.574323e+01 
2.531080e+00 3.501084e+01 
2.566220e+00 3.430555e+01 
2.600830e+00 3.363070e+01 
2.635080e+00 3.298150e+01 
2.670340e+00 3.232987e+01 
2.705970e+00 3.169001e+01 
2.740040e+00 3.109512e+01 
2.774520e+00 3.050792e+01 
2.809730e+00 2.992380e+01 
2.844390e+00 2.936442e+01 
2.879960e+00 2.880494e+01 
2.914860e+00 2.827014e+01 
2.949410e+00 2.775477e+01 
2.984440e+00 2.724442e+01 
3.019760e+00 2.674327e+01 
3.054730e+00 2.626036e+01 
3.089030e+00 2.579662e+01 
3.124060e+00 2.533525e+01 
3.159560e+00 2.487936e+01 
3.194710e+00 2.443857e+01 
3.229010e+00 2.401939e+01 
3.263320e+00 2.360877e+01 
3.297930e+00 2.320489e+01 
3.332830e+00 2.280700e+01 
3.368040e+00 2.241490e+01 
3.403300e+00 2.203163e+01 
3.438450e+00 2.165794e+01 
3.473060e+00 2.129907e+01 
3.508440e+00 2.093986e+01 
3.543110e+00 2.059648e+01 
3.577470e+00 2.026305e+01 
3.613040e+00 1.992606e+01 
3.648120e+00 1.960084e+01 
3.682910e+00 1.928571e+01 
3.718050e+00 1.897421e+01 
3.753320e+00 1.866867e+01 
3.787980e+00 1.837489e+01 
3.822290e+00 1.809033e+01 
3.857020e+00 1.780816e+01 
3.891920e+00 1.753077e+01 
3.926650e+00 1.726031e+01 
3.961970e+00 1.699135e+01 
3.997360e+00 1.672749e+01 
4.031670e+00 1.647725e+01 
4.066330e+00 1.622927e+01 
4.101420e+00 1.598377e+01 
4.136200e+00 1.574509e+01 
4.170810e+00 1.551274e+01 
4.206250e+00 1.527938e+01 
4.241580e+00 1.505172e+01 
4.276300e+00 1.483237e+01 
4.310970e+00 1.461773e+01 
4.346120e+00 1.440457e+01 
4.380600e+00 1.419962e+01 
4.414730e+00 1.400088e+01 
4.450350e+00 1.379725e+01 
4.485320e+00 1.360149e+01 
4.519810e+00 1.341204e+01 
4.555430e+00 1.322022e+01 
4.590870e+00 1.303321e+01 
4.625480e+00 1.285408e+01 
4.659910e+00 1.267937e+01 
4.695230e+00 1.250339e+01 
4.729960e+00 1.233371e+01 
4.764450e+00 1.216835e+01 
4.799530e+00 1.200326e+01 
4.834910e+00 1.183999e+01 
4.869700e+00 1.168241e+01 
4.904370e+00 1.152833e+01 
4.939450e+00 1.137534e+01 
4.973940e+00 1.122766e+01 
5.008430e+00 1.108271e+01 
5.043810e+00 1.093666e+01 
5.078840e+00 1.079468e+01 
5.113500e+00 1.065676e+01 
5.148890e+00 1.051850e+01 
5.184210e+00 1.038304e+01 
5.219060e+00 1.025179e+01 
5.253660e+00 1.012376e+01 
5.288570e+00 9.996867e+00 
5.323420e+00 9.872442e+00 
5.358440e+00 9.749624e+00 
5.393590e+00 9.628507e+00 
5.428310e+00 9.510983e+00 
5.462800e+00 9.396249e+00 
5.497640e+00 9.282320e+00 
5.532670e+00 9.169746e+00 
5.567280e+00 9.060406e+00 
5.602000e+00 8.952549e+00 
5.637270e+00 8.844924e+00 
5.672410e+00 8.739516e+00 
5.707020e+00 8.637412e+00 
5.742040e+00 8.535851e+00 
5.777430e+00 8.434919e+00 
5.812210e+00 8.337348e+00 
5.846820e+00 8.241894e+00 
5.881610e+00 8.147498e+00 
5.916510e+00 8.054314e+00 
5.951600e+00 7.962212e+00 
5.986560e+00 7.871951e+00 
6.021830e+00 7.782330e+00 
6.056490e+00 7.695729e+00 
6.091160e+00 7.610517e+00 
6.125830e+00 7.526615e+00 
6.161090e+00 7.442646e+00 
6.195760e+00 7.361447e+00 
6.230420e+00 7.281499e+00 
6.265690e+00 7.201384e+00 
6.300950e+00 7.122651e+00 
6.335620e+00 7.046398e+00 
6.370880e+00 6.970005e+00 
6.405550e+00 6.896130e+00 
6.440220e+00 6.823389e+00 
6.475480e+00 6.750497e+00 
6.510150e+00 6.679910e+00 
6.544810e+00 6.610445e+00 
6.580080e+00 6.540781e+00 
6.614750e+00 6.473289e+00 
6.649410e+00 6.406972e+00 
6.684080e+00 6.341613e+00 
6.719340e+00 6.276084e+00 
6.754010e+00 6.212599e+00 
6.788680e+00 6.150084e+00 
6.823940e+00 6.087394e+00 
6.859800e+00 6.024540e+00 
6.894470e+00 5.964753e+00 
6.929140e+00 5.905830e+00 
6.963800e+00 5.847727e+00 
6.999070e+00 5.789415e+00 
7.033730e+00 5.733003e+00 
7.068400e+00 5.677331e+00 
7.103660e+00 5.621474e+00 
7.138330e+00 5.567351e+00 
7.173600e+00 5.513159e+00 
7.208260e+00 5.460610e+00 
7.243530e+00 5.407843e+00 
7.277600e+00 5.357624e+00 
7.312860e+00 5.306407e+00 
7.348120e+00 5.255862e+00 
7.382790e+00 5.206808e+00 
7.417460e+00 5.158476e+00 
7.452720e+00 5.110001e+00 
7.487390e+00 5.062948e+00 
7.522650e+00 5.015704e+00 
7.557320e+00 4.969937e+00 
7.591990e+00 4.924779e+00 
7.627250e+00 4.879430e+00 
7.662510e+00 4.834654e+00 
7.697180e+00 4.791286e+00 
7.731850e+00 4.748494e+00 
7.766510e+00 4.706239e+00 
7.801180e+00 4.664487e+00 
7.836440e+00 4.622652e+00 
7.871110e+00 4.582087e+00 
7.906380e+00 4.541320e+00 
7.941040e+00 4.501743e+00 
7.976310e+00 4.462003e+00 
8.011570e+00 4.422812e+00 
8.046240e+00 4.384737e+00 
8.080900e+00 4.347121e+00 
8.115570e+00 4.309965e+00 
8.150830e+00 4.272730e+00 
8.185500e+00 4.236548e+00 
8.220770e+00 4.200170e+00 
8.255430e+00 4.164838e+00 
8.290100e+00 4.130010e+00 
8.324770e+00 4.095593e+00 
8.359430e+00 4.061579e+00 
8.394700e+00 4.027362e+00 
8.429960e+00 3.993620e+00 
8.464630e+00 3.960891e+00 
8.499890e+00 3.927982e+00 
8.534560e+00 3.895988e+00 
8.569200e+00 3.864377e+00 
