# Parameters:
# omega_b = 0.022083, omega_m = 0.147559, n_s = 0.894094, h = 82.874016, w = -1.000000, sigma_8 = 0.774803
# z = 1.000000
#
# k[1/Mpc] # P(k):
8.694000e-04 5.567111e+03 
2.077466e-03 1.122535e+04 
3.285532e-03 1.547617e+04 
4.493598e-03 1.866497e+04 
5.701664e-03 2.098411e+04 
6.909730e-03 2.259426e+04 
8.117797e-03 2.366178e+04 
9.325863e-03 2.427187e+04 
1.053393e-02 2.450603e+04 
1.174199e-02 2.443675e+04 
1.295006e-02 2.411129e+04 
1.415813e-02 2.359099e+04 
1.536619e-02 2.292449e+04 
1.657426e-02 2.213588e+04 
1.778233e-02 2.119164e+04 
1.899039e-02 2.009114e+04 
2.019846e-02 1.897783e+04 
2.140652e-02 1.795577e+04 
2.261459e-02 1.700512e+04 
2.382266e-02 1.611286e+04 
2.503072e-02 1.528333e+04 
2.623879e-02 1.451924e+04 
2.744685e-02 1.382217e+04 
2.865492e-02 1.319238e+04 
2.986299e-02 1.262711e+04 
3.100100e-02 1.215217e+04 
3.220400e-02 1.170650e+04 
3.288100e-02 1.148084e+04 
3.424300e-02 1.107478e+04 
3.555100e-02 1.073657e+04 
3.686000e-02 1.044302e+04 
3.795000e-02 1.022619e+04 
3.929100e-02 9.989499e+03 
4.039800e-02 9.811235e+03 
4.164000e-02 9.623364e+03 
4.294400e-02 9.431683e+03 
4.415000e-02 9.256242e+03 
4.542900e-02 9.061884e+03 
4.660900e-02 8.877150e+03 
4.782300e-02 8.668859e+03 
4.892900e-02 8.470055e+03 
5.031200e-02 8.204582e+03 
5.155900e-02 7.948575e+03 
5.238100e-02 7.773375e+03 
5.378200e-02 7.466046e+03 
5.513400e-02 7.161088e+03 
5.627600e-02 6.901297e+03 
5.735300e-02 6.658415e+03 
5.870100e-02 6.361088e+03 
5.988700e-02 6.109625e+03 
6.113500e-02 5.857466e+03 
6.225900e-02 5.643615e+03 
6.340100e-02 5.440948e+03 
6.480200e-02 5.212215e+03 
6.601100e-02 5.034623e+03 
6.725500e-02 4.870283e+03 
6.829100e-02 4.748796e+03 
6.958600e-02 4.611950e+03 
7.071100e-02 4.507668e+03 
7.192300e-02 4.408138e+03 
7.307400e-02 4.324496e+03 
7.412300e-02 4.256191e+03 
7.550400e-02 4.176834e+03 
7.663100e-02 4.118203e+03 
7.791200e-02 4.057947e+03 
7.912700e-02 4.004539e+03 
8.027600e-02 3.955774e+03 
8.138400e-02 3.909493e+03 
8.272200e-02 3.853453e+03 
8.406100e-02 3.796161e+03 
8.534100e-02 3.738508e+03 
8.653800e-02 3.681471e+03 
8.759800e-02 3.629129e+03 
8.900300e-02 3.556474e+03 
9.009000e-02 3.497224e+03 
9.113300e-02 3.437544e+03 
9.239600e-02 3.363659e+03 
9.358000e-02 3.292029e+03 
9.496100e-02 3.205369e+03 
9.608400e-02 3.134280e+03 
9.727500e-02 3.058984e+03 
9.852600e-02 2.978268e+03 
9.973800e-02 2.901591e+03 
1.009000e-01 2.829571e+03 
1.020900e-01 2.757500e+03 
1.034000e-01 2.681339e+03 
1.046000e-01 2.614505e+03 
1.057200e-01 2.556209e+03 
1.069100e-01 2.497173e+03 
1.082500e-01 2.436278e+03 
1.093900e-01 2.388774e+03 
1.105400e-01 2.343736e+03 
1.116900e-01 2.304101e+03 
1.129600e-01 2.263002e+03 
1.142000e-01 2.227842e+03 
1.153300e-01 2.198105e+03 
1.166400e-01 2.166824e+03 
1.177800e-01 2.142013e+03 
1.190000e-01 2.116909e+03 
1.201200e-01 2.095404e+03 
1.213400e-01 2.072713e+03 
1.227100e-01 2.047903e+03 
1.238900e-01 2.026827e+03 
1.250700e-01 2.005326e+03 
1.263200e-01 1.982449e+03 
1.275500e-01 1.959055e+03 
1.287500e-01 1.935782e+03 
1.299900e-01 1.910739e+03 
1.311300e-01 1.887139e+03 
1.323500e-01 1.860798e+03 
1.335900e-01 1.833541e+03 
1.347100e-01 1.808014e+03 
1.359800e-01 1.778905e+03 
1.372100e-01 1.749745e+03 
1.384300e-01 1.720995e+03 
1.395700e-01 1.693534e+03 
1.407700e-01 1.665183e+03 
1.420300e-01 1.635118e+03 
1.432800e-01 1.606015e+03 
1.444500e-01 1.579174e+03 
1.456300e-01 1.552713e+03 
1.468900e-01 1.525655e+03 
1.480500e-01 1.501468e+03 
1.491700e-01 1.479147e+03 
1.503800e-01 1.456229e+03 
1.516400e-01 1.433206e+03 
1.528200e-01 1.413490e+03 
1.540200e-01 1.393845e+03 
1.551900e-01 1.376506e+03 
1.564300e-01 1.358838e+03 
1.576600e-01 1.342352e+03 
1.588700e-01 1.327277e+03 
1.600900e-01 1.312419e+03 
1.612700e-01 1.299309e+03 
1.625400e-01 1.285461e+03 
1.637600e-01 1.272643e+03 
1.649500e-01 1.260502e+03 
1.662200e-01 1.247744e+03 
1.674000e-01 1.235906e+03 
1.685000e-01 1.225053e+03 
1.697500e-01 1.212566e+03 
1.710300e-01 1.199649e+03 
1.722200e-01 1.187854e+03 
1.734400e-01 1.174993e+03 
1.746400e-01 1.162522e+03 
1.758700e-01 1.149649e+03 
1.770900e-01 1.136469e+03 
1.782700e-01 1.123941e+03 
1.794600e-01 1.111080e+03 
1.807000e-01 1.097616e+03 
1.819100e-01 1.084709e+03 
1.830100e-01 1.072846e+03 
1.842200e-01 1.059956e+03 
1.855000e-01 1.046559e+03 
1.867000e-01 1.034151e+03 
1.879200e-01 1.021751e+03 
1.890900e-01 1.010093e+03 
1.902800e-01 9.986089e+02 
1.915200e-01 9.868422e+02 
1.926900e-01 9.760129e+02 
1.939000e-01 9.652858e+02 
1.951700e-01 9.542135e+02 
1.963100e-01 9.445412e+02 
1.975100e-01 9.348033e+02 
1.987800e-01 9.246624e+02 
2.000100e-01 9.151117e+02 
2.012500e-01 9.058962e+02 
2.023400e-01 8.979144e+02 
2.036100e-01 8.888046e+02 
2.048900e-01 8.799724e+02 
2.060400e-01 8.721557e+02 
2.072200e-01 8.642598e+02 
2.084200e-01 8.564749e+02 
2.096900e-01 8.483582e+02 
2.109200e-01 8.406146e+02 
2.121100e-01 8.332581e+02 
2.132700e-01 8.261879e+02 
2.145200e-01 8.186770e+02 
2.157200e-01 8.115644e+02 
2.168800e-01 8.047807e+02 
2.180700e-01 7.979160e+02 
2.193400e-01 7.906873e+02 
2.206000e-01 7.836080e+02 
2.217500e-01 7.772352e+02 
2.229500e-01 7.706738e+02 
2.241400e-01 7.642743e+02 
2.253500e-01 7.578552e+02 
2.264900e-01 7.518865e+02 
2.277100e-01 7.456196e+02 
2.289900e-01 7.391764e+02 
2.301500e-01 7.334150e+02 
2.313600e-01 7.274837e+02 
2.325600e-01 7.218020e+02 
2.337700e-01 7.161468e+02 
2.350000e-01 7.104728e+02 
2.362000e-01 7.050809e+02 
2.374100e-01 6.997987e+02 
2.386500e-01 6.944547e+02 
2.399100e-01 6.890949e+02 
2.410400e-01 6.844653e+02 
2.422500e-01 6.795821e+02 
2.435000e-01 6.746005e+02 
2.447300e-01 6.697820e+02 
2.458700e-01 6.654569e+02 
2.470600e-01 6.609946e+02 
2.483300e-01 6.562906e+02 
2.495600e-01 6.518096e+02 
2.507600e-01 6.475158e+02 
2.519600e-01 6.432723e+02 
2.532200e-01 6.388699e+02 
2.543700e-01 6.348926e+02 
2.555500e-01 6.308531e+02 
2.568000e-01 6.266239e+02 
2.580100e-01 6.225781e+02 
2.592400e-01 6.184707e+02 
2.604100e-01 6.145894e+02 
2.616100e-01 6.106531e+02 
2.628400e-01 6.066644e+02 
2.640600e-01 6.026860e+02 
2.652200e-01 5.989185e+02 
2.664300e-01 5.950319e+02 
2.676500e-01 5.911572e+02 
2.688400e-01 5.873613e+02 
2.700700e-01 5.834449e+02 
2.712400e-01 5.797605e+02 
2.724800e-01 5.758986e+02 
2.736700e-01 5.721907e+02 
2.748800e-01 5.684177e+02 
2.761000e-01 5.646553e+02 
2.773200e-01 5.609342e+02 
2.785400e-01 5.572323e+02 
2.797000e-01 5.537052e+02 
2.808900e-01 5.501247e+02 
2.821400e-01 5.464045e+02 
2.833900e-01 5.427232e+02 
2.845500e-01 5.392953e+02 
2.857800e-01 5.356987e+02 
2.870300e-01 5.320834e+02 
2.882100e-01 5.287067e+02 
2.893900e-01 5.253439e+02 
2.906300e-01 5.218361e+02 
2.918900e-01 5.183102e+02 
2.930500e-01 5.150979e+02 
2.942500e-01 5.118038e+02 
2.954200e-01 5.086098e+02 
2.966500e-01 5.052863e+02 
2.978900e-01 5.019709e+02 
2.990400e-01 4.989271e+02 
3.002700e-01 4.956964e+02 
3.015100e-01 4.924694e+02 
3.026800e-01 4.894552e+02 
3.038500e-01 4.864704e+02 
3.050300e-01 4.834893e+02 
3.062600e-01 4.804095e+02 
3.075000e-01 4.773361e+02 
3.087000e-01 4.743917e+02 
3.099100e-01 4.714519e+02 
3.111200e-01 4.685426e+02 
3.123100e-01 4.657118e+02 
3.135300e-01 4.628378e+02 
3.147300e-01 4.600385e+02 
3.159900e-01 4.571281e+02 
3.171800e-01 4.544107e+02 
3.183700e-01 4.517217e+02 
3.196300e-01 4.489022e+02 
3.208400e-01 4.462210e+02 
3.220300e-01 4.436089e+02 
3.232000e-01 4.410713e+02 
3.244300e-01 4.384313e+02 
3.256700e-01 4.357953e+02 
3.269200e-01 4.331636e+02 
3.280800e-01 4.307440e+02 
3.292500e-01 4.283351e+02 
3.304800e-01 4.258290e+02 
3.317100e-01 4.233463e+02 
3.328900e-01 4.209863e+02 
3.340700e-01 4.186473e+02 
3.353600e-01 4.161249e+02 
3.365300e-01 4.138624e+02 
3.377100e-01 4.116006e+02 
3.389200e-01 4.093018e+02 
3.401600e-01 4.069675e+02 
3.413700e-01 4.047211e+02 
3.425300e-01 4.025940e+02 
3.437700e-01 4.003401e+02 
3.449800e-01 3.981604e+02 
3.461800e-01 3.960176e+02 
3.473600e-01 3.939332e+02 
3.485800e-01 3.918078e+02 
3.498100e-01 3.896838e+02 
3.510200e-01 3.876126e+02 
3.522000e-01 3.856100e+02 
3.533900e-01 3.836074e+02 
3.546400e-01 3.815376e+02 
3.558400e-01 3.795686e+02 
3.570600e-01 3.775838e+02 
3.582700e-01 3.756321e+02 
3.595000e-01 3.736650e+02 
3.607100e-01 3.717544e+02 
3.618900e-01 3.699129e+02 
3.631200e-01 3.680094e+02 
3.643200e-01 3.661679e+02 
3.655500e-01 3.642960e+02 
3.667300e-01 3.625149e+02 
3.679500e-01 3.607036e+02 
3.691900e-01 3.588779e+02 
3.703600e-01 3.571693e+02 
3.715700e-01 3.554164e+02 
3.727700e-01 3.536920e+02 
3.739900e-01 3.519581e+02 
3.752000e-01 3.502612e+02 
3.763900e-01 3.486057e+02 
3.775800e-01 3.469632e+02 
3.788200e-01 3.452654e+02 
3.800300e-01 3.436221e+02 
3.812100e-01 3.420378e+02 
3.824200e-01 3.404299e+02 
3.836100e-01 3.388609e+02 
3.848600e-01 3.372258e+02 
3.860400e-01 3.356944e+02 
3.872400e-01 3.341490e+02 
3.884600e-01 3.325979e+02 
3.896500e-01 3.310995e+02 
3.908700e-01 3.295752e+02 
3.920600e-01 3.280997e+02 
3.933100e-01 3.265618e+02 
3.945300e-01 3.250725e+02 
3.957200e-01 3.236383e+02 
3.969300e-01 3.221932e+02 
3.981700e-01 3.207235e+02 
3.993500e-01 3.193355e+02 
4.094840e-01 3.078377e+02 
4.272360e-01 2.894854e+02 
4.454600e-01 2.725985e+02 
4.630560e-01 2.578883e+02 
4.804610e-01 2.446639e+02 
4.980690e-01 2.324504e+02 
5.159230e-01 2.211193e+02 
5.317440e-01 2.118656e+02 
5.489640e-01 2.025581e+02 
5.671990e-01 1.934869e+02 
5.838690e-01 1.858244e+02 
6.018840e-01 1.781640e+02 
6.202330e-01 1.709653e+02 
6.379250e-01 1.645276e+02 
6.545410e-01 1.589214e+02 
6.714560e-01 1.535861e+02 
6.892080e-01 1.483638e+02 
7.066010e-01 1.435955e+02 
7.240540e-01 1.391123e+02 
7.420450e-01 1.347966e+02 
7.593780e-01 1.308969e+02 
7.764720e-01 1.272739e+02 
7.942840e-01 1.237178e+02 
8.116170e-01 1.204584e+02 
8.288310e-01 1.174003e+02 
8.462240e-01 1.144711e+02 
8.631980e-01 1.117587e+02 
8.810700e-01 1.090447e+02 
8.989410e-01 1.064674e+02 
9.166330e-01 1.040371e+02 
9.345640e-01 1.016895e+02 
9.515980e-01 9.955935e+01 
9.688720e-01 9.749070e+01 
9.865640e-01 9.546079e+01 
1.031870e+00 9.062660e+01 
1.063490e+00 8.752871e+01 
1.097920e+00 8.438249e+01 
1.134370e+00 8.127418e+01 
1.167730e+00 7.861467e+01 
1.203830e+00 7.590532e+01 
1.240470e+00 7.332452e+01 
1.275790e+00 7.097667e+01 
1.309140e+00 6.888112e+01 
1.342970e+00 6.685468e+01 
1.378420e+00 6.484232e+01 
1.413200e+00 6.296132e+01 
1.448110e+00 6.116108e+01 
1.484090e+00 5.939555e+01 
1.518820e+00 5.776707e+01 
1.552880e+00 5.623551e+01 
1.588630e+00 5.469630e+01 
1.623230e+00 5.327103e+01 
1.657720e+00 5.190736e+01 
1.692450e+00 5.058877e+01 
1.726400e+00 4.934668e+01 
1.762200e+00 4.808737e+01 
1.797880e+00 4.688046e+01 
1.833270e+00 4.572905e+01 
1.869070e+00 4.460729e+01 
1.903200e+00 4.357571e+01 
1.937740e+00 4.256831e+01 
1.973190e+00 4.156982e+01 
2.007440e+00 4.063827e+01 
2.042160e+00 3.972474e+01 
2.077900e+00 3.881560e+01 
2.112390e+00 3.796783e+01 
2.146220e+00 3.716140e+01 
2.181600e+00 3.634392e+01 
2.216930e+00 3.555415e+01 
2.250760e+00 3.482133e+01 
2.286500e+00 3.407091e+01 
2.321770e+00 3.335345e+01 
2.355950e+00 3.267829e+01 
2.391280e+00 3.200003e+01 
2.426240e+00 3.134853e+01 
2.460670e+00 3.072591e+01 
2.495640e+00 3.011237e+01 
2.531080e+00 2.950653e+01 
2.566220e+00 2.892297e+01 
2.600830e+00 2.836446e+01 
2.635080e+00 2.782702e+01 
2.670340e+00 2.728739e+01 
2.705970e+00 2.675744e+01 
2.740040e+00 2.626465e+01 
2.774520e+00 2.577815e+01 
2.809730e+00 2.529396e+01 
2.844390e+00 2.483011e+01 
2.879960e+00 2.436602e+01 
2.914860e+00 2.392229e+01 
2.949410e+00 2.349456e+01 
2.984440e+00 2.307075e+01 
3.019760e+00 2.265449e+01 
3.054730e+00 2.225330e+01 
3.089030e+00 2.186775e+01 
3.124060e+00 2.148409e+01 
3.159560e+00 2.110491e+01 
3.194710e+00 2.073805e+01 
3.229010e+00 2.038906e+01 
3.263320e+00 2.004694e+01 
3.297930e+00 1.971037e+01 
3.332830e+00 1.937875e+01 
3.368040e+00 1.905174e+01 
3.403300e+00 1.873195e+01 
3.438450e+00 1.841994e+01 
3.473060e+00 1.812023e+01 
3.508440e+00 1.782008e+01 
3.543110e+00 1.753309e+01 
3.577470e+00 1.725420e+01 
3.613040e+00 1.697226e+01 
3.648120e+00 1.670005e+01 
3.682910e+00 1.643618e+01 
3.718050e+00 1.617520e+01 
3.753320e+00 1.591911e+01 
3.787980e+00 1.567274e+01 
3.822290e+00 1.543402e+01 
3.857020e+00 1.519714e+01 
3.891920e+00 1.496420e+01 
3.926650e+00 1.473696e+01 
3.961970e+00 1.451090e+01 
3.997360e+00 1.428897e+01 
4.031670e+00 1.407846e+01 
4.066330e+00 1.386972e+01 
4.101420e+00 1.366303e+01 
4.136200e+00 1.346192e+01 
4.170810e+00 1.326613e+01 
4.206250e+00 1.306935e+01 
4.241580e+00 1.287733e+01 
4.276300e+00 1.269221e+01 
4.310970e+00 1.251100e+01 
4.346120e+00 1.233098e+01 
4.380600e+00 1.215778e+01 
4.414730e+00 1.198982e+01 
4.450350e+00 1.181757e+01 
4.485320e+00 1.165195e+01 
4.519810e+00 1.149159e+01 
4.555430e+00 1.132917e+01 
4.590870e+00 1.117076e+01 
4.625480e+00 1.101894e+01 
4.659910e+00 1.087087e+01 
4.695230e+00 1.072159e+01 
4.729960e+00 1.057764e+01 
4.764450e+00 1.043730e+01 
4.799530e+00 1.029711e+01 
4.834910e+00 1.015846e+01 
4.869700e+00 1.002455e+01 
4.904370e+00 9.893588e+00 
4.939450e+00 9.763517e+00 
4.973940e+00 9.637892e+00 
5.008430e+00 9.514571e+00 
5.043810e+00 9.390252e+00 
5.078840e+00 9.269352e+00 
5.113500e+00 9.151904e+00 
5.148890e+00 9.034093e+00 
5.184210e+00 8.918654e+00 
5.219060e+00 8.806770e+00 
5.253660e+00 8.697573e+00 
5.288570e+00 8.589335e+00 
5.323420e+00 8.483167e+00 
5.358440e+00 8.378329e+00 
5.393590e+00 8.274937e+00 
5.428310e+00 8.174565e+00 
5.462800e+00 8.076549e+00 
5.497640e+00 7.979215e+00 
5.532670e+00 7.882990e+00 
5.567280e+00 7.789511e+00 
5.602000e+00 7.697296e+00 
5.637270e+00 7.605233e+00 
5.672410e+00 7.515054e+00 
5.707020e+00 7.427698e+00 
5.742040e+00 7.340759e+00 
5.777430e+00 7.254348e+00 
5.812210e+00 7.170810e+00 
5.846820e+00 7.089052e+00 
5.881610e+00 7.008188e+00 
5.916510e+00 6.928362e+00 
5.951600e+00 6.849430e+00 
5.986560e+00 6.772061e+00 
6.021830e+00 6.695238e+00 
6.056490e+00 6.620981e+00 
6.091160e+00 6.547898e+00 
6.125830e+00 6.475936e+00 
6.161090e+00 6.403907e+00 
6.195760e+00 6.334234e+00 
6.230420e+00 6.265634e+00 
6.265690e+00 6.196888e+00 
6.300950e+00 6.129295e+00 
6.335620e+00 6.063830e+00 
6.370880e+00 5.998244e+00 
6.405550e+00 5.934805e+00 
6.440220e+00 5.872333e+00 
6.475480e+00 5.809730e+00 
6.510150e+00 5.749100e+00 
6.544810e+00 5.689416e+00 
6.580080e+00 5.629560e+00 
6.614750e+00 5.571571e+00 
6.649410e+00 5.514577e+00 
6.684080e+00 5.458404e+00 
6.719340e+00 5.402085e+00 
6.754010e+00 5.347518e+00 
6.788680e+00 5.293777e+00 
6.823940e+00 5.239885e+00 
6.859800e+00 5.185852e+00 
6.894470e+00 5.134447e+00 
6.929140e+00 5.083782e+00 
6.963800e+00 5.033820e+00 
6.999070e+00 4.983679e+00 
7.033730e+00 4.935160e+00 
7.068400e+00 4.887277e+00 
7.103660e+00 4.839235e+00 
7.138330e+00 4.792684e+00 
7.173600e+00 4.746071e+00 
7.208260e+00 4.700872e+00 
7.243530e+00 4.655485e+00 
7.277600e+00 4.612288e+00 
7.312860e+00 4.568230e+00 
7.348120e+00 4.524751e+00 
7.382790e+00 4.482554e+00 
7.417460e+00 4.440976e+00 
7.452720e+00 4.399275e+00 
7.487390e+00 4.358796e+00 
7.522650e+00 4.318153e+00 
7.557320e+00 4.278782e+00 
7.591990e+00 4.239935e+00 
7.627250e+00 4.200924e+00 
7.662510e+00 4.162406e+00 
7.697180e+00 4.125099e+00 
7.731850e+00 4.088287e+00 
7.766510e+00 4.051936e+00 
7.801180e+00 4.016019e+00 
7.836440e+00 3.980033e+00 
7.871110e+00 3.945140e+00 
7.906380e+00 3.910073e+00 
7.941040e+00 3.876030e+00 
7.976310e+00 3.841849e+00 
8.011570e+00 3.808144e+00 
8.046240e+00 3.775399e+00 
8.080900e+00 3.743048e+00 
8.115570e+00 3.711093e+00 
8.150830e+00 3.679074e+00 
8.185500e+00 3.647960e+00 
8.220770e+00 3.616677e+00 
8.255430e+00 3.586293e+00 
8.290100e+00 3.556350e+00 
8.324770e+00 3.526760e+00 
8.359430e+00 3.497517e+00 
8.394700e+00 3.468099e+00 
8.429960e+00 3.439093e+00 
8.464630e+00 3.410961e+00 
8.499890e+00 3.382674e+00 
8.534560e+00 3.355173e+00 
8.569200e+00 3.328002e+00 
