# Parameters:
# omega_b = 0.023421, omega_m = 0.140669, n_s = 0.988583, h = 72.007874, w = -1.000000, sigma_8 = 0.834646
# z = 1.000000
#
# k[1/Mpc] # P(k):
8.694000e-04 5.506194e+03 
2.077466e-03 1.201627e+04 
3.285532e-03 1.719102e+04 
4.493598e-03 2.123574e+04 
5.701664e-03 2.427516e+04 
6.909730e-03 2.646221e+04 
8.117797e-03 2.798009e+04 
9.325863e-03 2.892041e+04 
1.053393e-02 2.937431e+04 
1.174199e-02 2.942561e+04 
1.295006e-02 2.913052e+04 
1.415813e-02 2.856654e+04 
1.536619e-02 2.779835e+04 
1.657426e-02 2.686730e+04 
1.778233e-02 2.578583e+04 
1.899039e-02 2.460725e+04 
2.019846e-02 2.342265e+04 
2.140652e-02 2.228892e+04 
2.261459e-02 2.120351e+04 
2.382266e-02 2.017447e+04 
2.503072e-02 1.921355e+04 
2.623879e-02 1.832569e+04 
2.744685e-02 1.751382e+04 
2.865492e-02 1.677873e+04 
2.986299e-02 1.611750e+04 
3.100100e-02 1.556041e+04 
3.220400e-02 1.503569e+04 
3.288100e-02 1.476860e+04 
3.424300e-02 1.428487e+04 
3.555100e-02 1.387739e+04 
3.686000e-02 1.351835e+04 
3.795000e-02 1.324890e+04 
3.929100e-02 1.294817e+04 
4.039800e-02 1.271719e+04 
4.164000e-02 1.247008e+04 
4.294400e-02 1.221433e+04 
4.415000e-02 1.197964e+04 
4.542900e-02 1.172089e+04 
4.660900e-02 1.147700e+04 
4.782300e-02 1.120699e+04 
4.892900e-02 1.095277e+04 
5.031200e-02 1.061891e+04 
5.155900e-02 1.030234e+04 
5.238100e-02 1.008803e+04 
5.378200e-02 9.715514e+03 
5.513400e-02 9.349243e+03 
5.627600e-02 9.038799e+03 
5.735300e-02 8.749077e+03 
5.870100e-02 8.394237e+03 
5.988700e-02 8.093188e+03 
6.113500e-02 7.789821e+03 
6.225900e-02 7.530730e+03 
6.340100e-02 7.283169e+03 
6.480200e-02 7.001145e+03 
6.601100e-02 6.779209e+03 
6.725500e-02 6.571290e+03 
6.829100e-02 6.415397e+03 
6.958600e-02 6.237888e+03 
7.071100e-02 6.100775e+03 
7.192300e-02 5.968458e+03 
7.307400e-02 5.856150e+03 
7.412300e-02 5.763759e+03 
7.550400e-02 5.655744e+03 
7.663100e-02 5.575753e+03 
7.791200e-02 5.493690e+03 
7.912700e-02 5.421415e+03 
8.027600e-02 5.355851e+03 
8.138400e-02 5.293986e+03 
8.272200e-02 5.219512e+03 
8.406100e-02 5.143675e+03 
8.534100e-02 5.067400e+03 
8.653800e-02 4.991750e+03 
8.759800e-02 4.922143e+03 
8.900300e-02 4.825208e+03 
9.009000e-02 4.745901e+03 
9.113300e-02 4.665891e+03 
9.239600e-02 4.566823e+03 
9.358000e-02 4.470897e+03 
9.496100e-02 4.355396e+03 
9.608400e-02 4.261124e+03 
9.727500e-02 4.161664e+03 
9.852600e-02 4.056440e+03 
9.973800e-02 3.957111e+03 
1.009000e-01 3.864312e+03 
1.020900e-01 3.772782e+03 
1.034000e-01 3.676511e+03 
1.046000e-01 3.592515e+03 
1.057200e-01 3.519861e+03 
1.069100e-01 3.446368e+03 
1.082500e-01 3.370825e+03 
1.093900e-01 3.311795e+03 
1.105400e-01 3.255762e+03 
1.116900e-01 3.206012e+03 
1.129600e-01 3.154167e+03 
1.142000e-01 3.109033e+03 
1.153300e-01 3.070400e+03 
1.166400e-01 3.029026e+03 
1.177800e-01 2.995369e+03 
1.190000e-01 2.960897e+03 
1.201200e-01 2.930395e+03 
1.213400e-01 2.898027e+03 
1.227100e-01 2.861637e+03 
1.238900e-01 2.830626e+03 
1.250700e-01 2.798736e+03 
1.263200e-01 2.764880e+03 
1.275500e-01 2.730423e+03 
1.287500e-01 2.696436e+03 
1.299900e-01 2.660311e+03 
1.311300e-01 2.626710e+03 
1.323500e-01 2.589839e+03 
1.335900e-01 2.552218e+03 
1.347100e-01 2.517653e+03 
1.359800e-01 2.478669e+03 
1.372100e-01 2.440457e+03 
1.384300e-01 2.403071e+03 
1.395700e-01 2.368065e+03 
1.407700e-01 2.331970e+03 
1.420300e-01 2.294432e+03 
1.432800e-01 2.258053e+03 
1.444500e-01 2.224905e+03 
1.456300e-01 2.192185e+03 
1.468900e-01 2.158715e+03 
1.480500e-01 2.128769e+03 
1.491700e-01 2.100972e+03 
1.503800e-01 2.072235e+03 
1.516400e-01 2.043223e+03 
1.528200e-01 2.017852e+03 
1.540200e-01 1.992558e+03 
1.551900e-01 1.969595e+03 
1.564300e-01 1.946025e+03 
1.576600e-01 1.923664e+03 
1.588700e-01 1.902762e+03 
1.600900e-01 1.882124e+03 
1.612700e-01 1.863284e+03 
1.625400e-01 1.843382e+03 
1.637600e-01 1.824758e+03 
1.649500e-01 1.806999e+03 
1.662200e-01 1.788347e+03 
1.674000e-01 1.771092e+03 
1.685000e-01 1.755274e+03 
1.697500e-01 1.737266e+03 
1.710300e-01 1.718825e+03 
1.722200e-01 1.701984e+03 
1.734400e-01 1.684146e+03 
1.746400e-01 1.666867e+03 
1.758700e-01 1.649195e+03 
1.770900e-01 1.631429e+03 
1.782700e-01 1.614536e+03 
1.794600e-01 1.597421e+03 
1.807000e-01 1.579646e+03 
1.819100e-01 1.562598e+03 
1.830100e-01 1.547095e+03 
1.842200e-01 1.530270e+03 
1.855000e-01 1.512777e+03 
1.867000e-01 1.496634e+03 
1.879200e-01 1.480491e+03 
1.890900e-01 1.465298e+03 
1.902800e-01 1.450276e+03 
1.915200e-01 1.434877e+03 
1.926900e-01 1.420668e+03 
1.939000e-01 1.406490e+03 
1.951700e-01 1.391848e+03 
1.963100e-01 1.379009e+03 
1.975100e-01 1.365963e+03 
1.987800e-01 1.352371e+03 
2.000100e-01 1.339522e+03 
2.012500e-01 1.327018e+03 
2.023400e-01 1.316185e+03 
2.036100e-01 1.303794e+03 
2.048900e-01 1.291682e+03 
2.060400e-01 1.280961e+03 
2.072200e-01 1.270123e+03 
2.084200e-01 1.259369e+03 
2.096900e-01 1.248154e+03 
2.109200e-01 1.237452e+03 
2.121100e-01 1.227237e+03 
2.132700e-01 1.217415e+03 
2.145200e-01 1.206980e+03 
2.157200e-01 1.197064e+03 
2.168800e-01 1.187591e+03 
2.180700e-01 1.178003e+03 
2.193400e-01 1.167874e+03 
2.206000e-01 1.157896e+03 
2.217500e-01 1.148913e+03 
2.229500e-01 1.139662e+03 
2.241400e-01 1.130518e+03 
2.253500e-01 1.121342e+03 
2.264900e-01 1.112810e+03 
2.277100e-01 1.103759e+03 
2.289900e-01 1.094350e+03 
2.301500e-01 1.085937e+03 
2.313600e-01 1.077274e+03 
2.325600e-01 1.068753e+03 
2.337700e-01 1.060273e+03 
2.350000e-01 1.051764e+03 
2.362000e-01 1.043572e+03 
2.374100e-01 1.035420e+03 
2.386500e-01 1.027174e+03 
2.399100e-01 1.018904e+03 
2.410400e-01 1.011596e+03 
2.422500e-01 1.003868e+03 
2.435000e-01 9.959852e+02 
2.447300e-01 9.883382e+02 
2.458700e-01 9.813793e+02 
2.470600e-01 9.742009e+02 
2.483300e-01 9.666350e+02 
2.495600e-01 9.594211e+02 
2.507600e-01 9.524985e+02 
2.519600e-01 9.456582e+02 
2.532200e-01 9.385632e+02 
2.543700e-01 9.322020e+02 
2.555500e-01 9.257747e+02 
2.568000e-01 9.190465e+02 
2.580100e-01 9.126111e+02 
2.592400e-01 9.061851e+02 
2.604100e-01 9.001598e+02 
2.616100e-01 8.940498e+02 
2.628400e-01 8.878592e+02 
2.640600e-01 8.818188e+02 
2.652200e-01 8.761510e+02 
2.664300e-01 8.703043e+02 
2.676500e-01 8.644758e+02 
2.688400e-01 8.588756e+02 
2.700700e-01 8.531651e+02 
2.712400e-01 8.477928e+02 
2.724800e-01 8.421617e+02 
2.736700e-01 8.368275e+02 
2.748800e-01 8.314731e+02 
2.761000e-01 8.261333e+02 
2.773200e-01 8.208520e+02 
2.785400e-01 8.156323e+02 
2.797000e-01 8.107306e+02 
2.808900e-01 8.057543e+02 
2.821400e-01 8.005832e+02 
2.833900e-01 7.954688e+02 
2.845500e-01 7.907741e+02 
2.857800e-01 7.858477e+02 
2.870300e-01 7.808949e+02 
2.882100e-01 7.762684e+02 
2.893900e-01 7.716901e+02 
2.906300e-01 7.669294e+02 
2.918900e-01 7.621433e+02 
2.930500e-01 7.577822e+02 
2.942500e-01 7.533151e+02 
2.954200e-01 7.490016e+02 
2.966500e-01 7.445123e+02 
2.978900e-01 7.400331e+02 
2.990400e-01 7.359202e+02 
3.002700e-01 7.315632e+02 
3.015100e-01 7.272147e+02 
3.026800e-01 7.231523e+02 
3.038500e-01 7.191286e+02 
3.050300e-01 7.151094e+02 
3.062600e-01 7.109616e+02 
3.075000e-01 7.068217e+02 
3.087000e-01 7.028546e+02 
3.099100e-01 6.988931e+02 
3.111200e-01 6.949720e+02 
3.123100e-01 6.911563e+02 
3.135300e-01 6.872817e+02 
3.147300e-01 6.835069e+02 
3.159900e-01 6.795817e+02 
3.171800e-01 6.759147e+02 
3.183700e-01 6.722848e+02 
3.196300e-01 6.684778e+02 
3.208400e-01 6.648568e+02 
3.220300e-01 6.613285e+02 
3.232000e-01 6.578972e+02 
3.244300e-01 6.543254e+02 
3.256700e-01 6.507584e+02 
3.269200e-01 6.471966e+02 
3.280800e-01 6.439214e+02 
3.292500e-01 6.406571e+02 
3.304800e-01 6.372596e+02 
3.317100e-01 6.338932e+02 
3.328900e-01 6.306926e+02 
3.340700e-01 6.275200e+02 
3.353600e-01 6.240938e+02 
3.365300e-01 6.210183e+02 
3.377100e-01 6.179432e+02 
3.389200e-01 6.148175e+02 
3.401600e-01 6.116428e+02 
3.413700e-01 6.085841e+02 
3.425300e-01 6.056849e+02 
3.437700e-01 6.026126e+02 
3.449800e-01 5.996409e+02 
3.461800e-01 5.967191e+02 
3.473600e-01 5.938750e+02 
3.485800e-01 5.909706e+02 
3.498100e-01 5.880678e+02 
3.510200e-01 5.852367e+02 
3.522000e-01 5.824989e+02 
3.533900e-01 5.797607e+02 
3.546400e-01 5.769253e+02 
3.558400e-01 5.742272e+02 
3.570600e-01 5.715072e+02 
3.582700e-01 5.688320e+02 
3.595000e-01 5.661353e+02 
3.607100e-01 5.635132e+02 
3.618900e-01 5.609835e+02 
3.631200e-01 5.583683e+02 
3.643200e-01 5.558378e+02 
3.655500e-01 5.532653e+02 
3.667300e-01 5.508173e+02 
3.679500e-01 5.483232e+02 
3.691900e-01 5.458089e+02 
3.703600e-01 5.434555e+02 
3.715700e-01 5.410409e+02 
3.727700e-01 5.386653e+02 
3.739900e-01 5.362749e+02 
3.752000e-01 5.339331e+02 
3.763900e-01 5.316481e+02 
3.775800e-01 5.293808e+02 
3.788200e-01 5.270368e+02 
3.800300e-01 5.247677e+02 
3.812100e-01 5.225779e+02 
3.824200e-01 5.203538e+02 
3.836100e-01 5.181833e+02 
3.848600e-01 5.159211e+02 
3.860400e-01 5.138021e+02 
3.872400e-01 5.116635e+02 
3.884600e-01 5.095142e+02 
3.896500e-01 5.074369e+02 
3.908700e-01 5.053233e+02 
3.920600e-01 5.032773e+02 
3.933100e-01 5.011445e+02 
3.945300e-01 4.990789e+02 
3.957200e-01 4.970878e+02 
3.969300e-01 4.950808e+02 
3.981700e-01 4.930395e+02 
3.993500e-01 4.911115e+02 
4.094840e-01 4.751131e+02 
4.272360e-01 4.494857e+02 
4.454600e-01 4.257958e+02 
4.630560e-01 4.050647e+02 
4.804610e-01 3.863452e+02 
4.980690e-01 3.689858e+02 
5.159230e-01 3.528177e+02 
5.317440e-01 3.395688e+02 
5.489640e-01 3.261974e+02 
5.671990e-01 3.131281e+02 
5.838690e-01 3.020576e+02 
6.018840e-01 2.909515e+02 
6.202330e-01 2.804790e+02 
6.379250e-01 2.710957e+02 
6.545410e-01 2.628931e+02 
6.714560e-01 2.550591e+02 
6.892080e-01 2.473741e+02 
7.066010e-01 2.403221e+02 
7.240540e-01 2.336766e+02 
7.420450e-01 2.272415e+02 
7.593780e-01 2.213994e+02 
7.764720e-01 2.159485e+02 
7.942840e-01 2.105760e+02 
8.116170e-01 2.056195e+02 
8.288310e-01 2.009409e+02 
8.462240e-01 1.964346e+02 
8.631980e-01 1.922342e+02 
8.810700e-01 1.880099e+02 
8.989410e-01 1.839730e+02 
9.166330e-01 1.801427e+02 
9.345640e-01 1.764204e+02 
9.515980e-01 1.730173e+02 
9.688720e-01 1.696922e+02 
9.865640e-01 1.664058e+02 
1.031870e+00 1.585054e+02 
1.063490e+00 1.533732e+02 
1.097920e+00 1.481067e+02 
1.134370e+00 1.428503e+02 
1.167730e+00 1.383064e+02 
1.203830e+00 1.336337e+02 
1.240470e+00 1.291484e+02 
1.275790e+00 1.250291e+02 
1.309140e+00 1.213361e+02 
1.342970e+00 1.177367e+02 
1.378420e+00 1.141446e+02 
1.413200e+00 1.107688e+02 
1.448110e+00 1.075246e+02 
1.484090e+00 1.043294e+02 
1.518820e+00 1.013726e+02 
1.552880e+00 9.858306e+01 
1.588630e+00 9.577390e+01 
1.623230e+00 9.316465e+01 
1.657720e+00 9.066421e+01 
1.692450e+00 8.824455e+01 
1.726400e+00 8.596002e+01 
1.762200e+00 8.363986e+01 
1.797880e+00 8.141758e+01 
1.833270e+00 7.929328e+01 
1.869070e+00 7.722261e+01 
1.903200e+00 7.532054e+01 
1.937740e+00 7.346196e+01 
1.973190e+00 7.161842e+01 
2.007440e+00 6.989975e+01 
2.042160e+00 6.821639e+01 
2.077900e+00 6.654007e+01 
2.112390e+00 6.497938e+01 
2.146220e+00 6.349362e+01 
2.181600e+00 6.199037e+01 
2.216930e+00 6.053922e+01 
2.250760e+00 5.919358e+01 
2.286500e+00 5.781657e+01 
2.321770e+00 5.650131e+01 
2.355950e+00 5.526593e+01 
2.391280e+00 5.402612e+01 
2.426240e+00 5.283739e+01 
2.460670e+00 5.170274e+01 
2.495640e+00 5.058542e+01 
2.531080e+00 4.948343e+01 
2.566220e+00 4.842394e+01 
2.600830e+00 4.741171e+01 
2.635080e+00 4.643935e+01 
2.670340e+00 4.546536e+01 
2.705970e+00 4.450975e+01 
2.740040e+00 4.362195e+01 
2.774520e+00 4.274629e+01 
2.809730e+00 4.187736e+01 
2.844390e+00 4.104656e+01 
2.879960e+00 4.021694e+01 
2.914860e+00 3.942460e+01 
2.949410e+00 3.866189e+01 
2.984440e+00 3.790850e+01 
3.019760e+00 3.716920e+01 
3.054730e+00 3.645731e+01 
3.089030e+00 3.577575e+01 
3.124060e+00 3.509810e+01 
3.159560e+00 3.442897e+01 
3.194710e+00 3.378349e+01 
3.229010e+00 3.317038e+01 
3.263320e+00 3.257144e+01 
3.297930e+00 3.198265e+01 
3.332830e+00 3.140298e+01 
3.368040e+00 3.083278e+01 
3.403300e+00 3.027626e+01 
3.438450e+00 2.973486e+01 
3.473060e+00 2.921540e+01 
3.508440e+00 2.869631e+01 
3.543110e+00 2.820051e+01 
3.577470e+00 2.772022e+01 
3.613040e+00 2.723514e+01 
3.648120e+00 2.676758e+01 
3.682910e+00 2.631507e+01 
3.718050e+00 2.586858e+01 
3.753320e+00 2.543117e+01 
3.787980e+00 2.501128e+01 
3.822290e+00 2.460508e+01 
3.857020e+00 2.420296e+01 
3.891920e+00 2.380807e+01 
3.926650e+00 2.342369e+01 
3.961970e+00 2.304179e+01 
3.997360e+00 2.266778e+01 
4.031670e+00 2.231337e+01 
4.066330e+00 2.196283e+01 
4.101420e+00 2.161593e+01 
4.136200e+00 2.127937e+01 
4.170810e+00 2.095187e+01 
4.206250e+00 2.062345e+01 
4.241580e+00 2.030324e+01 
4.276300e+00 1.999531e+01 
4.310970e+00 1.969435e+01 
4.346120e+00 1.939577e+01 
4.380600e+00 1.910909e+01 
4.414730e+00 1.883122e+01 
4.450350e+00 1.854715e+01 
4.485320e+00 1.827415e+01 
4.519810e+00 1.801038e+01 
4.555430e+00 1.774356e+01 
4.590870e+00 1.748365e+01 
4.625480e+00 1.723508e+01 
4.659910e+00 1.699273e+01 
4.695230e+00 1.674906e+01 
4.729960e+00 1.651424e+01 
4.764450e+00 1.628563e+01 
4.799530e+00 1.605773e+01 
4.834910e+00 1.583240e+01 
4.869700e+00 1.561530e+01 
4.904370e+00 1.540311e+01 
4.939450e+00 1.519259e+01 
4.973940e+00 1.498971e+01 
5.008430e+00 1.479061e+01 
5.043810e+00 1.459027e+01 
5.078840e+00 1.439568e+01 
5.113500e+00 1.420669e+01 
5.148890e+00 1.401762e+01 
5.184210e+00 1.383242e+01 
5.219060e+00 1.365308e+01 
5.253660e+00 1.347841e+01 
5.288570e+00 1.330531e+01 
5.323420e+00 1.313573e+01 
5.358440e+00 1.296852e+01 
5.393590e+00 1.280365e+01 
5.428310e+00 1.264387e+01 
5.462800e+00 1.248801e+01 
5.497640e+00 1.233327e+01 
5.532670e+00 1.218058e+01 
5.567280e+00 1.203235e+01 
5.602000e+00 1.188616e+01 
5.637270e+00 1.174046e+01 
5.672410e+00 1.159782e+01 
5.707020e+00 1.145968e+01 
5.742040e+00 1.132246e+01 
5.777430e+00 1.118615e+01 
5.812210e+00 1.105439e+01 
5.846820e+00 1.092565e+01 
5.881610e+00 1.079839e+01 
5.916510e+00 1.067277e+01 
5.951600e+00 1.054874e+01 
5.986560e+00 1.042726e+01 
6.021830e+00 1.030664e+01 
6.056490e+00 1.019018e+01 
6.091160e+00 1.007567e+01 
6.125830e+00 9.962922e+00 
6.161090e+00 9.850142e+00 
6.195760e+00 9.741183e+00 
6.230420e+00 9.633913e+00 
6.265690e+00 9.526433e+00 
6.300950e+00 9.420929e+00 
6.335620e+00 9.318756e+00 
6.370880e+00 9.216406e+00 
6.405550e+00 9.117506e+00 
6.440220e+00 9.020160e+00 
6.475480e+00 8.922621e+00 
6.510150e+00 8.828201e+00 
6.544810e+00 8.735353e+00 
6.580080e+00 8.642246e+00 
6.614750e+00 8.552050e+00 
6.649410e+00 8.463487e+00 
6.684080e+00 8.376221e+00 
6.719340e+00 8.288736e+00 
6.754010e+00 8.204005e+00 
6.788680e+00 8.120621e+00 
6.823940e+00 8.037009e+00 
6.859800e+00 7.953184e+00 
6.894470e+00 7.873489e+00 
6.929140e+00 7.794965e+00 
6.963800e+00 7.717536e+00 
6.999070e+00 7.639838e+00 
7.033730e+00 7.564723e+00 
7.068400e+00 7.490597e+00 
7.103660e+00 7.416230e+00 
7.138330e+00 7.344187e+00 
7.173600e+00 7.272075e+00 
7.208260e+00 7.202155e+00 
7.243530e+00 7.131948e+00 
7.277600e+00 7.065153e+00 
7.312860e+00 6.997050e+00 
7.348120e+00 6.929845e+00 
7.382790e+00 6.864626e+00 
7.417460e+00 6.800379e+00 
7.452720e+00 6.735952e+00 
7.487390e+00 6.673416e+00 
7.522650e+00 6.610630e+00 
7.557320e+00 6.549823e+00 
7.591990e+00 6.489832e+00 
7.627250e+00 6.429590e+00 
7.662510e+00 6.370111e+00 
7.697180e+00 6.312517e+00 
7.731850e+00 6.255694e+00 
7.766510e+00 6.199585e+00 
7.801180e+00 6.144148e+00 
7.836440e+00 6.088604e+00 
7.871110e+00 6.034747e+00 
7.906380e+00 5.980625e+00 
7.941040e+00 5.928085e+00 
7.976310e+00 5.875332e+00 
8.011570e+00 5.823311e+00 
8.046240e+00 5.772773e+00 
8.080900e+00 5.722848e+00 
8.115570e+00 5.673534e+00 
8.150830e+00 5.624114e+00 
8.185500e+00 5.576094e+00 
8.220770e+00 5.527816e+00 
8.255430e+00 5.480928e+00 
8.290100e+00 5.434710e+00 
8.324770e+00 5.389040e+00 
8.359430e+00 5.343905e+00 
8.394700e+00 5.298505e+00 
8.429960e+00 5.253729e+00 
8.464630e+00 5.210292e+00 
8.499890e+00 5.166619e+00 
8.534560e+00 5.124161e+00 
8.569200e+00 5.082215e+00 
