# Parameters:
# omega_b = 0.023217, omega_m = 0.140394, n_s = 0.908268, h = 62.795276, w = -1.000000, sigma_8 = 0.776299
# z = 1.000000
#
# k[1/Mpc] # P(k):
8.694000e-04 7.618099e+03 
2.077466e-03 1.549958e+04 
3.285532e-03 2.137757e+04 
4.493598e-03 2.575473e+04 
5.701664e-03 2.889348e+04 
6.909730e-03 3.102697e+04 
8.117797e-03 3.239630e+04 
9.325863e-03 3.312329e+04 
1.053393e-02 3.332375e+04 
1.174199e-02 3.310088e+04 
1.295006e-02 3.252113e+04 
1.415813e-02 3.167228e+04 
1.536619e-02 3.062817e+04 
1.657426e-02 2.944272e+04 
1.778233e-02 2.818065e+04 
1.899039e-02 2.693335e+04 
2.019846e-02 2.569822e+04 
2.140652e-02 2.446929e+04 
2.261459e-02 2.326782e+04 
2.382266e-02 2.212341e+04 
2.503072e-02 2.105185e+04 
2.623879e-02 2.005774e+04 
2.744685e-02 1.914234e+04 
2.865492e-02 1.830706e+04 
2.986299e-02 1.754864e+04 
3.100100e-02 1.690171e+04 
3.220400e-02 1.628411e+04 
3.288100e-02 1.596526e+04 
3.424300e-02 1.537960e+04 
3.555100e-02 1.487734e+04 
3.686000e-02 1.442661e+04 
3.795000e-02 1.408371e+04 
3.929100e-02 1.369645e+04 
4.039800e-02 1.339827e+04 
4.164000e-02 1.308080e+04 
4.294400e-02 1.275851e+04 
4.415000e-02 1.246865e+04 
4.542900e-02 1.216011e+04 
4.660900e-02 1.187701e+04 
4.782300e-02 1.157580e+04 
4.892900e-02 1.129911e+04 
5.031200e-02 1.094547e+04 
5.155900e-02 1.061843e+04 
5.238100e-02 1.040023e+04 
5.378200e-02 1.002542e+04 
5.513400e-02 9.660877e+03 
5.627600e-02 9.353484e+03 
5.735300e-02 9.066868e+03 
5.870100e-02 8.715124e+03 
5.988700e-02 8.415204e+03 
6.113500e-02 8.110776e+03 
6.225900e-02 7.848128e+03 
6.340100e-02 7.594202e+03 
6.480200e-02 7.301240e+03 
6.601100e-02 7.066307e+03 
6.725500e-02 6.842250e+03 
6.829100e-02 6.670623e+03 
6.958600e-02 6.472057e+03 
7.071100e-02 6.315243e+03 
7.192300e-02 6.160986e+03 
7.307400e-02 6.027578e+03 
7.412300e-02 5.916075e+03 
7.550400e-02 5.783507e+03 
7.663100e-02 5.684391e+03 
7.791200e-02 5.582120e+03 
7.912700e-02 5.492646e+03 
8.027600e-02 5.412595e+03 
8.138400e-02 5.338376e+03 
8.272200e-02 5.251266e+03 
8.406100e-02 5.165202e+03 
8.534100e-02 5.081686e+03 
8.653800e-02 5.001196e+03 
8.759800e-02 4.928416e+03 
8.900300e-02 4.828860e+03 
9.009000e-02 4.748673e+03 
9.113300e-02 4.668654e+03 
9.239600e-02 4.570211e+03 
9.358000e-02 4.475525e+03 
9.496100e-02 4.362159e+03 
9.608400e-02 4.269867e+03 
9.727500e-02 4.172645e+03 
9.852600e-02 4.069942e+03 
9.973800e-02 3.972904e+03 
1.009000e-01 3.882165e+03 
1.020900e-01 3.792207e+03 
1.034000e-01 3.697204e+03 
1.046000e-01 3.613899e+03 
1.057200e-01 3.540867e+03 
1.069100e-01 3.466568e+03 
1.082500e-01 3.388845e+03 
1.093900e-01 3.327127e+03 
1.105400e-01 3.267949e+03 
1.116900e-01 3.213901e+03 
1.129600e-01 3.157054e+03 
1.142000e-01 3.106187e+03 
1.153300e-01 3.062204e+03 
1.166400e-01 3.014366e+03 
1.177800e-01 2.975120e+03 
1.190000e-01 2.934759e+03 
1.201200e-01 2.899338e+03 
1.213400e-01 2.861798e+03 
1.227100e-01 2.820787e+03 
1.238900e-01 2.786174e+03 
1.250700e-01 2.751700e+03 
1.263200e-01 2.715584e+03 
1.275500e-01 2.679877e+03 
1.287500e-01 2.645168e+03 
1.299900e-01 2.609053e+03 
1.311300e-01 2.575828e+03 
1.323500e-01 2.539904e+03 
1.335900e-01 2.503460e+03 
1.347100e-01 2.470251e+03 
1.359800e-01 2.432843e+03 
1.372100e-01 2.396275e+03 
1.384300e-01 2.360455e+03 
1.395700e-01 2.326823e+03 
1.407700e-01 2.292108e+03 
1.420300e-01 2.255685e+03 
1.432800e-01 2.220382e+03 
1.444500e-01 2.187753e+03 
1.456300e-01 2.155545e+03 
1.468900e-01 2.122196e+03 
1.480500e-01 2.092240e+03 
1.491700e-01 2.064211e+03 
1.503800e-01 2.034942e+03 
1.516400e-01 2.005310e+03 
1.528200e-01 1.978999e+03 
1.540200e-01 1.952775e+03 
1.551900e-01 1.928647e+03 
1.564300e-01 1.903804e+03 
1.576600e-01 1.880123e+03 
1.588700e-01 1.857845e+03 
1.600900e-01 1.835851e+03 
1.612700e-01 1.815702e+03 
1.625400e-01 1.794425e+03 
1.637600e-01 1.774605e+03 
1.649500e-01 1.755760e+03 
1.662200e-01 1.736018e+03 
1.674000e-01 1.718005e+03 
1.685000e-01 1.701495e+03 
1.697500e-01 1.682903e+03 
1.710300e-01 1.664063e+03 
1.722200e-01 1.646861e+03 
1.734400e-01 1.629020e+03 
1.746400e-01 1.611756e+03 
1.758700e-01 1.594199e+03 
1.770900e-01 1.576745e+03 
1.782700e-01 1.560151e+03 
1.794600e-01 1.543443e+03 
1.807000e-01 1.526159e+03 
1.819100e-01 1.509583e+03 
1.830100e-01 1.494549e+03 
1.842200e-01 1.478241e+03 
1.855000e-01 1.461282e+03 
1.867000e-01 1.445578e+03 
1.879200e-01 1.429875e+03 
1.890900e-01 1.415076e+03 
1.902800e-01 1.400344e+03 
1.915200e-01 1.385242e+03 
1.926900e-01 1.371272e+03 
1.939000e-01 1.357219e+03 
1.951700e-01 1.342709e+03 
1.963100e-01 1.329949e+03 
1.975100e-01 1.316886e+03 
1.987800e-01 1.303280e+03 
2.000100e-01 1.290387e+03 
2.012500e-01 1.277770e+03 
2.023400e-01 1.266840e+03 
2.036100e-01 1.254330e+03 
2.048900e-01 1.242064e+03 
2.060400e-01 1.231209e+03 
2.072200e-01 1.220236e+03 
2.084200e-01 1.209350e+03 
2.096900e-01 1.197999e+03 
2.109200e-01 1.187170e+03 
2.121100e-01 1.176863e+03 
2.132700e-01 1.166956e+03 
2.145200e-01 1.156431e+03 
2.157200e-01 1.146452e+03 
2.168800e-01 1.136929e+03 
2.180700e-01 1.127293e+03 
2.193400e-01 1.117119e+03 
2.206000e-01 1.107109e+03 
2.217500e-01 1.098098e+03 
2.229500e-01 1.088820e+03 
2.241400e-01 1.079630e+03 
2.253500e-01 1.070408e+03 
2.264900e-01 1.061835e+03 
2.277100e-01 1.052713e+03 
2.289900e-01 1.043202e+03 
2.301500e-01 1.034699e+03 
2.313600e-01 1.025944e+03 
2.325600e-01 1.017250e+03 
2.337700e-01 1.008599e+03 
2.350000e-01 9.999213e+02 
2.362000e-01 9.915252e+02 
2.374100e-01 9.831202e+02 
2.386500e-01 9.746202e+02 
2.399100e-01 9.660984e+02 
2.410400e-01 9.585016e+02 
2.422500e-01 9.504616e+02 
2.435000e-01 9.422635e+02 
2.447300e-01 9.343026e+02 
2.458700e-01 9.270191e+02 
2.470600e-01 9.195084e+02 
2.483300e-01 9.115948e+02 
2.495600e-01 9.040472e+02 
2.507600e-01 8.968001e+02 
2.519600e-01 8.896417e+02 
2.532200e-01 8.822190e+02 
2.543700e-01 8.755814e+02 
2.555500e-01 8.688872e+02 
2.568000e-01 8.618818e+02 
2.580100e-01 8.551833e+02 
2.592400e-01 8.485361e+02 
2.604100e-01 8.423227e+02 
2.616100e-01 8.360236e+02 
2.628400e-01 8.296430e+02 
2.640600e-01 8.234700e+02 
2.652200e-01 8.176996e+02 
2.664300e-01 8.117483e+02 
2.676500e-01 8.058169e+02 
2.688400e-01 8.001623e+02 
2.700700e-01 7.944244e+02 
2.712400e-01 7.890274e+02 
2.724800e-01 7.833714e+02 
2.736700e-01 7.780446e+02 
2.748800e-01 7.727293e+02 
2.761000e-01 7.674293e+02 
2.773200e-01 7.621880e+02 
2.785400e-01 7.570229e+02 
2.797000e-01 7.522029e+02 
2.808900e-01 7.473100e+02 
2.821400e-01 7.422263e+02 
2.833900e-01 7.372002e+02 
2.845500e-01 7.326145e+02 
2.857800e-01 7.278031e+02 
2.870300e-01 7.229664e+02 
2.882100e-01 7.184488e+02 
2.893900e-01 7.139900e+02 
2.906300e-01 7.093602e+02 
2.918900e-01 7.047062e+02 
2.930500e-01 7.004658e+02 
2.942500e-01 6.961250e+02 
2.954200e-01 6.919406e+02 
2.966500e-01 6.875862e+02 
2.978900e-01 6.832419e+02 
2.990400e-01 6.792533e+02 
3.002700e-01 6.750307e+02 
3.015100e-01 6.708180e+02 
3.026800e-01 6.668827e+02 
3.038500e-01 6.629853e+02 
3.050300e-01 6.590926e+02 
3.062600e-01 6.550759e+02 
3.075000e-01 6.510672e+02 
3.087000e-01 6.472262e+02 
3.099100e-01 6.433909e+02 
3.111200e-01 6.395948e+02 
3.123100e-01 6.359004e+02 
3.135300e-01 6.321493e+02 
3.147300e-01 6.284951e+02 
3.159900e-01 6.246957e+02 
3.171800e-01 6.211462e+02 
3.183700e-01 6.176325e+02 
3.196300e-01 6.139477e+02 
3.208400e-01 6.104433e+02 
3.220300e-01 6.070290e+02 
3.232000e-01 6.037080e+02 
3.244300e-01 6.002511e+02 
3.256700e-01 5.967992e+02 
3.269200e-01 5.933526e+02 
3.280800e-01 5.901835e+02 
3.292500e-01 5.870248e+02 
3.304800e-01 5.837372e+02 
3.317100e-01 5.804800e+02 
3.328900e-01 5.773835e+02 
3.340700e-01 5.743144e+02 
3.353600e-01 5.710009e+02 
3.365300e-01 5.680271e+02 
3.377100e-01 5.650540e+02 
3.389200e-01 5.620321e+02 
3.401600e-01 5.589632e+02 
3.413700e-01 5.560071e+02 
3.425300e-01 5.532059e+02 
3.437700e-01 5.502375e+02 
3.449800e-01 5.473667e+02 
3.461800e-01 5.445442e+02 
3.473600e-01 5.417976e+02 
3.485800e-01 5.389947e+02 
3.498100e-01 5.361934e+02 
3.510200e-01 5.334616e+02 
3.522000e-01 5.308200e+02 
3.533900e-01 5.281782e+02 
3.546400e-01 5.254454e+02 
3.558400e-01 5.228453e+02 
3.570600e-01 5.202242e+02 
3.582700e-01 5.176466e+02 
3.595000e-01 5.150484e+02 
3.607100e-01 5.125241e+02 
3.618900e-01 5.100904e+02 
3.631200e-01 5.075745e+02 
3.643200e-01 5.051403e+02 
3.655500e-01 5.026659e+02 
3.667300e-01 5.003114e+02 
3.679500e-01 4.979162e+02 
3.691900e-01 4.955018e+02 
3.703600e-01 4.932422e+02 
3.715700e-01 4.909238e+02 
3.727700e-01 4.886430e+02 
3.739900e-01 4.863494e+02 
3.752000e-01 4.841047e+02 
3.763900e-01 4.819146e+02 
3.775800e-01 4.797416e+02 
3.788200e-01 4.774953e+02 
3.800300e-01 4.753208e+02 
3.812100e-01 4.732248e+02 
3.824200e-01 4.710976e+02 
3.836100e-01 4.690217e+02 
3.848600e-01 4.668583e+02 
3.860400e-01 4.648319e+02 
3.872400e-01 4.627868e+02 
3.884600e-01 4.607343e+02 
3.896500e-01 4.587514e+02 
3.908700e-01 4.567341e+02 
3.920600e-01 4.547813e+02 
3.933100e-01 4.527458e+02 
3.945300e-01 4.507745e+02 
3.957200e-01 4.488772e+02 
3.969300e-01 4.469655e+02 
3.981700e-01 4.450213e+02 
3.993500e-01 4.431851e+02 
4.094840e-01 4.279683e+02 
4.272360e-01 4.036791e+02 
4.454600e-01 3.813025e+02 
4.630560e-01 3.617735e+02 
4.804610e-01 3.441776e+02 
4.980690e-01 3.278897e+02 
5.159230e-01 3.127479e+02 
5.317440e-01 3.003613e+02 
5.489640e-01 2.878835e+02 
5.671990e-01 2.757135e+02 
5.838690e-01 2.654256e+02 
6.018840e-01 2.551290e+02 
6.202330e-01 2.454456e+02 
6.379250e-01 2.367850e+02 
6.545410e-01 2.292349e+02 
6.714560e-01 2.220387e+02 
6.892080e-01 2.149925e+02 
7.066010e-01 2.085414e+02 
7.240540e-01 2.024707e+02 
7.420450e-01 1.966057e+02 
7.593780e-01 1.912900e+02 
7.764720e-01 1.863370e+02 
7.942840e-01 1.814613e+02 
8.116170e-01 1.769705e+02 
8.288310e-01 1.727371e+02 
8.462240e-01 1.686645e+02 
8.631980e-01 1.648728e+02 
8.810700e-01 1.610628e+02 
8.989410e-01 1.574258e+02 
9.166330e-01 1.539782e+02 
9.345640e-01 1.506307e+02 
9.515980e-01 1.475739e+02 
9.688720e-01 1.445897e+02 
9.865640e-01 1.416433e+02 
1.031870e+00 1.345712e+02 
1.063490e+00 1.299864e+02 
1.097920e+00 1.252888e+02 
1.134370e+00 1.206100e+02 
1.167730e+00 1.165726e+02 
1.203830e+00 1.124294e+02 
1.240470e+00 1.084598e+02 
1.275790e+00 1.048226e+02 
1.309140e+00 1.015660e+02 
1.342970e+00 9.840014e+01 
1.378420e+00 9.524558e+01 
1.413200e+00 9.228707e+01 
1.448110e+00 8.944964e+01 
1.484090e+00 8.666011e+01 
1.518820e+00 8.408391e+01 
1.552880e+00 8.165797e+01 
1.588630e+00 7.921946e+01 
1.623230e+00 7.695876e+01 
1.657720e+00 7.479566e+01 
1.692450e+00 7.270598e+01 
1.726400e+00 7.073703e+01 
1.762200e+00 6.874094e+01 
1.797880e+00 6.683187e+01 
1.833270e+00 6.501009e+01 
1.869070e+00 6.323768e+01 
1.903200e+00 6.161160e+01 
1.937740e+00 6.002503e+01 
1.973190e+00 5.845417e+01 
2.007440e+00 5.699172e+01 
2.042160e+00 5.556129e+01 
2.077900e+00 5.413917e+01 
2.112390e+00 5.281649e+01 
2.146220e+00 5.155964e+01 
2.181600e+00 5.028940e+01 
2.216930e+00 4.906498e+01 
2.250760e+00 4.793102e+01 
2.286500e+00 4.677208e+01 
2.321770e+00 4.566652e+01 
2.355950e+00 4.462921e+01 
2.391280e+00 4.358977e+01 
2.426240e+00 4.259417e+01 
2.460670e+00 4.164486e+01 
2.495640e+00 4.071113e+01 
2.531080e+00 3.979156e+01 
2.566220e+00 3.890836e+01 
2.600830e+00 3.806533e+01 
2.635080e+00 3.725623e+01 
2.670340e+00 3.644682e+01 
2.705970e+00 3.565354e+01 
2.740040e+00 3.491726e+01 
2.774520e+00 3.419187e+01 
2.809730e+00 3.347273e+01 
2.844390e+00 3.278565e+01 
2.879960e+00 3.210023e+01 
2.914860e+00 3.144636e+01 
2.949410e+00 3.081741e+01 
2.984440e+00 3.019669e+01 
3.019760e+00 2.958817e+01 
3.054730e+00 2.900265e+01 
3.089030e+00 2.844267e+01 
3.124060e+00 2.788632e+01 
3.159560e+00 2.733750e+01 
3.194710e+00 2.680849e+01 
3.229010e+00 2.630627e+01 
3.263320e+00 2.581610e+01 
3.297930e+00 2.533456e+01 
3.332830e+00 2.486104e+01 
3.368040e+00 2.439551e+01 
3.403300e+00 2.394139e+01 
3.438450e+00 2.349998e+01 
3.473060e+00 2.307664e+01 
3.508440e+00 2.265412e+01 
3.543110e+00 2.225071e+01 
3.577470e+00 2.186026e+01 
3.613040e+00 2.146612e+01 
3.648120e+00 2.108654e+01 
3.682910e+00 2.071936e+01 
3.718050e+00 2.035734e+01 
3.753320e+00 2.000286e+01 
3.787980e+00 1.966281e+01 
3.822290e+00 1.933402e+01 
3.857020e+00 1.900874e+01 
3.891920e+00 1.868947e+01 
3.926650e+00 1.837890e+01 
3.961970e+00 1.807047e+01 
3.997360e+00 1.776861e+01 
4.031670e+00 1.748267e+01 
4.066330e+00 1.720014e+01 
4.101420e+00 1.692062e+01 
4.136200e+00 1.664963e+01 
4.170810e+00 1.638599e+01 
4.206250e+00 1.612183e+01 
4.241580e+00 1.586436e+01 
4.276300e+00 1.561692e+01 
4.310970e+00 1.537521e+01 
4.346120e+00 1.513551e+01 
4.380600e+00 1.490549e+01 
4.414730e+00 1.468259e+01 
4.450350e+00 1.445491e+01 
4.485320e+00 1.423614e+01 
4.519810e+00 1.402490e+01 
4.555430e+00 1.381132e+01 
4.590870e+00 1.360335e+01 
4.625480e+00 1.340457e+01 
4.659910e+00 1.321080e+01 
4.695230e+00 1.301612e+01 
4.729960e+00 1.282858e+01 
4.764450e+00 1.264607e+01 
4.799530e+00 1.246422e+01 
4.834910e+00 1.228445e+01 
4.869700e+00 1.211138e+01 
4.904370e+00 1.194228e+01 
4.939450e+00 1.177456e+01 
4.973940e+00 1.161303e+01 
5.008430e+00 1.145453e+01 
5.043810e+00 1.129514e+01 
5.078840e+00 1.114037e+01 
5.113500e+00 1.099010e+01 
5.148890e+00 1.083988e+01 
5.184210e+00 1.069278e+01 
5.219060e+00 1.055037e+01 
5.253660e+00 1.041175e+01 
5.288570e+00 1.027440e+01 
5.323420e+00 1.013992e+01 
5.358440e+00 1.000737e+01 
5.393590e+00 9.876711e+00 
5.428310e+00 9.750162e+00 
5.462800e+00 9.626761e+00 
5.497640e+00 9.504270e+00 
5.532670e+00 9.383472e+00 
5.567280e+00 9.266247e+00 
5.602000e+00 9.150653e+00 
5.637270e+00 9.035530e+00 
5.672410e+00 8.922860e+00 
5.707020e+00 8.813759e+00 
5.742040e+00 8.705464e+00 
5.777430e+00 8.597915e+00 
5.812210e+00 8.493981e+00 
5.846820e+00 8.392498e+00 
5.881610e+00 8.292212e+00 
5.916510e+00 8.193245e+00 
5.951600e+00 8.095587e+00 
5.986560e+00 7.999967e+00 
6.021830e+00 7.905053e+00 
6.056490e+00 7.813452e+00 
6.091160e+00 7.723419e+00 
6.125830e+00 7.634796e+00 
6.161090e+00 7.546182e+00 
6.195760e+00 7.460633e+00 
6.230420e+00 7.376424e+00 
6.265690e+00 7.292068e+00 
6.300950e+00 7.209329e+00 
6.335620e+00 7.129217e+00 
6.370880e+00 7.048979e+00 
6.405550e+00 6.971503e+00 
6.440220e+00 6.895273e+00 
6.475480e+00 6.818906e+00 
6.510150e+00 6.745011e+00 
6.544810e+00 6.672397e+00 
6.580080e+00 6.599593e+00 
6.614750e+00 6.529076e+00 
6.649410e+00 6.459896e+00 
6.684080e+00 6.391748e+00 
6.719340e+00 6.323439e+00 
6.754010e+00 6.257310e+00 
6.788680e+00 6.192288e+00 
6.823940e+00 6.127098e+00 
6.859800e+00 6.061752e+00 
6.894470e+00 5.999674e+00 
6.929140e+00 5.938532e+00 
6.963800e+00 5.878250e+00 
6.999070e+00 5.817772e+00 
7.033730e+00 5.759361e+00 
7.068400e+00 5.701728e+00 
7.103660e+00 5.643915e+00 
7.138330e+00 5.587936e+00 
7.173600e+00 5.531954e+00 
7.208260e+00 5.477681e+00 
7.243530e+00 5.423192e+00 
7.277600e+00 5.371389e+00 
7.312860e+00 5.318605e+00 
7.348120e+00 5.266523e+00 
7.382790e+00 5.215986e+00 
7.417460e+00 5.166243e+00 
7.452720e+00 5.116384e+00 
7.487390e+00 5.067995e+00 
7.522650e+00 5.019417e+00 
7.557320e+00 4.972418e+00 
7.591990e+00 4.926072e+00 
7.627250e+00 4.879536e+00 
7.662510e+00 4.833595e+00 
7.697180e+00 4.789151e+00 
7.731850e+00 4.745321e+00 
7.766510e+00 4.702047e+00 
7.801180e+00 4.659294e+00 
7.836440e+00 4.616498e+00 
7.871110e+00 4.575026e+00 
7.906380e+00 4.533355e+00 
7.941040e+00 4.492905e+00 
7.976310e+00 4.452319e+00 
8.011570e+00 4.412330e+00 
8.046240e+00 4.373485e+00 
8.080900e+00 4.335113e+00 
8.115570e+00 4.297225e+00 
8.150830e+00 4.259299e+00 
8.185500e+00 4.222450e+00 
8.220770e+00 4.185405e+00 
8.255430e+00 4.149430e+00 
8.290100e+00 4.114018e+00 
8.324770e+00 4.079034e+00 
8.359430e+00 4.044463e+00 
8.394700e+00 4.009690e+00 
8.429960e+00 3.975422e+00 
8.464630e+00 3.942206e+00 
8.499890e+00 3.908810e+00 
8.534560e+00 3.876346e+00 
8.569200e+00 3.844275e+00 
