# Parameters:
# omega_b = 0.021594, omega_m = 0.151693, n_s = 0.881496, h = 80.511811, w = -1.000000, sigma_8 = 0.861575
# z = 1.000000
#
# k[1/Mpc] # P(k):
8.694000e-04 6.701522e+03 
2.077466e-03 1.342172e+04 
3.285532e-03 1.844593e+04 
4.493598e-03 2.221118e+04 
5.701664e-03 2.495679e+04 
6.909730e-03 2.687206e+04 
8.117797e-03 2.815097e+04 
9.325863e-03 2.889352e+04 
1.053393e-02 2.919577e+04 
1.174199e-02 2.914345e+04 
1.295006e-02 2.879151e+04 
1.415813e-02 2.821086e+04 
1.536619e-02 2.745808e+04 
1.657426e-02 2.656119e+04 
1.778233e-02 2.548341e+04 
1.899039e-02 2.422151e+04 
2.019846e-02 2.293559e+04 
2.140652e-02 2.174738e+04 
2.261459e-02 2.063682e+04 
2.382266e-02 1.959023e+04 
2.503072e-02 1.861354e+04 
2.623879e-02 1.771040e+04 
2.744685e-02 1.688280e+04 
2.865492e-02 1.613191e+04 
2.986299e-02 1.545496e+04 
3.100100e-02 1.488324e+04 
3.220400e-02 1.434387e+04 
3.288100e-02 1.406919e+04 
3.424300e-02 1.357213e+04 
3.555100e-02 1.315487e+04 
3.686000e-02 1.278951e+04 
3.795000e-02 1.251759e+04 
3.929100e-02 1.221817e+04 
4.039800e-02 1.199145e+04 
4.164000e-02 1.175195e+04 
4.294400e-02 1.150822e+04 
4.415000e-02 1.128635e+04 
4.542900e-02 1.104339e+04 
4.660900e-02 1.081465e+04 
4.782300e-02 1.056067e+04 
4.892900e-02 1.032055e+04 
5.031200e-02 1.000327e+04 
5.155900e-02 9.700204e+03 
5.238100e-02 9.493939e+03 
5.378200e-02 9.133662e+03 
5.513400e-02 8.777482e+03 
5.627600e-02 8.474470e+03 
5.735300e-02 8.191099e+03 
5.870100e-02 7.843624e+03 
5.988700e-02 7.548824e+03 
6.113500e-02 7.251984e+03 
6.225900e-02 6.998844e+03 
6.340100e-02 6.757441e+03 
6.480200e-02 6.483084e+03 
6.601100e-02 6.267854e+03 
6.725500e-02 6.066728e+03 
6.829100e-02 5.916265e+03 
6.958600e-02 5.745191e+03 
7.071100e-02 5.613167e+03 
7.192300e-02 5.485754e+03 
7.307400e-02 5.377519e+03 
7.412300e-02 5.288346e+03 
7.550400e-02 5.183827e+03 
7.663100e-02 5.106259e+03 
7.791200e-02 5.026499e+03 
7.912700e-02 4.956291e+03 
8.027600e-02 4.892812e+03 
8.138400e-02 4.833226e+03 
8.272200e-02 4.762104e+03 
8.406100e-02 4.690501e+03 
8.534100e-02 4.619571e+03 
8.653800e-02 4.550150e+03 
8.759800e-02 4.486800e+03 
8.900300e-02 4.399311e+03 
9.009000e-02 4.328219e+03 
9.113300e-02 4.256733e+03 
9.239600e-02 4.168300e+03 
9.358000e-02 4.082628e+03 
9.496100e-02 3.979035e+03 
9.608400e-02 3.894070e+03 
9.727500e-02 3.804076e+03 
9.852600e-02 3.707681e+03 
9.973800e-02 3.616087e+03 
1.009000e-01 3.530029e+03 
1.020900e-01 3.443850e+03 
1.034000e-01 3.352655e+03 
1.046000e-01 3.272507e+03 
1.057200e-01 3.202300e+03 
1.069100e-01 3.131033e+03 
1.082500e-01 3.057042e+03 
1.093900e-01 2.998928e+03 
1.105400e-01 2.943592e+03 
1.116900e-01 2.894252e+03 
1.129600e-01 2.842839e+03 
1.142000e-01 2.798189e+03 
1.153300e-01 2.760164e+03 
1.166400e-01 2.719735e+03 
1.177800e-01 2.687355e+03 
1.190000e-01 2.654436e+03 
1.201200e-01 2.626114e+03 
1.213400e-01 2.596203e+03 
1.227100e-01 2.563707e+03 
1.238900e-01 2.536207e+03 
1.250700e-01 2.508515e+03 
1.263200e-01 2.479249e+03 
1.275500e-01 2.449751e+03 
1.287500e-01 2.420660e+03 
1.299900e-01 2.389742e+03 
1.311300e-01 2.360829e+03 
1.323500e-01 2.328879e+03 
1.335900e-01 2.295992e+03 
1.347100e-01 2.265416e+03 
1.359800e-01 2.230639e+03 
1.372100e-01 2.195988e+03 
1.384300e-01 2.161848e+03 
1.395700e-01 2.129315e+03 
1.407700e-01 2.095711e+03 
1.420300e-01 2.060065e+03 
1.432800e-01 2.025538e+03 
1.444500e-01 1.993562e+03 
1.456300e-01 1.962020e+03 
1.468900e-01 1.929577e+03 
1.480500e-01 1.900509e+03 
1.491700e-01 1.873545e+03 
1.503800e-01 1.845682e+03 
1.516400e-01 1.817616e+03 
1.528200e-01 1.793280e+03 
1.540200e-01 1.769029e+03 
1.551900e-01 1.747332e+03 
1.564300e-01 1.725146e+03 
1.576600e-01 1.704305e+03 
1.588700e-01 1.685076e+03 
1.600900e-01 1.666113e+03 
1.612700e-01 1.649197e+03 
1.625400e-01 1.631330e+03 
1.637600e-01 1.614782e+03 
1.649500e-01 1.599103e+03 
1.662200e-01 1.582652e+03 
1.674000e-01 1.567517e+03 
1.685000e-01 1.553643e+03 
1.697500e-01 1.537815e+03 
1.710300e-01 1.521572e+03 
1.722200e-01 1.506738e+03 
1.734400e-01 1.490851e+03 
1.746400e-01 1.475455e+03 
1.758700e-01 1.459638e+03 
1.770900e-01 1.443595e+03 
1.782700e-01 1.428343e+03 
1.794600e-01 1.412772e+03 
1.807000e-01 1.396525e+03 
1.819100e-01 1.380946e+03 
1.830100e-01 1.366662e+03 
1.842200e-01 1.351146e+03 
1.855000e-01 1.335013e+03 
1.867000e-01 1.320041e+03 
1.879200e-01 1.305076e+03 
1.890900e-01 1.290988e+03 
1.902800e-01 1.277038e+03 
1.915200e-01 1.262741e+03 
1.926900e-01 1.249555e+03 
1.939000e-01 1.236411e+03 
1.951700e-01 1.222840e+03 
1.963100e-01 1.210954e+03 
1.975100e-01 1.198910e+03 
1.987800e-01 1.186365e+03 
2.000100e-01 1.174525e+03 
2.012500e-01 1.163043e+03 
2.023400e-01 1.153096e+03 
2.036100e-01 1.141734e+03 
2.048900e-01 1.130680e+03 
2.060400e-01 1.120897e+03 
2.072200e-01 1.111013e+03 
2.084200e-01 1.101261e+03 
2.096900e-01 1.091092e+03 
2.109200e-01 1.081389e+03 
2.121100e-01 1.072188e+03 
2.132700e-01 1.063345e+03 
2.145200e-01 1.053950e+03 
2.157200e-01 1.045072e+03 
2.168800e-01 1.036613e+03 
2.180700e-01 1.028052e+03 
2.193400e-01 1.019044e+03 
2.206000e-01 1.010234e+03 
2.217500e-01 1.002302e+03 
2.229500e-01 9.941351e+02 
2.241400e-01 9.861777e+02 
2.253500e-01 9.781950e+02 
2.264900e-01 9.707717e+02 
2.277100e-01 9.629689e+02 
2.289900e-01 9.549366e+02 
2.301500e-01 9.477537e+02 
2.313600e-01 9.403579e+02 
2.325600e-01 9.332412e+02 
2.337700e-01 9.261572e+02 
2.350000e-01 9.190491e+02 
2.362000e-01 9.122752e+02 
2.374100e-01 9.056162e+02 
2.386500e-01 8.988789e+02 
2.399100e-01 8.921213e+02 
2.410400e-01 8.862491e+02 
2.422500e-01 8.800506e+02 
2.435000e-01 8.737270e+02 
2.447300e-01 8.676043e+02 
2.458700e-01 8.620842e+02 
2.470600e-01 8.563890e+02 
2.483300e-01 8.503850e+02 
2.495600e-01 8.446604e+02 
2.507600e-01 8.391673e+02 
2.519600e-01 8.337386e+02 
2.532200e-01 8.281065e+02 
2.543700e-01 8.230218e+02 
2.555500e-01 8.178600e+02 
2.568000e-01 8.124557e+02 
2.580100e-01 8.072857e+02 
2.592400e-01 8.020512e+02 
2.604100e-01 7.971112e+02 
2.616100e-01 7.921010e+02 
2.628400e-01 7.870240e+02 
2.640600e-01 7.819802e+02 
2.652200e-01 7.772115e+02 
2.664300e-01 7.722919e+02 
2.676500e-01 7.673871e+02 
2.688400e-01 7.626002e+02 
2.700700e-01 7.576725e+02 
2.712400e-01 7.530363e+02 
2.724800e-01 7.481766e+02 
2.736700e-01 7.435228e+02 
2.748800e-01 7.387997e+02 
2.761000e-01 7.340895e+02 
2.773200e-01 7.294308e+02 
2.785400e-01 7.248022e+02 
2.797000e-01 7.204050e+02 
2.808900e-01 7.159411e+02 
2.821400e-01 7.113025e+02 
2.833900e-01 7.067127e+02 
2.845500e-01 7.024523e+02 
2.857800e-01 6.979820e+02 
2.870300e-01 6.934878e+02 
2.882100e-01 6.892898e+02 
2.893900e-01 6.851157e+02 
2.906300e-01 6.807647e+02 
2.918900e-01 6.763907e+02 
2.930500e-01 6.724054e+02 
2.942500e-01 6.683195e+02 
2.954200e-01 6.643619e+02 
2.966500e-01 6.602434e+02 
2.978900e-01 6.561343e+02 
2.990400e-01 6.523615e+02 
3.002700e-01 6.483593e+02 
3.015100e-01 6.443625e+02 
3.026800e-01 6.406288e+02 
3.038500e-01 6.369310e+02 
3.050300e-01 6.332375e+02 
3.062600e-01 6.294228e+02 
3.075000e-01 6.256156e+02 
3.087000e-01 6.219676e+02 
3.099100e-01 6.183250e+02 
3.111200e-01 6.147195e+02 
3.123100e-01 6.112110e+02 
3.135300e-01 6.076484e+02 
3.147300e-01 6.041780e+02 
3.159900e-01 6.005694e+02 
3.171800e-01 5.971991e+02 
3.183700e-01 5.938634e+02 
3.196300e-01 5.903653e+02 
3.208400e-01 5.870382e+02 
3.220300e-01 5.837967e+02 
3.232000e-01 5.806455e+02 
3.244300e-01 5.773660e+02 
3.256700e-01 5.740911e+02 
3.269200e-01 5.708212e+02 
3.280800e-01 5.678145e+02 
3.292500e-01 5.648193e+02 
3.304800e-01 5.617023e+02 
3.317100e-01 5.586141e+02 
3.328900e-01 5.556781e+02 
3.340700e-01 5.527681e+02 
3.353600e-01 5.496272e+02 
3.365300e-01 5.468087e+02 
3.377100e-01 5.439908e+02 
3.389200e-01 5.411266e+02 
3.401600e-01 5.382177e+02 
3.413700e-01 5.354163e+02 
3.425300e-01 5.327620e+02 
3.437700e-01 5.299493e+02 
3.449800e-01 5.272289e+02 
3.461800e-01 5.245543e+02 
3.473600e-01 5.219515e+02 
3.485800e-01 5.192951e+02 
3.498100e-01 5.166402e+02 
3.510200e-01 5.140511e+02 
3.522000e-01 5.115475e+02 
3.533900e-01 5.090436e+02 
3.546400e-01 5.064527e+02 
3.558400e-01 5.039875e+02 
3.570600e-01 5.015024e+02 
3.582700e-01 4.990583e+02 
3.595000e-01 4.965948e+02 
3.607100e-01 4.942005e+02 
3.618900e-01 4.918914e+02 
3.631200e-01 4.895043e+02 
3.643200e-01 4.871947e+02 
3.655500e-01 4.848468e+02 
3.667300e-01 4.826127e+02 
3.679500e-01 4.803380e+02 
3.691900e-01 4.780451e+02 
3.703600e-01 4.758991e+02 
3.715700e-01 4.736973e+02 
3.727700e-01 4.715311e+02 
3.739900e-01 4.693520e+02 
3.752000e-01 4.672181e+02 
3.763900e-01 4.651359e+02 
3.775800e-01 4.630701e+02 
3.788200e-01 4.609344e+02 
3.800300e-01 4.588671e+02 
3.812100e-01 4.568729e+02 
3.824200e-01 4.548479e+02 
3.836100e-01 4.528719e+02 
3.848600e-01 4.508125e+02 
3.860400e-01 4.488835e+02 
3.872400e-01 4.469367e+02 
3.884600e-01 4.449812e+02 
3.896500e-01 4.430915e+02 
3.908700e-01 4.411689e+02 
3.920600e-01 4.393078e+02 
3.933100e-01 4.373679e+02 
3.945300e-01 4.354891e+02 
3.957200e-01 4.336789e+02 
3.969300e-01 4.318545e+02 
3.981700e-01 4.299990e+02 
3.993500e-01 4.282464e+02 
4.094840e-01 4.137142e+02 
4.272360e-01 3.904692e+02 
4.454600e-01 3.690227e+02 
4.630560e-01 3.502903e+02 
4.804610e-01 3.334068e+02 
4.980690e-01 3.177772e+02 
5.159230e-01 3.032449e+02 
5.317440e-01 2.913540e+02 
5.489640e-01 2.793704e+02 
5.671990e-01 2.676729e+02 
5.838690e-01 2.577759e+02 
6.018840e-01 2.478609e+02 
6.202330e-01 2.385244e+02 
6.379250e-01 2.301655e+02 
6.545410e-01 2.228688e+02 
6.714560e-01 2.159088e+02 
6.892080e-01 2.090869e+02 
7.066010e-01 2.028372e+02 
7.240540e-01 1.969526e+02 
7.420450e-01 1.912654e+02 
7.593780e-01 1.861102e+02 
7.764720e-01 1.813069e+02 
7.942840e-01 1.765792e+02 
8.116170e-01 1.722267e+02 
8.288310e-01 1.681263e+02 
8.462240e-01 1.641840e+02 
8.631980e-01 1.605170e+02 
8.810700e-01 1.568353e+02 
8.989410e-01 1.533242e+02 
9.166330e-01 1.499994e+02 
9.345640e-01 1.467748e+02 
9.515980e-01 1.438338e+02 
9.688720e-01 1.409660e+02 
9.865640e-01 1.381383e+02 
1.031870e+00 1.313623e+02 
1.063490e+00 1.269804e+02 
1.097920e+00 1.224994e+02 
1.134370e+00 1.180429e+02 
1.167730e+00 1.142039e+02 
1.203830e+00 1.102693e+02 
1.240470e+00 1.065029e+02 
1.275790e+00 1.030555e+02 
1.309140e+00 9.997008e+01 
1.342970e+00 9.697193e+01 
1.378420e+00 9.398520e+01 
1.413200e+00 9.118433e+01 
1.448110e+00 8.849746e+01 
1.484090e+00 8.585552e+01 
1.518820e+00 8.341445e+01 
1.552880e+00 8.111471e+01 
1.588630e+00 7.880137e+01 
1.623230e+00 7.665546e+01 
1.657720e+00 7.460084e+01 
1.692450e+00 7.261407e+01 
1.726400e+00 7.074042e+01 
1.762200e+00 6.883926e+01 
1.797880e+00 6.701890e+01 
1.833270e+00 6.528038e+01 
1.869070e+00 6.358683e+01 
1.903200e+00 6.203132e+01 
1.937740e+00 6.051216e+01 
1.973190e+00 5.900623e+01 
2.007440e+00 5.760255e+01 
2.042160e+00 5.622782e+01 
2.077900e+00 5.485953e+01 
2.112390e+00 5.358549e+01 
2.146220e+00 5.237333e+01 
2.181600e+00 5.114667e+01 
2.216930e+00 4.996270e+01 
2.250760e+00 4.886494e+01 
2.286500e+00 4.774170e+01 
2.321770e+00 4.666887e+01 
2.355950e+00 4.566098e+01 
2.391280e+00 4.464956e+01 
2.426240e+00 4.367959e+01 
2.460670e+00 4.275367e+01 
2.495640e+00 4.184193e+01 
2.531080e+00 4.094269e+01 
2.566220e+00 4.007794e+01 
2.600830e+00 3.925155e+01 
2.635080e+00 3.845751e+01 
2.670340e+00 3.766190e+01 
2.705970e+00 3.688128e+01 
2.740040e+00 3.615599e+01 
2.774520e+00 3.544058e+01 
2.809730e+00 3.473031e+01 
2.844390e+00 3.405098e+01 
2.879960e+00 3.337242e+01 
2.914860e+00 3.272429e+01 
2.949410e+00 3.210024e+01 
2.984440e+00 3.148347e+01 
3.019760e+00 3.087819e+01 
3.054730e+00 3.029528e+01 
3.089030e+00 2.973681e+01 
3.124060e+00 2.918148e+01 
3.159560e+00 2.863309e+01 
3.194710e+00 2.810378e+01 
3.229010e+00 2.760085e+01 
3.263320e+00 2.710921e+01 
3.297930e+00 2.662586e+01 
3.332830e+00 2.614999e+01 
3.368040e+00 2.568164e+01 
3.403300e+00 2.522433e+01 
3.438450e+00 2.477920e+01 
3.473060e+00 2.435200e+01 
3.508440e+00 2.392496e+01 
3.543110e+00 2.351700e+01 
3.577470e+00 2.312153e+01 
3.613040e+00 2.272205e+01 
3.648120e+00 2.233690e+01 
3.682910e+00 2.196400e+01 
3.718050e+00 2.159590e+01 
3.753320e+00 2.123516e+01 
3.787980e+00 2.088872e+01 
3.822290e+00 2.055345e+01 
3.857020e+00 2.022139e+01 
3.891920e+00 1.989521e+01 
3.926650e+00 1.957756e+01 
3.961970e+00 1.926188e+01 
3.997360e+00 1.895255e+01 
4.031670e+00 1.865937e+01 
4.066330e+00 1.836927e+01 
4.101420e+00 1.808214e+01 
4.136200e+00 1.780339e+01 
4.170810e+00 1.753212e+01 
4.206250e+00 1.725995e+01 
4.241580e+00 1.699453e+01 
4.276300e+00 1.673917e+01 
4.310970e+00 1.648951e+01 
4.346120e+00 1.624175e+01 
4.380600e+00 1.600375e+01 
4.414730e+00 1.577304e+01 
4.450350e+00 1.553703e+01 
4.485320e+00 1.531018e+01 
4.519810e+00 1.509091e+01 
4.555430e+00 1.486905e+01 
4.590870e+00 1.465287e+01 
4.625480e+00 1.444603e+01 
4.659910e+00 1.424435e+01 
4.695230e+00 1.404145e+01 
4.729960e+00 1.384589e+01 
4.764450e+00 1.365546e+01 
4.799530e+00 1.346552e+01 
4.834910e+00 1.327772e+01 
4.869700e+00 1.309668e+01 
4.904370e+00 1.291972e+01 
4.939450e+00 1.274410e+01 
4.973940e+00 1.257478e+01 
5.008430e+00 1.240860e+01 
5.043810e+00 1.224132e+01 
5.078840e+00 1.207880e+01 
5.113500e+00 1.192095e+01 
5.148890e+00 1.176294e+01 
5.184210e+00 1.160816e+01 
5.219060e+00 1.145826e+01 
5.253660e+00 1.131218e+01 
5.288570e+00 1.116741e+01 
5.323420e+00 1.102555e+01 
5.358440e+00 1.088563e+01 
5.393590e+00 1.074767e+01 
5.428310e+00 1.061392e+01 
5.462800e+00 1.048341e+01 
5.497640e+00 1.035384e+01 
5.532670e+00 1.022594e+01 
5.567280e+00 1.010175e+01 
5.602000e+00 9.979274e+00 
5.637270e+00 9.857165e+00 
5.672410e+00 9.737609e+00 
5.707020e+00 9.621815e+00 
5.742040e+00 9.506751e+00 
5.777430e+00 9.392437e+00 
5.812210e+00 9.281941e+00 
5.846820e+00 9.173941e+00 
5.881610e+00 9.067170e+00 
5.916510e+00 8.961782e+00 
5.951600e+00 8.857695e+00 
5.986560e+00 8.755728e+00 
6.021830e+00 8.654495e+00 
6.056490e+00 8.556726e+00 
6.091160e+00 8.460572e+00 
6.125830e+00 8.365905e+00 
6.161090e+00 8.271201e+00 
6.195760e+00 8.179689e+00 
6.230420e+00 8.089595e+00 
6.265690e+00 7.999323e+00 
6.300950e+00 7.910683e+00 
6.335620e+00 7.824842e+00 
6.370880e+00 7.738852e+00 
6.405550e+00 7.655749e+00 
6.440220e+00 7.573947e+00 
6.475480e+00 7.491984e+00 
6.510150e+00 7.412637e+00 
6.544810e+00 7.334597e+00 
6.580080e+00 7.256340e+00 
6.614750e+00 7.180531e+00 
6.649410e+00 7.106086e+00 
6.684080e+00 7.032731e+00 
6.719340e+00 6.959191e+00 
6.754010e+00 6.887965e+00 
6.788680e+00 6.817869e+00 
6.823940e+00 6.747582e+00 
6.859800e+00 6.677116e+00 
6.894470e+00 6.610119e+00 
6.929140e+00 6.544105e+00 
6.963800e+00 6.479013e+00 
6.999070e+00 6.413695e+00 
7.033730e+00 6.350543e+00 
7.068400e+00 6.288223e+00 
7.103660e+00 6.225701e+00 
7.138330e+00 6.165135e+00 
7.173600e+00 6.104516e+00 
7.208260e+00 6.045740e+00 
7.243530e+00 5.986723e+00 
7.277600e+00 5.930577e+00 
7.312860e+00 5.873334e+00 
7.348120e+00 5.816845e+00 
7.382790e+00 5.762026e+00 
7.417460e+00 5.708029e+00 
7.452720e+00 5.653882e+00 
7.487390e+00 5.601325e+00 
7.522650e+00 5.548559e+00 
7.557320e+00 5.497462e+00 
7.591990e+00 5.447055e+00 
7.627250e+00 5.396438e+00 
7.662510e+00 5.346462e+00 
7.697180e+00 5.298075e+00 
7.731850e+00 5.250338e+00 
7.766510e+00 5.203202e+00 
7.801180e+00 5.156630e+00 
7.836440e+00 5.109976e+00 
7.871110e+00 5.064745e+00 
7.906380e+00 5.019292e+00 
7.941040e+00 4.975167e+00 
7.976310e+00 4.930870e+00 
8.011570e+00 4.887195e+00 
8.046240e+00 4.844767e+00 
8.080900e+00 4.802852e+00 
8.115570e+00 4.761453e+00 
8.150830e+00 4.719975e+00 
8.185500e+00 4.679673e+00 
8.220770e+00 4.639154e+00 
8.255430e+00 4.599801e+00 
8.290100e+00 4.561024e+00 
8.324770e+00 4.522709e+00 
8.359430e+00 4.484843e+00 
8.394700e+00 4.446754e+00 
8.429960e+00 4.409196e+00 
8.464630e+00 4.372771e+00 
8.499890e+00 4.336146e+00 
8.534560e+00 4.300541e+00 
8.569200e+00 4.265364e+00 
