# Parameters:
# omega_b = 0.022839, omega_m = 0.139843, n_s = 0.931890, h = 64.448819, w = -1.000000, sigma_8 = 0.710472
# z = 1.000000
#
# k[1/Mpc] # P(k):
8.694000e-04 5.632304e+03 
2.077466e-03 1.171070e+04 
3.285532e-03 1.633127e+04 
4.493598e-03 1.981197e+04 
5.701664e-03 2.234504e+04 
6.909730e-03 2.409675e+04 
8.117797e-03 2.524570e+04 
9.325863e-03 2.588377e+04 
1.053393e-02 2.610153e+04 
1.174199e-02 2.598134e+04 
1.295006e-02 2.557550e+04 
1.415813e-02 2.495285e+04 
1.536619e-02 2.417175e+04 
1.657426e-02 2.327529e+04 
1.778233e-02 2.231533e+04 
1.899039e-02 2.135775e+04 
2.019846e-02 2.039737e+04 
2.140652e-02 1.943591e+04 
2.261459e-02 1.849357e+04 
2.382266e-02 1.759434e+04 
2.503072e-02 1.675106e+04 
2.623879e-02 1.596782e+04 
2.744685e-02 1.524601e+04 
2.865492e-02 1.458709e+04 
2.986299e-02 1.398889e+04 
3.100100e-02 1.347904e+04 
3.220400e-02 1.299304e+04 
3.288100e-02 1.274272e+04 
3.424300e-02 1.228422e+04 
3.555100e-02 1.189275e+04 
3.686000e-02 1.154343e+04 
3.795000e-02 1.127906e+04 
3.929100e-02 1.098253e+04 
4.039800e-02 1.075535e+04 
4.164000e-02 1.051422e+04 
4.294400e-02 1.026973e+04 
4.415000e-02 1.004943e+04 
4.542900e-02 9.813565e+03 
4.660900e-02 9.595820e+03 
4.782300e-02 9.361459e+03 
4.892900e-02 9.144332e+03 
5.031200e-02 8.863823e+03 
5.155900e-02 8.601449e+03 
5.238100e-02 8.425030e+03 
5.378200e-02 8.119843e+03 
5.513400e-02 7.820635e+03 
5.627600e-02 7.566970e+03 
5.735300e-02 7.329707e+03 
5.870100e-02 7.037954e+03 
5.988700e-02 6.789098e+03 
6.113500e-02 6.536742e+03 
6.225900e-02 6.319564e+03 
6.340100e-02 6.110343e+03 
6.480200e-02 5.870037e+03 
6.601100e-02 5.678719e+03 
6.725500e-02 5.497549e+03 
6.829100e-02 5.359995e+03 
6.958600e-02 5.201944e+03 
7.071100e-02 5.078280e+03 
7.192300e-02 4.957606e+03 
7.307400e-02 4.854047e+03 
7.412300e-02 4.768038e+03 
7.550400e-02 4.666439e+03 
7.663100e-02 4.590749e+03 
7.791200e-02 4.512772e+03 
7.912700e-02 4.444339e+03 
8.027600e-02 4.382790e+03 
8.138400e-02 4.325358e+03 
8.272200e-02 4.257347e+03 
8.406100e-02 4.189474e+03 
8.534100e-02 4.122894e+03 
8.653800e-02 4.058230e+03 
8.759800e-02 3.999516e+03 
8.900300e-02 3.918889e+03 
9.009000e-02 3.853758e+03 
9.113300e-02 3.788659e+03 
9.239600e-02 3.708490e+03 
9.358000e-02 3.631285e+03 
9.496100e-02 3.538697e+03 
9.608400e-02 3.463215e+03 
9.727500e-02 3.383618e+03 
9.852600e-02 3.299248e+03 
9.973800e-02 3.219408e+03 
1.009000e-01 3.144652e+03 
1.020900e-01 3.070301e+03 
1.034000e-01 2.991719e+03 
1.046000e-01 2.922750e+03 
1.057200e-01 2.862270e+03 
1.069100e-01 2.800775e+03 
1.082500e-01 2.736577e+03 
1.093900e-01 2.685762e+03 
1.105400e-01 2.637139e+03 
1.116900e-01 2.593062e+03 
1.129600e-01 2.546840e+03 
1.142000e-01 2.505869e+03 
1.153300e-01 2.470617e+03 
1.166400e-01 2.432552e+03 
1.177800e-01 2.401571e+03 
1.190000e-01 2.369829e+03 
1.201200e-01 2.342165e+03 
1.213400e-01 2.312881e+03 
1.227100e-01 2.280982e+03 
1.238900e-01 2.254042e+03 
1.250700e-01 2.227134e+03 
1.263200e-01 2.198868e+03 
1.275500e-01 2.170753e+03 
1.287500e-01 2.143285e+03 
1.299900e-01 2.114489e+03 
1.311300e-01 2.087831e+03 
1.323500e-01 2.058766e+03 
1.335900e-01 2.029104e+03 
1.347100e-01 2.001849e+03 
1.359800e-01 1.971016e+03 
1.372100e-01 1.940615e+03 
1.384300e-01 1.910757e+03 
1.395700e-01 1.882527e+03 
1.407700e-01 1.853380e+03 
1.420300e-01 1.822627e+03 
1.432800e-01 1.792830e+03 
1.444500e-01 1.765249e+03 
1.456300e-01 1.738034e+03 
1.468900e-01 1.709934e+03 
1.480500e-01 1.684721e+03 
1.491700e-01 1.661223e+03 
1.503800e-01 1.636802e+03 
1.516400e-01 1.612138e+03 
1.528200e-01 1.590475e+03 
1.540200e-01 1.568888e+03 
1.551900e-01 1.549279e+03 
1.564300e-01 1.529153e+03 
1.576600e-01 1.510094e+03 
1.588700e-01 1.492319e+03 
1.600900e-01 1.474780e+03 
1.612700e-01 1.458899e+03 
1.625400e-01 1.442128e+03 
1.637600e-01 1.426543e+03 
1.649500e-01 1.411747e+03 
1.662200e-01 1.396234e+03 
1.674000e-01 1.382021e+03 
1.685000e-01 1.368994e+03 
1.697500e-01 1.354236e+03 
1.710300e-01 1.339195e+03 
1.722200e-01 1.325461e+03 
1.734400e-01 1.311002e+03 
1.746400e-01 1.297001e+03 
1.758700e-01 1.282695e+03 
1.770900e-01 1.268338e+03 
1.782700e-01 1.254688e+03 
1.794600e-01 1.240853e+03 
1.807000e-01 1.226481e+03 
1.819100e-01 1.212700e+03 
1.830100e-01 1.200135e+03 
1.842200e-01 1.186496e+03 
1.855000e-01 1.172315e+03 
1.867000e-01 1.159166e+03 
1.879200e-01 1.146021e+03 
1.890900e-01 1.133641e+03 
1.902800e-01 1.121348e+03 
1.915200e-01 1.108750e+03 
1.926900e-01 1.097114e+03 
1.939000e-01 1.085459e+03 
1.951700e-01 1.073427e+03 
1.963100e-01 1.062869e+03 
1.975100e-01 1.052117e+03 
1.987800e-01 1.040919e+03 
2.000100e-01 1.030330e+03 
2.012500e-01 1.020015e+03 
2.023400e-01 1.011081e+03 
2.036100e-01 1.000866e+03 
2.048900e-01 9.908915e+02 
2.060400e-01 9.820640e+02 
2.072200e-01 9.731446e+02 
2.084200e-01 9.643201e+02 
2.096900e-01 9.551197e+02 
2.109200e-01 9.463424e+02 
2.121100e-01 9.380001e+02 
2.132700e-01 9.299825e+02 
2.145200e-01 9.214652e+02 
2.157200e-01 9.133934e+02 
2.168800e-01 9.056921e+02 
2.180700e-01 8.978992e+02 
2.193400e-01 8.896772e+02 
2.206000e-01 8.815958e+02 
2.217500e-01 8.743214e+02 
2.229500e-01 8.668319e+02 
2.241400e-01 8.594355e+02 
2.253500e-01 8.520145e+02 
2.264900e-01 8.451150e+02 
2.277100e-01 8.377961e+02 
2.289900e-01 8.301880e+02 
2.301500e-01 8.233862e+02 
2.313600e-01 8.163833e+02 
2.325600e-01 8.094826e+02 
2.337700e-01 8.026159e+02 
2.350000e-01 7.957282e+02 
2.362000e-01 7.890899e+02 
2.374100e-01 7.824748e+02 
2.386500e-01 7.757845e+02 
2.399100e-01 7.690769e+02 
2.410400e-01 7.631379e+02 
2.422500e-01 7.568569e+02 
2.435000e-01 7.504521e+02 
2.447300e-01 7.442381e+02 
2.458700e-01 7.385765e+02 
2.470600e-01 7.327378e+02 
2.483300e-01 7.265853e+02 
2.495600e-01 7.207194e+02 
2.507600e-01 7.150899e+02 
2.519600e-01 7.095287e+02 
2.532200e-01 7.037619e+02 
2.543700e-01 6.985943e+02 
2.555500e-01 6.933753e+02 
2.568000e-01 6.879132e+02 
2.580100e-01 6.826900e+02 
2.592400e-01 6.774814e+02 
2.604100e-01 6.726012e+02 
2.616100e-01 6.676534e+02 
2.628400e-01 6.626413e+02 
2.640600e-01 6.577590e+02 
2.652200e-01 6.531816e+02 
2.664300e-01 6.484606e+02 
2.676500e-01 6.437554e+02 
2.688400e-01 6.392402e+02 
2.700700e-01 6.346400e+02 
2.712400e-01 6.303131e+02 
2.724800e-01 6.257786e+02 
2.736700e-01 6.214875e+02 
2.748800e-01 6.171843e+02 
2.761000e-01 6.128937e+02 
2.773200e-01 6.086508e+02 
2.785400e-01 6.044592e+02 
2.797000e-01 6.005259e+02 
2.808900e-01 5.965334e+02 
2.821400e-01 5.923854e+02 
2.833900e-01 5.882836e+02 
2.845500e-01 5.845195e+02 
2.857800e-01 5.805704e+02 
2.870300e-01 5.766009e+02 
2.882100e-01 5.728935e+02 
2.893900e-01 5.692245e+02 
2.906300e-01 5.654095e+02 
2.918900e-01 5.615749e+02 
2.930500e-01 5.580815e+02 
2.942500e-01 5.545034e+02 
2.954200e-01 5.510477e+02 
2.966500e-01 5.474519e+02 
2.978900e-01 5.438649e+02 
2.990400e-01 5.405717e+02 
3.002700e-01 5.370820e+02 
3.015100e-01 5.335988e+02 
3.026800e-01 5.303454e+02 
3.038500e-01 5.271236e+02 
3.050300e-01 5.239059e+02 
3.062600e-01 5.205833e+02 
3.075000e-01 5.172676e+02 
3.087000e-01 5.140910e+02 
3.099100e-01 5.109194e+02 
3.111200e-01 5.077801e+02 
3.123100e-01 5.047247e+02 
3.135300e-01 5.016227e+02 
3.147300e-01 4.986012e+02 
3.159900e-01 4.954598e+02 
3.171800e-01 4.925251e+02 
3.183700e-01 4.896202e+02 
3.196300e-01 4.865741e+02 
3.208400e-01 4.836774e+02 
3.220300e-01 4.808554e+02 
3.232000e-01 4.781117e+02 
3.244300e-01 4.752563e+02 
3.256700e-01 4.724052e+02 
3.269200e-01 4.695588e+02 
3.280800e-01 4.669419e+02 
3.292500e-01 4.643343e+02 
3.304800e-01 4.616208e+02 
3.317100e-01 4.589327e+02 
3.328900e-01 4.563774e+02 
3.340700e-01 4.538449e+02 
3.353600e-01 4.511122e+02 
3.365300e-01 4.486604e+02 
3.377100e-01 4.462093e+02 
3.389200e-01 4.437182e+02 
3.401600e-01 4.411886e+02 
3.413700e-01 4.387534e+02 
3.425300e-01 4.364467e+02 
3.437700e-01 4.340026e+02 
3.449800e-01 4.316390e+02 
3.461800e-01 4.293155e+02 
3.473600e-01 4.270550e+02 
3.485800e-01 4.247497e+02 
3.498100e-01 4.224459e+02 
3.510200e-01 4.201994e+02 
3.522000e-01 4.180273e+02 
3.533900e-01 4.158552e+02 
3.546400e-01 4.136102e+02 
3.558400e-01 4.114747e+02 
3.570600e-01 4.093220e+02 
3.582700e-01 4.072051e+02 
3.595000e-01 4.050715e+02 
3.607100e-01 4.029997e+02 
3.618900e-01 4.010032e+02 
3.631200e-01 3.989394e+02 
3.643200e-01 3.969427e+02 
3.655500e-01 3.949132e+02 
3.667300e-01 3.929822e+02 
3.679500e-01 3.910195e+02 
3.691900e-01 3.890413e+02 
3.703600e-01 3.871899e+02 
3.715700e-01 3.852906e+02 
3.727700e-01 3.834222e+02 
3.739900e-01 3.815439e+02 
3.752000e-01 3.797068e+02 
3.763900e-01 3.779144e+02 
3.775800e-01 3.761361e+02 
3.788200e-01 3.742979e+02 
3.800300e-01 3.725187e+02 
3.812100e-01 3.708045e+02 
3.824200e-01 3.690653e+02 
3.836100e-01 3.673683e+02 
3.848600e-01 3.655998e+02 
3.860400e-01 3.639434e+02 
3.872400e-01 3.622718e+02 
3.884600e-01 3.605952e+02 
3.896500e-01 3.589761e+02 
3.908700e-01 3.573288e+02 
3.920600e-01 3.557344e+02 
3.933100e-01 3.540725e+02 
3.945300e-01 3.524631e+02 
3.957200e-01 3.509148e+02 
3.969300e-01 3.493549e+02 
3.981700e-01 3.477687e+02 
3.993500e-01 3.462705e+02 
4.094840e-01 3.338652e+02 
4.272360e-01 3.140944e+02 
4.454600e-01 2.959139e+02 
4.630560e-01 2.800756e+02 
4.804610e-01 2.658286e+02 
4.980690e-01 2.526600e+02 
5.159230e-01 2.404340e+02 
5.317440e-01 2.304445e+02 
5.489640e-01 2.203938e+02 
5.671990e-01 2.105995e+02 
5.838690e-01 2.023284e+02 
6.018840e-01 1.940628e+02 
6.202330e-01 1.863007e+02 
6.379250e-01 1.793634e+02 
6.545410e-01 1.733271e+02 
6.714560e-01 1.675841e+02 
6.892080e-01 1.619665e+02 
7.066010e-01 1.568381e+02 
7.240540e-01 1.520173e+02 
7.420450e-01 1.473757e+02 
7.593780e-01 1.431802e+02 
7.764720e-01 1.392805e+02 
7.942840e-01 1.354507e+02 
8.116170e-01 1.319368e+02 
8.288310e-01 1.286361e+02 
8.462240e-01 1.254708e+02 
8.631980e-01 1.225354e+02 
8.810700e-01 1.195944e+02 
8.989410e-01 1.167968e+02 
9.166330e-01 1.141545e+02 
9.345640e-01 1.115977e+02 
9.515980e-01 1.092730e+02 
9.688720e-01 1.070113e+02 
9.865640e-01 1.047872e+02 
1.031870e+00 9.947561e+01 
1.063490e+00 9.605747e+01 
1.097920e+00 9.257444e+01 
1.134370e+00 8.912313e+01 
1.167730e+00 8.616084e+01 
1.203830e+00 8.313435e+01 
1.240470e+00 8.024523e+01 
1.275790e+00 7.760984e+01 
1.309140e+00 7.525448e+01 
1.342970e+00 7.297226e+01 
1.378420e+00 7.070325e+01 
1.413200e+00 6.857961e+01 
1.448110e+00 6.654544e+01 
1.484090e+00 6.454898e+01 
1.518820e+00 6.270662e+01 
1.552880e+00 6.097313e+01 
1.588630e+00 5.923094e+01 
1.623230e+00 5.761737e+01 
1.657720e+00 5.607360e+01 
1.692450e+00 5.458137e+01 
1.726400e+00 5.317592e+01 
1.762200e+00 5.175139e+01 
1.797880e+00 5.038710e+01 
1.833270e+00 4.908584e+01 
1.869070e+00 4.781903e+01 
1.903200e+00 4.665509e+01 
1.937740e+00 4.551904e+01 
1.973190e+00 4.439386e+01 
2.007440e+00 4.334508e+01 
2.042160e+00 4.231768e+01 
2.077900e+00 4.129597e+01 
2.112390e+00 4.034415e+01 
2.146220e+00 3.943954e+01 
2.181600e+00 3.852362e+01 
2.216930e+00 3.763968e+01 
2.250760e+00 3.682028e+01 
2.286500e+00 3.598202e+01 
2.321770e+00 3.518144e+01 
2.355950e+00 3.442895e+01 
2.391280e+00 3.367399e+01 
2.426240e+00 3.294969e+01 
2.460670e+00 3.225823e+01 
2.495640e+00 3.157750e+01 
2.531080e+00 3.090624e+01 
2.566220e+00 3.026046e+01 
2.600830e+00 2.964310e+01 
2.635080e+00 2.904973e+01 
2.670340e+00 2.845488e+01 
2.705970e+00 2.787133e+01 
2.740040e+00 2.732923e+01 
2.774520e+00 2.679465e+01 
2.809730e+00 2.626342e+01 
2.844390e+00 2.575509e+01 
2.879960e+00 2.524716e+01 
2.914860e+00 2.476212e+01 
2.949410e+00 2.429503e+01 
2.984440e+00 2.383295e+01 
3.019760e+00 2.337958e+01 
3.054730e+00 2.294299e+01 
3.089030e+00 2.252426e+01 
3.124060e+00 2.210793e+01 
3.159560e+00 2.169689e+01 
3.194710e+00 2.129982e+01 
3.229010e+00 2.092242e+01 
3.263320e+00 2.055313e+01 
3.297930e+00 2.019011e+01 
3.332830e+00 1.983282e+01 
3.368040e+00 1.948096e+01 
3.403300e+00 1.913724e+01 
3.438450e+00 1.880243e+01 
3.473060e+00 1.848103e+01 
3.508440e+00 1.815970e+01 
3.543110e+00 1.785266e+01 
3.577470e+00 1.755481e+01 
3.613040e+00 1.725391e+01 
3.648120e+00 1.696378e+01 
3.682910e+00 1.668279e+01 
3.718050e+00 1.640526e+01 
3.753320e+00 1.613319e+01 
3.787980e+00 1.587179e+01 
3.822290e+00 1.561874e+01 
3.857020e+00 1.536799e+01 
3.891920e+00 1.512161e+01 
3.926650e+00 1.488157e+01 
3.961970e+00 1.464296e+01 
3.997360e+00 1.440905e+01 
4.031670e+00 1.418731e+01 
4.066330e+00 1.396778e+01 
4.101420e+00 1.375050e+01 
4.136200e+00 1.353944e+01 
4.170810e+00 1.333403e+01 
4.206250e+00 1.312789e+01 
4.241580e+00 1.292686e+01 
4.276300e+00 1.273331e+01 
4.310970e+00 1.254401e+01 
4.346120e+00 1.235611e+01 
4.380600e+00 1.217556e+01 
4.414730e+00 1.200052e+01 
4.450350e+00 1.182134e+01 
4.485320e+00 1.164911e+01 
4.519810e+00 1.148256e+01 
4.555430e+00 1.131400e+01 
4.590870e+00 1.114974e+01 
4.625480e+00 1.099249e+01 
4.659910e+00 1.083917e+01 
4.695230e+00 1.068485e+01 
4.729960e+00 1.053610e+01 
4.764450e+00 1.039121e+01 
4.799530e+00 1.024663e+01 
4.834910e+00 1.010368e+01 
4.869700e+00 9.965821e+00 
4.904370e+00 9.831057e+00 
4.939450e+00 9.697297e+00 
4.973940e+00 9.568273e+00 
5.008430e+00 9.441647e+00 
5.043810e+00 9.314139e+00 
5.078840e+00 9.190232e+00 
5.113500e+00 9.069893e+00 
5.148890e+00 8.949369e+00 
5.184210e+00 8.831307e+00 
5.219060e+00 8.716948e+00 
5.253660e+00 8.605471e+00 
5.288570e+00 8.495000e+00 
5.323420e+00 8.386732e+00 
5.358440e+00 8.279918e+00 
5.393590e+00 8.174602e+00 
5.428310e+00 8.072473e+00 
5.462800e+00 7.972808e+00 
5.497640e+00 7.873860e+00 
5.532670e+00 7.776150e+00 
5.567280e+00 7.681279e+00 
5.602000e+00 7.587712e+00 
5.637270e+00 7.494409e+00 
5.672410e+00 7.403055e+00 
5.707020e+00 7.314578e+00 
5.742040e+00 7.226634e+00 
5.777430e+00 7.139260e+00 
5.812210e+00 7.054808e+00 
5.846820e+00 6.972249e+00 
5.881610e+00 6.890630e+00 
5.916510e+00 6.810071e+00 
5.951600e+00 6.730496e+00 
5.986560e+00 6.652539e+00 
6.021830e+00 6.575147e+00 
6.056490e+00 6.500398e+00 
6.091160e+00 6.426881e+00 
6.125830e+00 6.354504e+00 
6.161090e+00 6.282099e+00 
6.195760e+00 6.212129e+00 
6.230420e+00 6.143247e+00 
6.265690e+00 6.074232e+00 
6.300950e+00 6.006461e+00 
6.335620e+00 5.940834e+00 
6.370880e+00 5.875096e+00 
6.405550e+00 5.811567e+00 
6.440220e+00 5.749034e+00 
6.475480e+00 5.686381e+00 
6.510150e+00 5.625731e+00 
6.544810e+00 5.566083e+00 
6.580080e+00 5.506273e+00 
6.614750e+00 5.448335e+00 
6.649410e+00 5.391449e+00 
6.684080e+00 5.335397e+00 
6.719340e+00 5.279208e+00 
6.754010e+00 5.224792e+00 
6.788680e+00 5.171246e+00 
6.823940e+00 5.117558e+00 
6.859800e+00 5.063736e+00 
6.894470e+00 5.012574e+00 
6.929140e+00 4.962169e+00 
6.963800e+00 4.912469e+00 
6.999070e+00 4.862600e+00 
7.033730e+00 4.814396e+00 
7.068400e+00 4.766830e+00 
7.103660e+00 4.719112e+00 
7.138330e+00 4.672894e+00 
7.173600e+00 4.626650e+00 
7.208260e+00 4.581813e+00 
7.243530e+00 4.536795e+00 
7.277600e+00 4.493977e+00 
7.312860e+00 4.450330e+00 
7.348120e+00 4.407260e+00 
7.382790e+00 4.365465e+00 
7.417460e+00 4.324312e+00 
7.452720e+00 4.283053e+00 
7.487390e+00 4.243008e+00 
7.522650e+00 4.202804e+00 
7.557320e+00 4.163889e+00 
7.591990e+00 4.125506e+00 
7.627250e+00 4.086964e+00 
7.662510e+00 4.048911e+00 
7.697180e+00 4.012084e+00 
7.731850e+00 3.975758e+00 
7.766510e+00 3.939890e+00 
7.801180e+00 3.904452e+00 
7.836440e+00 3.868969e+00 
7.871110e+00 3.834579e+00 
7.906380e+00 3.800021e+00 
7.941040e+00 3.766473e+00 
7.976310e+00 3.732806e+00 
8.011570e+00 3.699625e+00 
8.046240e+00 3.667392e+00 
8.080900e+00 3.635549e+00 
8.115570e+00 3.604105e+00 
8.150830e+00 3.572621e+00 
8.185500e+00 3.542029e+00 
8.220770e+00 3.511273e+00 
8.255430e+00 3.481404e+00 
8.290100e+00 3.451992e+00 
8.324770e+00 3.422933e+00 
8.359430e+00 3.394215e+00 
8.394700e+00 3.365328e+00 
8.429960e+00 3.336858e+00 
8.464630e+00 3.309260e+00 
8.499890e+00 3.281511e+00 
8.534560e+00 3.254535e+00 
8.569200e+00 3.227884e+00 
