# Parameters:
# omega_b = 0.023390, omega_m = 0.147283, n_s = 0.919291, h = 61.141732, w = -1.000000, sigma_8 = 0.866063
# z = 1.000000
#
# k[1/Mpc] # P(k):
8.694000e-04 7.872356e+03 
2.077466e-03 1.622852e+04 
3.285532e-03 2.259984e+04 
4.493598e-03 2.745174e+04 
5.701664e-03 3.102631e+04 
6.909730e-03 3.354458e+04 
8.117797e-03 3.524572e+04 
9.325863e-03 3.625081e+04 
1.053393e-02 3.667806e+04 
1.174199e-02 3.663495e+04 
1.295006e-02 3.618999e+04 
1.415813e-02 3.543536e+04 
1.536619e-02 3.444980e+04 
1.657426e-02 3.329111e+04 
1.778233e-02 3.203136e+04 
1.899039e-02 3.076995e+04 
2.019846e-02 2.950015e+04 
2.140652e-02 2.821631e+04 
2.261459e-02 2.694447e+04 
2.382266e-02 2.571977e+04 
2.503072e-02 2.456209e+04 
2.623879e-02 2.347841e+04 
2.744685e-02 2.247100e+04 
2.865492e-02 2.154420e+04 
2.986299e-02 2.069609e+04 
3.100100e-02 1.996678e+04 
3.220400e-02 1.926542e+04 
3.288100e-02 1.890086e+04 
3.424300e-02 1.822737e+04 
3.555100e-02 1.764579e+04 
3.686000e-02 1.712061e+04 
3.795000e-02 1.671933e+04 
3.929100e-02 1.626452e+04 
4.039800e-02 1.591403e+04 
4.164000e-02 1.554112e+04 
4.294400e-02 1.516425e+04 
4.415000e-02 1.482693e+04 
4.542900e-02 1.447088e+04 
4.660900e-02 1.414626e+04 
4.782300e-02 1.380438e+04 
4.892900e-02 1.349223e+04 
5.031200e-02 1.309591e+04 
5.155900e-02 1.273150e+04 
5.238100e-02 1.248905e+04 
5.378200e-02 1.207331e+04 
5.513400e-02 1.166901e+04 
5.627600e-02 1.132743e+04 
5.735300e-02 1.100789e+04 
5.870100e-02 1.061372e+04 
5.988700e-02 1.027530e+04 
6.113500e-02 9.929080e+03 
6.225900e-02 9.627507e+03 
6.340100e-02 9.333028e+03 
6.480200e-02 8.989741e+03 
6.601100e-02 8.710477e+03 
6.725500e-02 8.440791e+03 
6.829100e-02 8.231307e+03 
6.958600e-02 7.986480e+03 
7.071100e-02 7.790685e+03 
7.192300e-02 7.596155e+03 
7.307400e-02 7.426447e+03 
7.412300e-02 7.283718e+03 
7.550400e-02 7.113170e+03 
7.663100e-02 6.985504e+03 
7.791200e-02 6.854249e+03 
7.912700e-02 6.740593e+03 
8.027600e-02 6.640170e+03 
8.138400e-02 6.548321e+03 
8.272200e-02 6.442422e+03 
8.406100e-02 6.339814e+03 
8.534100e-02 6.242295e+03 
8.653800e-02 6.149614e+03 
8.759800e-02 6.066383e+03 
8.900300e-02 5.953161e+03 
9.009000e-02 5.862197e+03 
9.113300e-02 5.771321e+03 
9.239600e-02 5.659321e+03 
9.358000e-02 5.551234e+03 
9.496100e-02 5.421120e+03 
9.608400e-02 5.314716e+03 
9.727500e-02 5.202220e+03 
9.852600e-02 5.082482e+03 
9.973800e-02 4.968859e+03 
1.009000e-01 4.862202e+03 
1.020900e-01 4.755498e+03 
1.034000e-01 4.642266e+03 
1.046000e-01 4.542420e+03 
1.057200e-01 4.453899e+03 
1.069100e-01 4.363433e+03 
1.082500e-01 4.267651e+03 
1.093900e-01 4.190842e+03 
1.105400e-01 4.116747e+03 
1.116900e-01 4.048069e+03 
1.129600e-01 3.975504e+03 
1.142000e-01 3.909791e+03 
1.153300e-01 3.852775e+03 
1.166400e-01 3.790451e+03 
1.177800e-01 3.739313e+03 
1.190000e-01 3.686719e+03 
1.201200e-01 3.640990e+03 
1.213400e-01 3.592606e+03 
1.227100e-01 3.540811e+03 
1.238900e-01 3.497365e+03 
1.250700e-01 3.454974e+03 
1.263200e-01 3.410915e+03 
1.275500e-01 3.368124e+03 
1.287500e-01 3.326881e+03 
1.299900e-01 3.284510e+03 
1.311300e-01 3.245738e+03 
1.323500e-01 3.204121e+03 
1.335900e-01 3.161962e+03 
1.347100e-01 3.123624e+03 
1.359800e-01 3.080378e+03 
1.372100e-01 3.037996e+03 
1.384300e-01 2.996350e+03 
1.395700e-01 2.956974e+03 
1.407700e-01 2.916261e+03 
1.420300e-01 2.873042e+03 
1.432800e-01 2.831129e+03 
1.444500e-01 2.791817e+03 
1.456300e-01 2.752996e+03 
1.468900e-01 2.712362e+03 
1.480500e-01 2.675723e+03 
1.491700e-01 2.641226e+03 
1.503800e-01 2.604932e+03 
1.516400e-01 2.568104e+03 
1.528200e-01 2.535072e+03 
1.540200e-01 2.502145e+03 
1.551900e-01 2.471623e+03 
1.564300e-01 2.440139e+03 
1.576600e-01 2.410062e+03 
1.588700e-01 2.381689e+03 
1.600900e-01 2.353678e+03 
1.612700e-01 2.328027e+03 
1.625400e-01 2.300938e+03 
1.637600e-01 2.275802e+03 
1.649500e-01 2.251958e+03 
1.662200e-01 2.227019e+03 
1.674000e-01 2.204492e+03 
1.685000e-01 2.183845e+03 
1.697500e-01 2.160748e+03 
1.710300e-01 2.137493e+03 
1.722200e-01 2.116257e+03 
1.734400e-01 2.094514e+03 
1.746400e-01 2.073482e+03 
1.758700e-01 2.052154e+03 
1.770900e-01 2.031082e+03 
1.782700e-01 2.011043e+03 
1.794600e-01 1.990923e+03 
1.807000e-01 1.970146e+03 
1.819100e-01 1.950214e+03 
1.830100e-01 1.932126e+03 
1.842200e-01 1.912499e+03 
1.855000e-01 1.892080e+03 
1.867000e-01 1.873084e+03 
1.879200e-01 1.854085e+03 
1.890900e-01 1.836151e+03 
1.902800e-01 1.818181e+03 
1.915200e-01 1.799756e+03 
1.926900e-01 1.782673e+03 
1.939000e-01 1.765373e+03 
1.951700e-01 1.747505e+03 
1.963100e-01 1.731755e+03 
1.975100e-01 1.715532e+03 
1.987800e-01 1.698630e+03 
2.000100e-01 1.682587e+03 
2.012500e-01 1.666822e+03 
2.023400e-01 1.653163e+03 
2.036100e-01 1.637518e+03 
2.048900e-01 1.622143e+03 
2.060400e-01 1.608533e+03 
2.072200e-01 1.594775e+03 
2.084200e-01 1.581121e+03 
2.096900e-01 1.566883e+03 
2.109200e-01 1.553298e+03 
2.121100e-01 1.540384e+03 
2.132700e-01 1.527972e+03 
2.145200e-01 1.514783e+03 
2.157200e-01 1.502294e+03 
2.168800e-01 1.490382e+03 
2.180700e-01 1.478326e+03 
2.193400e-01 1.465596e+03 
2.206000e-01 1.453067e+03 
2.217500e-01 1.441787e+03 
2.229500e-01 1.430172e+03 
2.241400e-01 1.418644e+03 
2.253500e-01 1.407075e+03 
2.264900e-01 1.396317e+03 
2.277100e-01 1.384840e+03 
2.289900e-01 1.372837e+03 
2.301500e-01 1.362106e+03 
2.313600e-01 1.351053e+03 
2.325600e-01 1.339996e+03 
2.337700e-01 1.328991e+03 
2.350000e-01 1.317952e+03 
2.362000e-01 1.307229e+03 
2.374100e-01 1.296445e+03 
2.386500e-01 1.285539e+03 
2.399100e-01 1.274603e+03 
2.410400e-01 1.264787e+03 
2.422500e-01 1.254389e+03 
2.435000e-01 1.243785e+03 
2.447300e-01 1.233477e+03 
2.458700e-01 1.224001e+03 
2.470600e-01 1.214230e+03 
2.483300e-01 1.203933e+03 
2.495600e-01 1.194103e+03 
2.507600e-01 1.184650e+03 
2.519600e-01 1.175313e+03 
2.532200e-01 1.165630e+03 
2.543700e-01 1.156978e+03 
2.555500e-01 1.148256e+03 
2.568000e-01 1.139128e+03 
2.580100e-01 1.130399e+03 
2.592400e-01 1.121764e+03 
2.604100e-01 1.113702e+03 
2.616100e-01 1.105530e+03 
2.628400e-01 1.097251e+03 
2.640600e-01 1.089280e+03 
2.652200e-01 1.081845e+03 
2.664300e-01 1.074176e+03 
2.676500e-01 1.066532e+03 
2.688400e-01 1.059282e+03 
2.700700e-01 1.051948e+03 
2.712400e-01 1.045049e+03 
2.724800e-01 1.037819e+03 
2.736700e-01 1.031037e+03 
2.748800e-01 1.024296e+03 
2.761000e-01 1.017575e+03 
2.773200e-01 1.010928e+03 
2.785400e-01 1.004391e+03 
2.797000e-01 9.983217e+02 
2.808900e-01 9.921601e+02 
2.821400e-01 9.857573e+02 
2.833900e-01 9.794278e+02 
2.845500e-01 9.736850e+02 
2.857800e-01 9.676588e+02 
2.870300e-01 9.616002e+02 
2.882100e-01 9.559407e+02 
2.893900e-01 9.503699e+02 
2.906300e-01 9.445932e+02 
2.918900e-01 9.387854e+02 
2.930500e-01 9.334933e+02 
2.942500e-01 9.280783e+02 
2.954200e-01 9.228681e+02 
2.966500e-01 9.174455e+02 
2.978900e-01 9.120348e+02 
2.990400e-01 9.070665e+02 
3.002700e-01 9.018116e+02 
3.015100e-01 8.965710e+02 
3.026800e-01 8.916750e+02 
3.038500e-01 8.868255e+02 
3.050300e-01 8.819812e+02 
3.062600e-01 8.769849e+02 
3.075000e-01 8.719980e+02 
3.087000e-01 8.672191e+02 
3.099100e-01 8.624467e+02 
3.111200e-01 8.577222e+02 
3.123100e-01 8.531233e+02 
3.135300e-01 8.484532e+02 
3.147300e-01 8.439034e+02 
3.159900e-01 8.391720e+02 
3.171800e-01 8.347497e+02 
3.183700e-01 8.303706e+02 
3.196300e-01 8.257777e+02 
3.208400e-01 8.214091e+02 
3.220300e-01 8.171523e+02 
3.232000e-01 8.130080e+02 
3.244300e-01 8.086924e+02 
3.256700e-01 8.043825e+02 
3.269200e-01 8.000786e+02 
3.280800e-01 7.961209e+02 
3.292500e-01 7.921726e+02 
3.304800e-01 7.880619e+02 
3.317100e-01 7.839887e+02 
3.328900e-01 7.801160e+02 
3.340700e-01 7.762771e+02 
3.353600e-01 7.721278e+02 
3.365300e-01 7.684018e+02 
3.377100e-01 7.646763e+02 
3.389200e-01 7.608892e+02 
3.401600e-01 7.570428e+02 
3.413700e-01 7.533342e+02 
3.425300e-01 7.498173e+02 
3.437700e-01 7.460901e+02 
3.449800e-01 7.424850e+02 
3.461800e-01 7.389403e+02 
3.473600e-01 7.354891e+02 
3.485800e-01 7.319630e+02 
3.498100e-01 7.284387e+02 
3.510200e-01 7.250014e+02 
3.522000e-01 7.216773e+02 
3.533900e-01 7.183528e+02 
3.546400e-01 7.149083e+02 
3.558400e-01 7.116307e+02 
3.570600e-01 7.083263e+02 
3.582700e-01 7.050763e+02 
3.595000e-01 7.018001e+02 
3.607100e-01 6.986143e+02 
3.618900e-01 6.955406e+02 
3.631200e-01 6.923629e+02 
3.643200e-01 6.892881e+02 
3.655500e-01 6.861621e+02 
3.667300e-01 6.831875e+02 
3.679500e-01 6.801571e+02 
3.691900e-01 6.771023e+02 
3.703600e-01 6.742430e+02 
3.715700e-01 6.713091e+02 
3.727700e-01 6.684227e+02 
3.739900e-01 6.655185e+02 
3.752000e-01 6.626740e+02 
3.763900e-01 6.598985e+02 
3.775800e-01 6.571444e+02 
3.788200e-01 6.542971e+02 
3.800300e-01 6.515408e+02 
3.812100e-01 6.488818e+02 
3.824200e-01 6.461818e+02 
3.836100e-01 6.435467e+02 
3.848600e-01 6.408004e+02 
3.860400e-01 6.382278e+02 
3.872400e-01 6.356314e+02 
3.884600e-01 6.330229e+02 
3.896500e-01 6.305020e+02 
3.908700e-01 6.279371e+02 
3.920600e-01 6.254541e+02 
3.933100e-01 6.228658e+02 
3.945300e-01 6.203589e+02 
3.957200e-01 6.179445e+02 
3.969300e-01 6.155113e+02 
3.981700e-01 6.130365e+02 
3.993500e-01 6.106990e+02 
4.094840e-01 5.913044e+02 
4.272360e-01 5.602695e+02 
4.454600e-01 5.315845e+02 
4.630560e-01 5.064662e+02 
4.804610e-01 4.837610e+02 
4.980690e-01 4.626805e+02 
5.159230e-01 4.430276e+02 
5.317440e-01 4.269113e+02 
5.489640e-01 4.106364e+02 
5.671990e-01 3.947321e+02 
5.838690e-01 3.812621e+02 
6.018840e-01 3.677472e+02 
6.202330e-01 3.550070e+02 
6.379250e-01 3.435997e+02 
6.545410e-01 3.336277e+02 
6.714560e-01 3.240987e+02 
6.892080e-01 3.147553e+02 
7.066010e-01 3.061681e+02 
7.240540e-01 2.980750e+02 
7.420450e-01 2.902199e+02 
7.593780e-01 2.830746e+02 
7.764720e-01 2.763944e+02 
7.942840e-01 2.697974e+02 
8.116170e-01 2.636890e+02 
8.288310e-01 2.579024e+02 
8.462240e-01 2.523107e+02 
8.631980e-01 2.470768e+02 
8.810700e-01 2.417961e+02 
8.989410e-01 2.367296e+02 
9.166330e-01 2.319027e+02 
9.345640e-01 2.271931e+02 
9.515980e-01 2.228665e+02 
9.688720e-01 2.186220e+02 
9.865640e-01 2.144072e+02 
1.031870e+00 2.042156e+02 
1.063490e+00 1.975381e+02 
1.097920e+00 1.906417e+02 
1.134370e+00 1.837193e+02 
1.167730e+00 1.776999e+02 
1.203830e+00 1.714797e+02 
1.240470e+00 1.654864e+02 
1.275790e+00 1.599575e+02 
1.309140e+00 1.549914e+02 
1.342970e+00 1.501367e+02 
1.378420e+00 1.452827e+02 
1.413200e+00 1.407134e+02 
1.448110e+00 1.363188e+02 
1.484090e+00 1.319860e+02 
1.518820e+00 1.279759e+02 
1.552880e+00 1.241918e+02 
1.588630e+00 1.203832e+02 
1.623230e+00 1.168452e+02 
1.657720e+00 1.134568e+02 
1.692450e+00 1.101819e+02 
1.726400e+00 1.070918e+02 
1.762200e+00 1.039559e+02 
1.797880e+00 1.009582e+02 
1.833270e+00 9.809413e+01 
1.869070e+00 9.530708e+01 
1.903200e+00 9.275231e+01 
1.937740e+00 9.025896e+01 
1.973190e+00 8.778936e+01 
2.007440e+00 8.549161e+01 
2.042160e+00 8.324621e+01 
2.077900e+00 8.101324e+01 
2.112390e+00 7.893883e+01 
2.146220e+00 7.696690e+01 
2.181600e+00 7.497666e+01 
2.216930e+00 7.305944e+01 
2.250760e+00 7.128485e+01 
2.286500e+00 6.947221e+01 
2.321770e+00 6.774440e+01 
2.355950e+00 6.612543e+01 
2.391280e+00 6.450436e+01 
2.426240e+00 6.295368e+01 
2.460670e+00 6.147648e+01 
2.495640e+00 6.002438e+01 
2.531080e+00 5.859554e+01 
2.566220e+00 5.722504e+01 
2.600830e+00 5.591854e+01 
2.635080e+00 5.466618e+01 
2.670340e+00 5.341536e+01 
2.705970e+00 5.219041e+01 
2.740040e+00 5.105428e+01 
2.774520e+00 4.993575e+01 
2.809730e+00 4.882908e+01 
2.844390e+00 4.777322e+01 
2.879960e+00 4.672132e+01 
2.914860e+00 4.571870e+01 
2.949410e+00 4.475525e+01 
2.984440e+00 4.380641e+01 
3.019760e+00 4.287684e+01 
3.054730e+00 4.198308e+01 
3.089030e+00 4.113042e+01 
3.124060e+00 4.028385e+01 
3.159560e+00 3.944933e+01 
3.194710e+00 3.864652e+01 
3.229010e+00 3.788521e+01 
3.263320e+00 3.714389e+01 
3.297930e+00 3.641605e+01 
3.332830e+00 3.570076e+01 
3.368040e+00 3.499874e+01 
3.403300e+00 3.431486e+01 
3.438450e+00 3.365143e+01 
3.473060e+00 3.301569e+01 
3.508440e+00 3.238212e+01 
3.543110e+00 3.177770e+01 
3.577470e+00 3.119392e+01 
3.613040e+00 3.060504e+01 
3.648120e+00 3.003859e+01 
3.682910e+00 2.949123e+01 
3.718050e+00 2.895246e+01 
3.753320e+00 2.842551e+01 
3.787980e+00 2.792075e+01 
3.822290e+00 2.743327e+01 
3.857020e+00 2.695175e+01 
3.891920e+00 2.647959e+01 
3.926650e+00 2.602100e+01 
3.961970e+00 2.556598e+01 
3.997360e+00 2.512137e+01 
4.031670e+00 2.470054e+01 
4.066330e+00 2.428541e+01 
4.101420e+00 2.387490e+01 
4.136200e+00 2.347768e+01 
4.170810e+00 2.309140e+01 
4.206250e+00 2.270494e+01 
4.241580e+00 2.232850e+01 
4.276300e+00 2.196733e+01 
4.310970e+00 2.161490e+01 
4.346120e+00 2.126574e+01 
4.380600e+00 2.093116e+01 
4.414730e+00 2.060705e+01 
4.450350e+00 2.027669e+01 
4.485320e+00 1.995937e+01 
4.519810e+00 1.965344e+01 
4.555430e+00 1.934438e+01 
4.590870e+00 1.904369e+01 
4.625480e+00 1.875671e+01 
4.659910e+00 1.847705e+01 
4.695230e+00 1.819659e+01 
4.729960e+00 1.792652e+01 
4.764450e+00 1.766397e+01 
4.799530e+00 1.740272e+01 
4.834910e+00 1.714455e+01 
4.869700e+00 1.689638e+01 
4.904370e+00 1.665403e+01 
4.939450e+00 1.641382e+01 
4.973940e+00 1.618283e+01 
5.008430e+00 1.595623e+01 
5.043810e+00 1.572864e+01 
5.078840e+00 1.550785e+01 
5.113500e+00 1.529352e+01 
5.148890e+00 1.507963e+01 
5.184210e+00 1.487024e+01 
5.219060e+00 1.466767e+01 
5.253660e+00 1.447075e+01 
5.288570e+00 1.427568e+01 
5.323420e+00 1.408485e+01 
5.358440e+00 1.389694e+01 
5.393590e+00 1.371175e+01 
5.428310e+00 1.353260e+01 
5.462800e+00 1.335803e+01 
5.497640e+00 1.318478e+01 
5.532670e+00 1.301414e+01 
5.567280e+00 1.284864e+01 
5.602000e+00 1.268546e+01 
5.637270e+00 1.252315e+01 
5.672410e+00 1.236436e+01 
5.707020e+00 1.221061e+01 
5.742040e+00 1.205821e+01 
5.777430e+00 1.190692e+01 
5.812210e+00 1.176073e+01 
5.846820e+00 1.161815e+01 
5.881610e+00 1.147731e+01 
5.916510e+00 1.133833e+01 
5.951600e+00 1.120132e+01 
5.986560e+00 1.106724e+01 
6.021830e+00 1.093417e+01 
6.056490e+00 1.080583e+01 
6.091160e+00 1.067978e+01 
6.125830e+00 1.055570e+01 
6.161090e+00 1.043170e+01 
6.195760e+00 1.031208e+01 
6.230420e+00 1.019435e+01 
6.265690e+00 1.007643e+01 
6.300950e+00 9.960894e+00 
6.335620e+00 9.849038e+00 
6.370880e+00 9.737015e+00 
6.405550e+00 9.628925e+00 
6.440220e+00 9.522609e+00 
6.475480e+00 9.416108e+00 
6.510150e+00 9.313092e+00 
6.544810e+00 9.211936e+00 
6.580080e+00 9.110522e+00 
6.614750e+00 9.012299e+00 
6.649410e+00 8.916002e+00 
6.684080e+00 8.821158e+00 
6.719340e+00 8.726097e+00 
6.754010e+00 8.634093e+00 
6.788680e+00 8.543678e+00 
6.823940e+00 8.453035e+00 
6.859800e+00 8.362179e+00 
6.894470e+00 8.275908e+00 
6.929140e+00 8.190953e+00 
6.963800e+00 8.107198e+00 
6.999070e+00 8.023177e+00 
7.033730e+00 7.942081e+00 
7.068400e+00 7.862068e+00 
7.103660e+00 7.781807e+00 
7.138330e+00 7.704106e+00 
7.173600e+00 7.626421e+00 
7.208260e+00 7.551109e+00 
7.243530e+00 7.475502e+00 
7.277600e+00 7.403638e+00 
7.312860e+00 7.330431e+00 
7.348120e+00 7.258201e+00 
7.382790e+00 7.188115e+00 
7.417460e+00 7.119142e+00 
7.452720e+00 7.050016e+00 
7.487390e+00 6.982930e+00 
7.522650e+00 6.915585e+00 
7.557320e+00 6.850437e+00 
7.591990e+00 6.786198e+00 
7.627250e+00 6.721700e+00 
7.662510e+00 6.658028e+00 
7.697180e+00 6.596440e+00 
7.731850e+00 6.535707e+00 
7.766510e+00 6.475747e+00 
7.801180e+00 6.416511e+00 
7.836440e+00 6.357213e+00 
7.871110e+00 6.299750e+00 
7.906380e+00 6.242013e+00 
7.941040e+00 6.185969e+00 
7.976310e+00 6.129736e+00 
8.011570e+00 6.074327e+00 
8.046240e+00 6.020505e+00 
8.080900e+00 5.967341e+00 
8.115570e+00 5.914847e+00 
8.150830e+00 5.862295e+00 
8.185500e+00 5.811237e+00 
8.220770e+00 5.759910e+00 
8.255430e+00 5.710067e+00 
8.290100e+00 5.660996e+00 
8.324770e+00 5.612517e+00 
8.359430e+00 5.564613e+00 
8.394700e+00 5.516431e+00 
8.429960e+00 5.468940e+00 
8.464630e+00 5.422898e+00 
8.499890e+00 5.376609e+00 
8.534560e+00 5.331615e+00 
8.569200e+00 5.287165e+00 
