# Parameters:
# omega_b = 0.023311, omega_m = 0.127165, n_s = 0.853150, h = 67.047244, w = -1.000000, sigma_8 = 0.717953
# z = 1.000000
#
# k[1/Mpc] # P(k):
8.694000e-04 1.133517e+04 
2.077466e-03 2.173335e+04 
3.285532e-03 2.891185e+04 
4.493598e-03 3.385106e+04 
5.701664e-03 3.706696e+04 
6.909730e-03 3.895997e+04 
8.117797e-03 3.989763e+04 
9.325863e-03 4.006419e+04 
1.053393e-02 3.962533e+04 
1.174199e-02 3.872213e+04 
1.295006e-02 3.744495e+04 
1.415813e-02 3.590749e+04 
1.536619e-02 3.420224e+04 
1.657426e-02 3.239608e+04 
1.778233e-02 3.056902e+04 
1.899039e-02 2.882730e+04 
2.019846e-02 2.715745e+04 
2.140652e-02 2.554439e+04 
2.261459e-02 2.401184e+04 
2.382266e-02 2.258960e+04 
2.503072e-02 2.128900e+04 
2.623879e-02 2.010928e+04 
2.744685e-02 1.904857e+04 
2.865492e-02 1.810060e+04 
2.986299e-02 1.725650e+04 
3.100100e-02 1.655056e+04 
3.220400e-02 1.588814e+04 
3.288100e-02 1.555113e+04 
3.424300e-02 1.493918e+04 
3.555100e-02 1.442065e+04 
3.686000e-02 1.395911e+04 
3.795000e-02 1.360908e+04 
3.929100e-02 1.321283e+04 
4.039800e-02 1.290540e+04 
4.164000e-02 1.257504e+04 
4.294400e-02 1.223356e+04 
4.415000e-02 1.192247e+04 
4.542900e-02 1.158564e+04 
4.660900e-02 1.127372e+04 
4.782300e-02 1.093822e+04 
4.892900e-02 1.062909e+04 
5.031200e-02 1.023366e+04 
5.155900e-02 9.869213e+03 
5.238100e-02 9.627345e+03 
5.378200e-02 9.214964e+03 
5.513400e-02 8.819001e+03 
5.627600e-02 8.489741e+03 
5.735300e-02 8.186837e+03 
5.870100e-02 7.821043e+03 
5.988700e-02 7.514523e+03 
6.113500e-02 7.208866e+03 
6.225900e-02 6.950157e+03 
6.340100e-02 6.704630e+03 
6.480200e-02 6.426449e+03 
6.601100e-02 6.208603e+03 
6.725500e-02 6.004970e+03 
6.829100e-02 5.852328e+03 
6.958600e-02 5.678412e+03 
7.071100e-02 5.543638e+03 
7.192300e-02 5.412980e+03 
7.307400e-02 5.301358e+03 
7.412300e-02 5.208814e+03 
7.550400e-02 5.099316e+03 
7.663100e-02 5.017328e+03 
7.791200e-02 4.931721e+03 
7.912700e-02 4.855051e+03 
8.027600e-02 4.784666e+03 
8.138400e-02 4.717668e+03 
8.272200e-02 4.636442e+03 
8.406100e-02 4.553473e+03 
8.534100e-02 4.470158e+03 
8.653800e-02 4.388081e+03 
8.759800e-02 4.313088e+03 
8.900300e-02 4.209676e+03 
9.009000e-02 4.126124e+03 
9.113300e-02 4.042980e+03 
9.239600e-02 3.941143e+03 
9.358000e-02 3.843946e+03 
9.496100e-02 3.729065e+03 
9.608400e-02 3.636618e+03 
9.727500e-02 3.540152e+03 
9.852600e-02 3.440438e+03 
9.973800e-02 3.347410e+03 
1.009000e-01 3.261398e+03 
1.020900e-01 3.178415e+03 
1.034000e-01 3.091946e+03 
1.046000e-01 3.017312e+03 
1.057200e-01 2.953801e+03 
1.069100e-01 2.889895e+03 
1.082500e-01 2.824989e+03 
1.093900e-01 2.774565e+03 
1.105400e-01 2.726879e+03 
1.116900e-01 2.684629e+03 
1.129600e-01 2.640561e+03 
1.142000e-01 2.601915e+03 
1.153300e-01 2.568559e+03 
1.166400e-01 2.532385e+03 
1.177800e-01 2.502295e+03 
1.190000e-01 2.471149e+03 
1.201200e-01 2.442680e+03 
1.213400e-01 2.412299e+03 
1.227100e-01 2.376945e+03 
1.238900e-01 2.346636e+03 
1.250700e-01 2.314931e+03 
1.263200e-01 2.281196e+03 
1.275500e-01 2.246697e+03 
1.287500e-01 2.212759e+03 
1.299900e-01 2.176819e+03 
1.311300e-01 2.143664e+03 
1.323500e-01 2.107676e+03 
1.335900e-01 2.071373e+03 
1.347100e-01 2.038537e+03 
1.359800e-01 2.001901e+03 
1.372100e-01 1.966725e+03 
1.384300e-01 1.932646e+03 
1.395700e-01 1.901463e+03 
1.407700e-01 1.869425e+03 
1.420300e-01 1.836991e+03 
1.432800e-01 1.805581e+03 
1.444500e-01 1.777630e+03 
1.456300e-01 1.750054e+03 
1.468900e-01 1.722139e+03 
1.480500e-01 1.697259e+03 
1.491700e-01 1.674203e+03 
1.503800e-01 1.650413e+03 
1.516400e-01 1.626370e+03 
1.528200e-01 1.605210e+03 
1.540200e-01 1.584119e+03 
1.551900e-01 1.564693e+03 
1.564300e-01 1.544686e+03 
1.576600e-01 1.525517e+03 
1.588700e-01 1.507364e+03 
1.600900e-01 1.489425e+03 
1.612700e-01 1.472661e+03 
1.625400e-01 1.454960e+03 
1.637600e-01 1.438235e+03 
1.649500e-01 1.422195e+03 
1.662200e-01 1.405339e+03 
1.674000e-01 1.389652e+03 
1.685000e-01 1.375279e+03 
1.697500e-01 1.358965e+03 
1.710300e-01 1.342309e+03 
1.722200e-01 1.327107e+03 
1.734400e-01 1.311203e+03 
1.746400e-01 1.295816e+03 
1.758700e-01 1.280172e+03 
1.770900e-01 1.264621e+03 
1.782700e-01 1.249844e+03 
1.794600e-01 1.235022e+03 
1.807000e-01 1.219731e+03 
1.819100e-01 1.205075e+03 
1.830100e-01 1.191915e+03 
1.842200e-01 1.177670e+03 
1.855000e-01 1.162872e+03 
1.867000e-01 1.149357e+03 
1.879200e-01 1.135849e+03 
1.890900e-01 1.123154e+03 
1.902800e-01 1.110674e+03 
1.915200e-01 1.097886e+03 
1.926900e-01 1.086096e+03 
1.939000e-01 1.074354e+03 
1.951700e-01 1.062233e+03 
1.963100e-01 1.051605e+03 
1.975100e-01 1.040797e+03 
1.987800e-01 1.029542e+03 
2.000100e-01 1.018891e+03 
2.012500e-01 1.008494e+03 
2.023400e-01 9.994892e+02 
2.036100e-01 9.891796e+02 
2.048900e-01 9.790575e+02 
2.060400e-01 9.701003e+02 
2.072200e-01 9.610443e+02 
2.084200e-01 9.520070e+02 
2.096900e-01 9.425861e+02 
2.109200e-01 9.335997e+02 
2.121100e-01 9.249786e+02 
2.132700e-01 9.166903e+02 
2.145200e-01 9.078872e+02 
2.157200e-01 8.994944e+02 
2.168800e-01 8.914648e+02 
2.180700e-01 8.833413e+02 
2.193400e-01 8.747508e+02 
2.206000e-01 8.662690e+02 
2.217500e-01 8.586361e+02 
2.229500e-01 8.507797e+02 
2.241400e-01 8.429739e+02 
2.253500e-01 8.351432e+02 
2.264900e-01 8.278650e+02 
2.277100e-01 8.201264e+02 
2.289900e-01 8.120625e+02 
2.301500e-01 8.048556e+02 
2.313600e-01 7.974380e+02 
2.325600e-01 7.900959e+02 
2.337700e-01 7.827928e+02 
2.350000e-01 7.754702e+02 
2.362000e-01 7.684025e+02 
2.374100e-01 7.613474e+02 
2.386500e-01 7.542150e+02 
2.399100e-01 7.470671e+02 
2.410400e-01 7.407282e+02 
2.422500e-01 7.340254e+02 
2.435000e-01 7.271934e+02 
2.447300e-01 7.205676e+02 
2.458700e-01 7.145330e+02 
2.470600e-01 7.083120e+02 
2.483300e-01 7.017595e+02 
2.495600e-01 6.955236e+02 
2.507600e-01 6.895537e+02 
2.519600e-01 6.836584e+02 
2.532200e-01 6.775474e+02 
2.543700e-01 6.720942e+02 
2.555500e-01 6.666028e+02 
2.568000e-01 6.608576e+02 
2.580100e-01 6.553655e+02 
2.592400e-01 6.499245e+02 
2.604100e-01 6.448431e+02 
2.616100e-01 6.396927e+02 
2.628400e-01 6.344770e+02 
2.640600e-01 6.294341e+02 
2.652200e-01 6.247219e+02 
2.664300e-01 6.198630e+02 
2.676500e-01 6.150215e+02 
2.688400e-01 6.104049e+02 
2.700700e-01 6.057202e+02 
2.712400e-01 6.013147e+02 
2.724800e-01 5.966987e+02 
2.736700e-01 5.923494e+02 
2.748800e-01 5.880073e+02 
2.761000e-01 5.836787e+02 
2.773200e-01 5.793989e+02 
2.785400e-01 5.751795e+02 
2.797000e-01 5.712372e+02 
2.808900e-01 5.672361e+02 
2.821400e-01 5.630799e+02 
2.833900e-01 5.589713e+02 
2.845500e-01 5.552160e+02 
2.857800e-01 5.512767e+02 
2.870300e-01 5.473175e+02 
2.882100e-01 5.436203e+02 
2.893900e-01 5.399679e+02 
2.906300e-01 5.361739e+02 
2.918900e-01 5.323609e+02 
2.930500e-01 5.288875e+02 
2.942500e-01 5.253319e+02 
2.954200e-01 5.219029e+02 
2.966500e-01 5.183353e+02 
2.978900e-01 5.147768e+02 
2.990400e-01 5.115103e+02 
3.002700e-01 5.080519e+02 
3.015100e-01 5.046020e+02 
3.026800e-01 5.013800e+02 
3.038500e-01 4.981897e+02 
3.050300e-01 4.950039e+02 
3.062600e-01 4.917184e+02 
3.075000e-01 4.884402e+02 
3.087000e-01 4.852998e+02 
3.099100e-01 4.821647e+02 
3.111200e-01 4.790634e+02 
3.123100e-01 4.760476e+02 
3.135300e-01 4.729863e+02 
3.147300e-01 4.700047e+02 
3.159900e-01 4.669052e+02 
3.171800e-01 4.640128e+02 
3.183700e-01 4.611520e+02 
3.196300e-01 4.581526e+02 
3.208400e-01 4.553006e+02 
3.220300e-01 4.525225e+02 
3.232000e-01 4.498241e+02 
3.244300e-01 4.470172e+02 
3.256700e-01 4.442149e+02 
3.269200e-01 4.414175e+02 
3.280800e-01 4.388459e+02 
3.292500e-01 4.362864e+02 
3.304800e-01 4.336239e+02 
3.317100e-01 4.309866e+02 
3.328900e-01 4.284799e+02 
3.340700e-01 4.259959e+02 
3.353600e-01 4.233183e+02 
3.365300e-01 4.209172e+02 
3.377100e-01 4.185170e+02 
3.389200e-01 4.160779e+02 
3.401600e-01 4.136013e+02 
3.413700e-01 4.112185e+02 
3.425300e-01 4.089625e+02 
3.437700e-01 4.065723e+02 
3.449800e-01 4.042610e+02 
3.461800e-01 4.019891e+02 
3.473600e-01 3.997797e+02 
3.485800e-01 3.975278e+02 
3.498100e-01 3.952777e+02 
3.510200e-01 3.930837e+02 
3.522000e-01 3.909626e+02 
3.533900e-01 3.888417e+02 
3.546400e-01 3.866508e+02 
3.558400e-01 3.845669e+02 
3.570600e-01 3.824665e+02 
3.582700e-01 3.804012e+02 
3.595000e-01 3.783198e+02 
3.607100e-01 3.762992e+02 
3.618900e-01 3.743526e+02 
3.631200e-01 3.723405e+02 
3.643200e-01 3.703940e+02 
3.655500e-01 3.684157e+02 
3.667300e-01 3.665336e+02 
3.679500e-01 3.646209e+02 
3.691900e-01 3.626933e+02 
3.703600e-01 3.608894e+02 
3.715700e-01 3.590390e+02 
3.727700e-01 3.572188e+02 
3.739900e-01 3.553891e+02 
3.752000e-01 3.535995e+02 
3.763900e-01 3.518536e+02 
3.775800e-01 3.501216e+02 
3.788200e-01 3.483314e+02 
3.800300e-01 3.465987e+02 
3.812100e-01 3.449295e+02 
3.824200e-01 3.432362e+02 
3.836100e-01 3.415840e+02 
3.848600e-01 3.398623e+02 
3.860400e-01 3.382498e+02 
3.872400e-01 3.366228e+02 
3.884600e-01 3.349908e+02 
3.896500e-01 3.334147e+02 
3.908700e-01 3.318115e+02 
3.920600e-01 3.302597e+02 
3.933100e-01 3.286424e+02 
3.945300e-01 3.270763e+02 
3.957200e-01 3.255697e+02 
3.969300e-01 3.240519e+02 
3.981700e-01 3.225085e+02 
3.993500e-01 3.210510e+02 
4.094840e-01 3.089894e+02 
4.272360e-01 2.897898e+02 
4.454600e-01 2.721787e+02 
4.630560e-01 2.568799e+02 
4.804610e-01 2.431614e+02 
4.980690e-01 2.305219e+02 
5.159230e-01 2.188259e+02 
5.317440e-01 2.092956e+02 
5.489640e-01 1.997307e+02 
5.671990e-01 1.904329e+02 
5.838690e-01 1.825955e+02 
6.018840e-01 1.747761e+02 
6.202330e-01 1.674438e+02 
6.379250e-01 1.608986e+02 
6.545410e-01 1.552084e+02 
6.714560e-01 1.497997e+02 
6.892080e-01 1.445130e+02 
7.066010e-01 1.396890e+02 
7.240540e-01 1.351583e+02 
7.420450e-01 1.307983e+02 
7.593780e-01 1.268599e+02 
7.764720e-01 1.232018e+02 
7.942840e-01 1.196120e+02 
8.116170e-01 1.163208e+02 
8.288310e-01 1.132317e+02 
8.462240e-01 1.102724e+02 
8.631980e-01 1.075301e+02 
8.810700e-01 1.047856e+02 
8.989410e-01 1.021782e+02 
9.166330e-01 9.971830e+01 
9.345640e-01 9.734099e+01 
9.515980e-01 9.518205e+01 
9.688720e-01 9.308471e+01 
9.865640e-01 9.102522e+01 
1.031870e+00 8.612020e+01 
1.063490e+00 8.297456e+01 
1.097920e+00 7.977848e+01 
1.134370e+00 7.662246e+01 
1.167730e+00 7.392175e+01 
1.203830e+00 7.117312e+01 
1.240470e+00 6.855689e+01 
1.275790e+00 6.617944e+01 
1.309140e+00 6.405983e+01 
1.342970e+00 6.201433e+01 
1.378420e+00 5.998494e+01 
1.413200e+00 5.809166e+01 
1.448110e+00 5.628394e+01 
1.484090e+00 5.451368e+01 
1.518820e+00 5.288499e+01 
1.552880e+00 5.135675e+01 
1.588630e+00 4.982480e+01 
1.623230e+00 4.840893e+01 
1.657720e+00 4.705708e+01 
1.692450e+00 4.575366e+01 
1.726400e+00 4.452887e+01 
1.762200e+00 4.328983e+01 
1.797880e+00 4.210594e+01 
1.833270e+00 4.097849e+01 
1.869070e+00 3.988326e+01 
1.903200e+00 3.887877e+01 
1.937740e+00 3.789987e+01 
1.973190e+00 3.693199e+01 
2.007440e+00 3.603133e+01 
2.042160e+00 3.515057e+01 
2.077900e+00 3.427588e+01 
2.112390e+00 3.346219e+01 
2.146220e+00 3.268993e+01 
2.181600e+00 3.190914e+01 
2.216930e+00 3.115674e+01 
2.250760e+00 3.046006e+01 
2.286500e+00 2.974812e+01 
2.321770e+00 2.906897e+01 
2.355950e+00 2.843144e+01 
2.391280e+00 2.779265e+01 
2.426240e+00 2.718042e+01 
2.460670e+00 2.659649e+01 
2.495640e+00 2.602216e+01 
2.531080e+00 2.545640e+01 
2.566220e+00 2.491271e+01 
2.600830e+00 2.439341e+01 
2.635080e+00 2.389466e+01 
2.670340e+00 2.339534e+01 
2.705970e+00 2.290585e+01 
2.740040e+00 2.245138e+01 
2.774520e+00 2.200348e+01 
2.809730e+00 2.155888e+01 
2.844390e+00 2.113376e+01 
2.879960e+00 2.070931e+01 
2.914860e+00 2.030423e+01 
2.949410e+00 1.991432e+01 
2.984440e+00 1.952896e+01 
3.019760e+00 1.915104e+01 
3.054730e+00 1.878724e+01 
3.089030e+00 1.843871e+01 
3.124060e+00 1.809229e+01 
3.159560e+00 1.775042e+01 
3.194710e+00 1.742040e+01 
3.229010e+00 1.710684e+01 
3.263320e+00 1.680027e+01 
3.297930e+00 1.649900e+01 
3.332830e+00 1.620267e+01 
3.368040e+00 1.591093e+01 
3.403300e+00 1.562600e+01 
3.438450e+00 1.534865e+01 
3.473060e+00 1.508248e+01 
3.508440e+00 1.481655e+01 
3.543110e+00 1.456250e+01 
3.577470e+00 1.431619e+01 
3.613040e+00 1.406740e+01 
3.648120e+00 1.382760e+01 
3.682910e+00 1.359543e+01 
3.718050e+00 1.336621e+01 
3.753320e+00 1.314157e+01 
3.787980e+00 1.292581e+01 
3.822290e+00 1.271700e+01 
3.857020e+00 1.251014e+01 
3.891920e+00 1.230695e+01 
3.926650e+00 1.210906e+01 
3.961970e+00 1.191237e+01 
3.997360e+00 1.171958e+01 
4.031670e+00 1.153687e+01 
4.066330e+00 1.135610e+01 
4.101420e+00 1.117720e+01 
4.136200e+00 1.100345e+01 
4.170810e+00 1.083436e+01 
4.206250e+00 1.066470e+01 
4.241580e+00 1.049925e+01 
4.276300e+00 1.034004e+01 
4.310970e+00 1.018437e+01 
4.346120e+00 1.002987e+01 
4.380600e+00 9.881424e+00 
4.414730e+00 9.737538e+00 
4.450350e+00 9.590269e+00 
4.485320e+00 9.448739e+00 
4.519810e+00 9.311909e+00 
4.555430e+00 9.173462e+00 
4.590870e+00 9.038554e+00 
4.625480e+00 8.909434e+00 
4.659910e+00 8.783548e+00 
4.695230e+00 8.656871e+00 
4.729960e+00 8.534779e+00 
4.764450e+00 8.415875e+00 
4.799530e+00 8.297249e+00 
4.834910e+00 8.179967e+00 
4.869700e+00 8.066885e+00 
4.904370e+00 7.956354e+00 
4.939450e+00 7.846661e+00 
4.973940e+00 7.740873e+00 
5.008430e+00 7.637062e+00 
5.043810e+00 7.532534e+00 
5.078840e+00 7.430966e+00 
5.113500e+00 7.332334e+00 
5.148890e+00 7.233588e+00 
5.184210e+00 7.136872e+00 
5.219060e+00 7.043197e+00 
5.253660e+00 6.951887e+00 
5.288570e+00 6.861412e+00 
5.323420e+00 6.772754e+00 
5.358440e+00 6.685301e+00 
5.393590e+00 6.599084e+00 
5.428310e+00 6.515491e+00 
5.462800e+00 6.433928e+00 
5.497640e+00 6.352959e+00 
5.532670e+00 6.273020e+00 
5.567280e+00 6.195412e+00 
5.602000e+00 6.118879e+00 
5.637270e+00 6.042576e+00 
5.672410e+00 5.967876e+00 
5.707020e+00 5.895537e+00 
5.742040e+00 5.823648e+00 
5.777430e+00 5.752233e+00 
5.812210e+00 5.683215e+00 
5.846820e+00 5.615765e+00 
5.881610e+00 5.549092e+00 
5.916510e+00 5.483294e+00 
5.951600e+00 5.418310e+00 
5.986560e+00 5.354655e+00 
6.021830e+00 5.291468e+00 
6.056490e+00 5.230449e+00 
6.091160e+00 5.170442e+00 
6.125830e+00 5.111373e+00 
6.161090e+00 5.052293e+00 
6.195760e+00 4.995224e+00 
6.230420e+00 4.939048e+00 
6.265690e+00 4.882769e+00 
6.300950e+00 4.827515e+00 
6.335620e+00 4.774014e+00 
6.370880e+00 4.720428e+00 
6.405550e+00 4.668662e+00 
6.440220e+00 4.617718e+00 
6.475480e+00 4.566682e+00 
6.510150e+00 4.517285e+00 
6.544810e+00 4.468719e+00 
6.580080e+00 4.420024e+00 
6.614750e+00 4.372858e+00 
6.649410e+00 4.326567e+00 
6.684080e+00 4.280963e+00 
6.719340e+00 4.235250e+00 
6.754010e+00 4.190992e+00 
6.788680e+00 4.147463e+00 
6.823940e+00 4.103822e+00 
6.859800e+00 4.060075e+00 
6.894470e+00 4.018506e+00 
6.929140e+00 3.977559e+00 
6.963800e+00 3.937189e+00 
6.999070e+00 3.896685e+00 
7.033730e+00 3.857551e+00 
7.068400e+00 3.818937e+00 
7.103660e+00 3.780203e+00 
7.138330e+00 3.742698e+00 
7.173600e+00 3.705193e+00 
7.208260e+00 3.668833e+00 
7.243530e+00 3.632328e+00 
7.277600e+00 3.597621e+00 
7.312860e+00 3.562258e+00 
7.348120e+00 3.527365e+00 
7.382790e+00 3.493506e+00 
7.417460e+00 3.460181e+00 
7.452720e+00 3.426778e+00 
7.487390e+00 3.394360e+00 
7.522650e+00 3.361815e+00 
7.557320e+00 3.330336e+00 
7.591990e+00 3.299295e+00 
7.627250e+00 3.268128e+00 
7.662510e+00 3.237360e+00 
7.697180e+00 3.207597e+00 
7.731850e+00 3.178246e+00 
7.766510e+00 3.149268e+00 
7.801180e+00 3.120638e+00 
7.836440e+00 3.091988e+00 
7.871110e+00 3.064230e+00 
7.906380e+00 3.036338e+00 
7.941040e+00 3.009263e+00 
7.976310e+00 2.982105e+00 
8.011570e+00 2.955355e+00 
8.046240e+00 2.929370e+00 
8.080900e+00 2.903701e+00 
8.115570e+00 2.878358e+00 
8.150830e+00 2.853000e+00 
8.185500e+00 2.828362e+00 
8.220770e+00 2.803593e+00 
8.255430e+00 2.779538e+00 
8.290100e+00 2.755877e+00 
8.324770e+00 2.732504e+00 
8.359430e+00 2.709405e+00 
8.394700e+00 2.686172e+00 
8.429960e+00 2.663285e+00 
8.464630e+00 2.641109e+00 
8.499890e+00 2.618813e+00 
8.534560e+00 2.597139e+00 
8.569200e+00 2.575726e+00 
