# Parameters:
# omega_b = 0.021516, omega_m = 0.136535, n_s = 0.889370, h = 83.110236, w = -1.000000, sigma_8 = 0.779291
# z = 1.000000
#
# k[1/Mpc] # P(k):
8.694000e-04 7.388379e+03 
2.077466e-03 1.468489e+04 
3.285532e-03 2.002269e+04 
4.493598e-03 2.390137e+04 
5.701664e-03 2.661984e+04 
6.909730e-03 2.841101e+04 
8.117797e-03 2.950486e+04 
9.325863e-03 3.001982e+04 
1.053393e-02 3.006768e+04 
1.174199e-02 2.974696e+04 
1.295006e-02 2.912089e+04 
1.415813e-02 2.827014e+04 
1.536619e-02 2.725921e+04 
1.657426e-02 2.612336e+04 
1.778233e-02 2.484259e+04 
1.899039e-02 2.342971e+04 
2.019846e-02 2.202472e+04 
2.140652e-02 2.073141e+04 
2.261459e-02 1.953473e+04 
2.382266e-02 1.842481e+04 
2.503072e-02 1.740576e+04 
2.623879e-02 1.647849e+04 
2.744685e-02 1.564364e+04 
2.865492e-02 1.489790e+04 
2.986299e-02 1.423560e+04 
3.100100e-02 1.368497e+04 
3.220400e-02 1.317272e+04 
3.288100e-02 1.291506e+04 
3.424300e-02 1.245341e+04 
3.555100e-02 1.206993e+04 
3.686000e-02 1.173662e+04 
3.795000e-02 1.148916e+04 
3.929100e-02 1.121572e+04 
4.039800e-02 1.100662e+04 
4.164000e-02 1.078298e+04 
4.294400e-02 1.054993e+04 
4.415000e-02 1.033422e+04 
4.542900e-02 1.009294e+04 
4.660900e-02 9.863194e+03 
4.782300e-02 9.605075e+03 
4.892900e-02 9.360222e+03 
5.031200e-02 9.036399e+03 
5.155900e-02 8.728030e+03 
5.238100e-02 8.519110e+03 
5.378200e-02 8.156411e+03 
5.513400e-02 7.801436e+03 
5.627600e-02 7.502612e+03 
5.735300e-02 7.225898e+03 
5.870100e-02 6.890482e+03 
5.988700e-02 6.609391e+03 
6.113500e-02 6.329868e+03 
6.225900e-02 6.094713e+03 
6.340100e-02 5.873438e+03 
6.480200e-02 5.625292e+03 
6.601100e-02 5.434156e+03 
6.725500e-02 5.258439e+03 
6.829100e-02 5.129454e+03 
6.958600e-02 4.984876e+03 
7.071100e-02 4.875413e+03 
7.192300e-02 4.771477e+03 
7.307400e-02 4.684522e+03 
7.412300e-02 4.613717e+03 
7.550400e-02 4.531552e+03 
7.663100e-02 4.470733e+03 
7.791200e-02 4.407720e+03 
7.912700e-02 4.351022e+03 
8.027600e-02 4.298399e+03 
8.138400e-02 4.247627e+03 
8.272200e-02 4.184916e+03 
8.406100e-02 4.119507e+03 
8.534100e-02 4.052311e+03 
8.653800e-02 3.984934e+03 
8.759800e-02 3.922697e+03 
8.900300e-02 3.835869e+03 
9.009000e-02 3.764925e+03 
9.113300e-02 3.693628e+03 
9.239600e-02 3.605666e+03 
9.358000e-02 3.520928e+03 
9.496100e-02 3.419558e+03 
9.608400e-02 3.337237e+03 
9.727500e-02 3.250744e+03 
9.852600e-02 3.159873e+03 
9.973800e-02 3.074471e+03 
1.009000e-01 2.995005e+03 
1.020900e-01 2.917273e+03 
1.034000e-01 2.835935e+03 
1.046000e-01 2.765382e+03 
1.057200e-01 2.705085e+03 
1.069100e-01 2.644424e+03 
1.082500e-01 2.582969e+03 
1.093900e-01 2.535582e+03 
1.105400e-01 2.490986e+03 
1.116900e-01 2.452301e+03 
1.129600e-01 2.412313e+03 
1.142000e-01 2.378314e+03 
1.153300e-01 2.349470e+03 
1.166400e-01 2.318992e+03 
1.177800e-01 2.294362e+03 
1.190000e-01 2.269218e+03 
1.201200e-01 2.246765e+03 
1.213400e-01 2.222902e+03 
1.227100e-01 2.195302e+03 
1.238900e-01 2.171568e+03 
1.250700e-01 2.146463e+03 
1.263200e-01 2.119515e+03 
1.275500e-01 2.091450e+03 
1.287500e-01 2.063462e+03 
1.299900e-01 2.033245e+03 
1.311300e-01 2.004936e+03 
1.323500e-01 1.973580e+03 
1.335900e-01 1.941489e+03 
1.347100e-01 1.911878e+03 
1.359800e-01 1.878489e+03 
1.372100e-01 1.845751e+03 
1.384300e-01 1.813795e+03 
1.395700e-01 1.783996e+03 
1.407700e-01 1.753330e+03 
1.420300e-01 1.721724e+03 
1.432800e-01 1.691129e+03 
1.444500e-01 1.663635e+03 
1.456300e-01 1.636522e+03 
1.468900e-01 1.609134e+03 
1.480500e-01 1.584747e+03 
1.491700e-01 1.562307e+03 
1.503800e-01 1.539358e+03 
1.516400e-01 1.516279e+03 
1.528200e-01 1.496451e+03 
1.540200e-01 1.476689e+03 
1.551900e-01 1.459037e+03 
1.564300e-01 1.440994e+03 
1.576600e-01 1.423990e+03 
1.588700e-01 1.408234e+03 
1.600900e-01 1.392682e+03 
1.612700e-01 1.378580e+03 
1.625400e-01 1.363684e+03 
1.637600e-01 1.349701e+03 
1.649500e-01 1.336340e+03 
1.662200e-01 1.322276e+03 
1.674000e-01 1.309080e+03 
1.685000e-01 1.296984e+03 
1.697500e-01 1.283069e+03 
1.710300e-01 1.268678e+03 
1.722200e-01 1.255538e+03 
1.734400e-01 1.241338e+03 
1.746400e-01 1.227577e+03 
1.758700e-01 1.213439e+03 
1.770900e-01 1.199090e+03 
1.782700e-01 1.185455e+03 
1.794600e-01 1.171574e+03 
1.807000e-01 1.157121e+03 
1.819100e-01 1.143267e+03 
1.830100e-01 1.130668e+03 
1.842200e-01 1.117003e+03 
1.855000e-01 1.102807e+03 
1.867000e-01 1.089780e+03 
1.879200e-01 1.076763e+03 
1.890900e-01 1.064537e+03 
1.902800e-01 1.052559e+03 
1.915200e-01 1.040285e+03 
1.926900e-01 1.028997e+03 
1.939000e-01 1.017844e+03 
1.951700e-01 1.006331e+03 
1.963100e-01 9.962719e+02 
1.975100e-01 9.861431e+02 
1.987800e-01 9.755944e+02 
2.000100e-01 9.656499e+02 
2.012500e-01 9.560327e+02 
2.023400e-01 9.477025e+02 
2.036100e-01 9.381843e+02 
2.048900e-01 9.289154e+02 
2.060400e-01 9.207120e+02 
2.072200e-01 9.124211e+02 
2.084200e-01 9.041957e+02 
2.096900e-01 8.956198e+02 
2.109200e-01 8.874381e+02 
2.121100e-01 8.796141e+02 
2.132700e-01 8.720922e+02 
2.145200e-01 8.641016e+02 
2.157200e-01 8.565020e+02 
2.168800e-01 8.492389e+02 
2.180700e-01 8.418895e+02 
2.193400e-01 8.341345e+02 
2.206000e-01 8.265102e+02 
2.217500e-01 8.196473e+02 
2.229500e-01 8.125818e+02 
2.241400e-01 8.056491e+02 
2.253500e-01 7.986945e+02 
2.264900e-01 7.922286e+02 
2.277100e-01 7.854183e+02 
2.289900e-01 7.783923e+02 
2.301500e-01 7.721106e+02 
2.313600e-01 7.656439e+02 
2.325600e-01 7.594043e+02 
2.337700e-01 7.531946e+02 
2.350000e-01 7.469650e+02 
2.362000e-01 7.410265e+02 
2.374100e-01 7.351861e+02 
2.386500e-01 7.292782e+02 
2.399100e-01 7.233536e+02 
2.410400e-01 7.182108e+02 
2.422500e-01 7.127836e+02 
2.435000e-01 7.072479e+02 
2.447300e-01 7.018914e+02 
2.458700e-01 6.970734e+02 
2.470600e-01 6.921031e+02 
2.483300e-01 6.868641e+02 
2.495600e-01 6.818787e+02 
2.507600e-01 6.771080e+02 
2.519600e-01 6.723937e+02 
2.532200e-01 6.675035e+02 
2.543700e-01 6.631035e+02 
2.555500e-01 6.586472e+02 
2.568000e-01 6.539819e+02 
2.580100e-01 6.495194e+02 
2.592400e-01 6.450203e+02 
2.604100e-01 6.407827e+02 
2.616100e-01 6.364853e+02 
2.628400e-01 6.321312e+02 
2.640600e-01 6.278229e+02 
2.652200e-01 6.237566e+02 
2.664300e-01 6.195621e+02 
2.676500e-01 6.153808e+02 
2.688400e-01 6.113110e+02 
2.700700e-01 6.071286e+02 
2.712400e-01 6.031941e+02 
2.724800e-01 5.990704e+02 
2.736700e-01 5.951277e+02 
2.748800e-01 5.911327e+02 
2.761000e-01 5.871492e+02 
2.773200e-01 5.832096e+02 
2.785400e-01 5.792978e+02 
2.797000e-01 5.755859e+02 
2.808900e-01 5.718180e+02 
2.821400e-01 5.679032e+02 
2.833900e-01 5.640301e+02 
2.845500e-01 5.604372e+02 
2.857800e-01 5.566676e+02 
2.870300e-01 5.528785e+02 
2.882100e-01 5.493395e+02 
2.893900e-01 5.458208e+02 
2.906300e-01 5.421535e+02 
2.918900e-01 5.384673e+02 
2.930500e-01 5.351091e+02 
2.942500e-01 5.316666e+02 
2.954200e-01 5.283325e+02 
2.966500e-01 5.248633e+02 
2.978900e-01 5.214026e+02 
2.990400e-01 5.182255e+02 
3.002700e-01 5.148556e+02 
3.015100e-01 5.114907e+02 
3.026800e-01 5.083477e+02 
3.038500e-01 5.052353e+02 
3.050300e-01 5.021269e+02 
3.062600e-01 4.989180e+02 
3.075000e-01 4.957159e+02 
3.087000e-01 4.926482e+02 
3.099100e-01 4.895853e+02 
3.111200e-01 4.865549e+02 
3.123100e-01 4.836076e+02 
3.135300e-01 4.806154e+02 
3.147300e-01 4.777009e+02 
3.159900e-01 4.746708e+02 
3.171800e-01 4.718429e+02 
3.183700e-01 4.690456e+02 
3.196300e-01 4.661125e+02 
3.208400e-01 4.633231e+02 
3.220300e-01 4.606058e+02 
3.232000e-01 4.579670e+02 
3.244300e-01 4.552220e+02 
3.256700e-01 4.524812e+02 
3.269200e-01 4.497449e+02 
3.280800e-01 4.472292e+02 
3.292500e-01 4.447257e+02 
3.304800e-01 4.421213e+02 
3.317100e-01 4.395414e+02 
3.328900e-01 4.370890e+02 
3.340700e-01 4.346584e+02 
3.353600e-01 4.320380e+02 
3.365300e-01 4.296879e+02 
3.377100e-01 4.273385e+02 
3.389200e-01 4.249507e+02 
3.401600e-01 4.225260e+02 
3.413700e-01 4.201929e+02 
3.425300e-01 4.179837e+02 
3.437700e-01 4.156429e+02 
3.449800e-01 4.133791e+02 
3.461800e-01 4.111537e+02 
3.473600e-01 4.089890e+02 
3.485800e-01 4.067818e+02 
3.498100e-01 4.045761e+02 
3.510200e-01 4.024252e+02 
3.522000e-01 4.003455e+02 
3.533900e-01 3.982659e+02 
3.546400e-01 3.961161e+02 
3.558400e-01 3.940711e+02 
3.570600e-01 3.920097e+02 
3.582700e-01 3.899826e+02 
3.595000e-01 3.879396e+02 
3.607100e-01 3.859550e+02 
3.618900e-01 3.840420e+02 
3.631200e-01 3.820646e+02 
3.643200e-01 3.801516e+02 
3.655500e-01 3.782070e+02 
3.667300e-01 3.763568e+02 
3.679500e-01 3.744745e+02 
3.691900e-01 3.725773e+02 
3.703600e-01 3.708017e+02 
3.715700e-01 3.689801e+02 
3.727700e-01 3.671882e+02 
3.739900e-01 3.653860e+02 
3.752000e-01 3.636220e+02 
3.763900e-01 3.619009e+02 
3.775800e-01 3.601933e+02 
3.788200e-01 3.584283e+02 
3.800300e-01 3.567198e+02 
3.812100e-01 3.550724e+02 
3.824200e-01 3.534000e+02 
3.836100e-01 3.517682e+02 
3.848600e-01 3.500676e+02 
3.860400e-01 3.484749e+02 
3.872400e-01 3.468676e+02 
3.884600e-01 3.452538e+02 
3.896500e-01 3.436946e+02 
3.908700e-01 3.421085e+02 
3.920600e-01 3.405732e+02 
3.933100e-01 3.389729e+02 
3.945300e-01 3.374233e+02 
3.957200e-01 3.359305e+02 
3.969300e-01 3.344261e+02 
3.981700e-01 3.328962e+02 
3.993500e-01 3.314514e+02 
4.094840e-01 3.194811e+02 
4.272360e-01 3.003660e+02 
4.454600e-01 2.827781e+02 
4.630560e-01 2.674621e+02 
4.804610e-01 2.537009e+02 
4.980690e-01 2.410004e+02 
5.159230e-01 2.292264e+02 
5.317440e-01 2.196165e+02 
5.489640e-01 2.099548e+02 
5.671990e-01 2.005428e+02 
5.838690e-01 1.925936e+02 
6.018840e-01 1.846462e+02 
6.202330e-01 1.771764e+02 
6.379250e-01 1.704963e+02 
6.545410e-01 1.646761e+02 
6.714560e-01 1.591352e+02 
6.892080e-01 1.537102e+02 
7.066010e-01 1.487531e+02 
7.240540e-01 1.440917e+02 
7.420450e-01 1.396006e+02 
7.593780e-01 1.355402e+02 
7.764720e-01 1.317662e+02 
7.942840e-01 1.280605e+02 
8.116170e-01 1.246616e+02 
8.288310e-01 1.214707e+02 
8.462240e-01 1.184131e+02 
8.631980e-01 1.155799e+02 
8.810700e-01 1.127443e+02 
8.989410e-01 1.100504e+02 
9.166330e-01 1.075092e+02 
9.345640e-01 1.050538e+02 
9.515980e-01 1.028245e+02 
9.688720e-01 1.006591e+02 
9.865640e-01 9.853347e+01 
1.031870e+00 9.347062e+01 
1.063490e+00 9.022491e+01 
1.097920e+00 8.692799e+01 
1.134370e+00 8.367092e+01 
1.167730e+00 8.088370e+01 
1.203830e+00 7.804521e+01 
1.240470e+00 7.534173e+01 
1.275790e+00 7.288291e+01 
1.309140e+00 7.068919e+01 
1.342970e+00 6.856903e+01 
1.378420e+00 6.646383e+01 
1.413200e+00 6.449714e+01 
1.448110e+00 6.261623e+01 
1.484090e+00 6.077202e+01 
1.518820e+00 5.907224e+01 
1.552880e+00 5.747465e+01 
1.588630e+00 5.587024e+01 
1.623230e+00 5.438505e+01 
1.657720e+00 5.296484e+01 
1.692450e+00 5.159279e+01 
1.726400e+00 5.030101e+01 
1.762200e+00 4.899188e+01 
1.797880e+00 4.773847e+01 
1.833270e+00 4.654297e+01 
1.869070e+00 4.537906e+01 
1.903200e+00 4.430962e+01 
1.937740e+00 4.326572e+01 
1.973190e+00 4.223153e+01 
2.007440e+00 4.126733e+01 
2.042160e+00 4.032258e+01 
2.077900e+00 3.938265e+01 
2.112390e+00 3.850685e+01 
2.146220e+00 3.767399e+01 
2.181600e+00 3.683039e+01 
2.216930e+00 3.601587e+01 
2.250760e+00 3.526043e+01 
2.286500e+00 3.448718e+01 
2.321770e+00 3.374826e+01 
2.355950e+00 3.305341e+01 
2.391280e+00 3.235574e+01 
2.426240e+00 3.168600e+01 
2.460670e+00 3.104623e+01 
2.495640e+00 3.041602e+01 
2.531080e+00 2.979400e+01 
2.566220e+00 2.919523e+01 
2.600830e+00 2.862245e+01 
2.635080e+00 2.807155e+01 
2.670340e+00 2.751885e+01 
2.705970e+00 2.697621e+01 
2.740040e+00 2.647175e+01 
2.774520e+00 2.597385e+01 
2.809730e+00 2.547870e+01 
2.844390e+00 2.500460e+01 
2.879960e+00 2.453050e+01 
2.914860e+00 2.407730e+01 
2.949410e+00 2.364058e+01 
2.984440e+00 2.320819e+01 
3.019760e+00 2.278358e+01 
3.054730e+00 2.237442e+01 
3.089030e+00 2.198157e+01 
3.124060e+00 2.159070e+01 
3.159560e+00 2.120446e+01 
3.194710e+00 2.083101e+01 
3.229010e+00 2.047585e+01 
3.263320e+00 2.012794e+01 
3.297930e+00 1.978574e+01 
3.332830e+00 1.944863e+01 
3.368040e+00 1.911634e+01 
3.403300e+00 1.879148e+01 
3.438450e+00 1.847473e+01 
3.473060e+00 1.817052e+01 
3.508440e+00 1.786600e+01 
3.543110e+00 1.757489e+01 
3.577470e+00 1.729214e+01 
3.613040e+00 1.700635e+01 
3.648120e+00 1.673050e+01 
3.682910e+00 1.646318e+01 
3.718050e+00 1.619889e+01 
3.753320e+00 1.593962e+01 
3.787980e+00 1.569029e+01 
3.822290e+00 1.544876e+01 
3.857020e+00 1.520918e+01 
3.891920e+00 1.497364e+01 
3.926650e+00 1.474396e+01 
3.961970e+00 1.451550e+01 
3.997360e+00 1.429128e+01 
4.031670e+00 1.407864e+01 
4.066330e+00 1.386789e+01 
4.101420e+00 1.365924e+01 
4.136200e+00 1.345629e+01 
4.170810e+00 1.325872e+01 
4.206250e+00 1.306020e+01 
4.241580e+00 1.286650e+01 
4.276300e+00 1.267985e+01 
4.310970e+00 1.249719e+01 
4.346120e+00 1.231576e+01 
4.380600e+00 1.214125e+01 
4.414730e+00 1.197204e+01 
4.450350e+00 1.179857e+01 
4.485320e+00 1.163180e+01 
4.519810e+00 1.147037e+01 
4.555430e+00 1.130690e+01 
4.590870e+00 1.114750e+01 
4.625480e+00 1.099477e+01 
4.659910e+00 1.084582e+01 
4.695230e+00 1.069571e+01 
4.729960e+00 1.055096e+01 
4.764450e+00 1.040989e+01 
4.799530e+00 1.026899e+01 
4.834910e+00 1.012965e+01 
4.869700e+00 9.995120e+00 
4.904370e+00 9.863560e+00 
4.939450e+00 9.732916e+00 
4.973940e+00 9.606775e+00 
5.008430e+00 9.482954e+00 
5.043810e+00 9.358156e+00 
5.078840e+00 9.236808e+00 
5.113500e+00 9.118930e+00 
5.148890e+00 9.000738e+00 
5.184210e+00 8.884934e+00 
5.219060e+00 8.772707e+00 
5.253660e+00 8.663199e+00 
5.288570e+00 8.554659e+00 
5.323420e+00 8.448211e+00 
5.358440e+00 8.343117e+00 
5.393590e+00 8.239479e+00 
5.428310e+00 8.138891e+00 
5.462800e+00 8.040679e+00 
5.497640e+00 7.943155e+00 
5.532670e+00 7.846766e+00 
5.567280e+00 7.753138e+00 
5.602000e+00 7.660781e+00 
5.637270e+00 7.568595e+00 
5.672410e+00 7.478303e+00 
5.707020e+00 7.390842e+00 
5.742040e+00 7.303821e+00 
5.777430e+00 7.217335e+00 
5.812210e+00 7.133730e+00 
5.846820e+00 7.051926e+00 
5.881610e+00 6.971025e+00 
5.916510e+00 6.891165e+00 
5.951600e+00 6.812214e+00 
5.986560e+00 6.734834e+00 
6.021830e+00 6.658003e+00 
6.056490e+00 6.583749e+00 
6.091160e+00 6.510675e+00 
6.125830e+00 6.438726e+00 
6.161090e+00 6.366720e+00 
6.195760e+00 6.297086e+00 
6.230420e+00 6.228526e+00 
6.265690e+00 6.159823e+00 
6.300950e+00 6.092285e+00 
6.335620e+00 6.026876e+00 
6.370880e+00 5.961348e+00 
6.405550e+00 5.897978e+00 
6.440220e+00 5.835580e+00 
6.475480e+00 5.773054e+00 
6.510150e+00 5.712503e+00 
6.544810e+00 5.652907e+00 
6.580080e+00 5.593141e+00 
6.614750e+00 5.535241e+00 
6.649410e+00 5.478346e+00 
6.684080e+00 5.422273e+00 
6.719340e+00 5.366057e+00 
6.754010e+00 5.311596e+00 
6.788680e+00 5.257969e+00 
6.823940e+00 5.204195e+00 
6.859800e+00 5.150280e+00 
6.894470e+00 5.098995e+00 
6.929140e+00 5.048452e+00 
6.963800e+00 4.998612e+00 
6.999070e+00 4.948595e+00 
7.033730e+00 4.900204e+00 
7.068400e+00 4.852449e+00 
7.103660e+00 4.804537e+00 
7.138330e+00 4.758117e+00 
7.173600e+00 4.711642e+00 
7.208260e+00 4.666579e+00 
7.243530e+00 4.621330e+00 
7.277600e+00 4.578271e+00 
7.312860e+00 4.534359e+00 
7.348120e+00 4.491026e+00 
7.382790e+00 4.448971e+00 
7.417460e+00 4.407537e+00 
7.452720e+00 4.365983e+00 
7.487390e+00 4.325648e+00 
7.522650e+00 4.285150e+00 
7.557320e+00 4.245927e+00 
7.591990e+00 4.207231e+00 
7.627250e+00 4.168371e+00 
7.662510e+00 4.130003e+00 
7.697180e+00 4.092847e+00 
7.731850e+00 4.056187e+00 
7.766510e+00 4.019986e+00 
7.801180e+00 3.984218e+00 
7.836440e+00 3.948386e+00 
7.871110e+00 3.913645e+00 
7.906380e+00 3.878732e+00 
7.941040e+00 3.844838e+00 
7.976310e+00 3.810812e+00 
8.011570e+00 3.777264e+00 
8.046240e+00 3.744672e+00 
8.080900e+00 3.712474e+00 
8.115570e+00 3.680671e+00 
8.150830e+00 3.648808e+00 
8.185500e+00 3.617846e+00 
8.220770e+00 3.586716e+00 
8.255430e+00 3.556482e+00 
8.290100e+00 3.526694e+00 
8.324770e+00 3.497259e+00 
8.359430e+00 3.468169e+00 
8.394700e+00 3.438907e+00 
8.429960e+00 3.410055e+00 
8.464630e+00 3.382076e+00 
8.499890e+00 3.353942e+00 
8.534560e+00 3.326591e+00 
8.569200e+00 3.299568e+00 
