# Parameters:
# omega_b = 0.022886, omega_m = 0.150315, n_s = 0.938189, h = 69.409449, w = -1.000000, sigma_8 = 0.810709
# z = 1.000000
#
# k[1/Mpc] # P(k):
8.694000e-04 5.373303e+03 
2.077466e-03 1.127866e+04 
3.285532e-03 1.587043e+04 
4.493598e-03 1.943155e+04 
5.701664e-03 2.210474e+04 
6.909730e-03 2.403478e+04 
8.117797e-03 2.538507e+04 
9.325863e-03 2.623764e+04 
1.053393e-02 2.667277e+04 
1.174199e-02 2.676337e+04 
1.295006e-02 2.655725e+04 
1.415813e-02 2.611945e+04 
1.536619e-02 2.550377e+04 
1.657426e-02 2.474318e+04 
1.778233e-02 2.384209e+04 
1.899039e-02 2.283867e+04 
2.019846e-02 2.181678e+04 
2.140652e-02 2.083304e+04 
2.261459e-02 1.988347e+04 
2.382266e-02 1.897352e+04 
2.503072e-02 1.811410e+04 
2.623879e-02 1.731053e+04 
2.744685e-02 1.656526e+04 
2.865492e-02 1.588166e+04 
2.986299e-02 1.525867e+04 
3.100100e-02 1.472616e+04 
3.220400e-02 1.421781e+04 
3.288100e-02 1.395591e+04 
3.424300e-02 1.347668e+04 
3.555100e-02 1.306851e+04 
3.686000e-02 1.270582e+04 
3.795000e-02 1.243260e+04 
3.929100e-02 1.212816e+04 
4.039800e-02 1.189624e+04 
4.164000e-02 1.165099e+04 
4.294400e-02 1.140313e+04 
4.415000e-02 1.117975e+04 
4.542900e-02 1.093973e+04 
4.660900e-02 1.071712e+04 
4.782300e-02 1.047541e+04 
4.892900e-02 1.024991e+04 
5.031200e-02 9.956009e+03 
5.155900e-02 9.678438e+03 
5.238100e-02 9.490538e+03 
5.378200e-02 9.163378e+03 
5.513400e-02 8.840097e+03 
5.627600e-02 8.564311e+03 
5.735300e-02 8.305172e+03 
5.870100e-02 7.985087e+03 
5.988700e-02 7.710980e+03 
6.113500e-02 7.432060e+03 
6.225900e-02 7.191256e+03 
6.340100e-02 6.958669e+03 
6.480200e-02 6.690874e+03 
6.601100e-02 6.477044e+03 
6.725500e-02 6.274100e+03 
6.829100e-02 6.119646e+03 
6.958600e-02 5.941857e+03 
7.071100e-02 5.802476e+03 
7.192300e-02 5.666273e+03 
7.307400e-02 5.549276e+03 
7.412300e-02 5.452088e+03 
7.550400e-02 5.337388e+03 
7.663100e-02 5.252092e+03 
7.791200e-02 5.164666e+03 
7.912700e-02 5.088531e+03 
8.027600e-02 5.020588e+03 
8.138400e-02 4.957684e+03 
8.272200e-02 4.883896e+03 
8.406100e-02 4.810947e+03 
8.534100e-02 4.740032e+03 
8.653800e-02 4.671479e+03 
8.759800e-02 4.609319e+03 
8.900300e-02 4.523954e+03 
9.009000e-02 4.454835e+03 
9.113300e-02 4.385426e+03 
9.239600e-02 4.299591e+03 
9.358000e-02 4.216417e+03 
9.496100e-02 4.115770e+03 
9.608400e-02 4.033139e+03 
9.727500e-02 3.945527e+03 
9.852600e-02 3.851527e+03 
9.973800e-02 3.762042e+03 
1.009000e-01 3.677818e+03 
1.020900e-01 3.593084e+03 
1.034000e-01 3.503105e+03 
1.046000e-01 3.423704e+03 
1.057200e-01 3.353485e+03 
1.069100e-01 3.281895e+03 
1.082500e-01 3.206674e+03 
1.093900e-01 3.146929e+03 
1.105400e-01 3.089638e+03 
1.116900e-01 3.037565e+03 
1.129600e-01 2.982947e+03 
1.142000e-01 2.934589e+03 
1.153300e-01 2.893091e+03 
1.166400e-01 2.848455e+03 
1.177800e-01 2.812430e+03 
1.190000e-01 2.775667e+03 
1.201200e-01 2.744110e+03 
1.213400e-01 2.710794e+03 
1.227100e-01 2.675225e+03 
1.238900e-01 2.645319e+03 
1.250700e-01 2.615863e+03 
1.263200e-01 2.585030e+03 
1.275500e-01 2.554601e+03 
1.287500e-01 2.524913e+03 
1.299900e-01 2.493851e+03 
1.311300e-01 2.465025e+03 
1.323500e-01 2.433491e+03 
1.335900e-01 2.401145e+03 
1.347100e-01 2.371212e+03 
1.359800e-01 2.337168e+03 
1.372100e-01 2.303257e+03 
1.384300e-01 2.269784e+03 
1.395700e-01 2.237766e+03 
1.407700e-01 2.204649e+03 
1.420300e-01 2.169232e+03 
1.432800e-01 2.134907e+03 
1.444500e-01 2.102750e+03 
1.456300e-01 2.071015e+03 
1.468900e-01 2.038059e+03 
1.480500e-01 2.008431e+03 
1.491700e-01 1.980776e+03 
1.503800e-01 1.951981e+03 
1.516400e-01 1.922901e+03 
1.528200e-01 1.897385e+03 
1.540200e-01 1.871956e+03 
1.551900e-01 1.848957e+03 
1.564300e-01 1.825376e+03 
1.576600e-01 1.803128e+03 
1.588700e-01 1.782478e+03 
1.600900e-01 1.762110e+03 
1.612700e-01 1.743855e+03 
1.625400e-01 1.724573e+03 
1.637600e-01 1.706752e+03 
1.649500e-01 1.689889e+03 
1.662200e-01 1.672224e+03 
1.674000e-01 1.656127e+03 
1.685000e-01 1.641372e+03 
1.697500e-01 1.624665e+03 
1.710300e-01 1.607646e+03 
1.722200e-01 1.592103e+03 
1.734400e-01 1.575702e+03 
1.746400e-01 1.559817e+03 
1.758700e-01 1.543557e+03 
1.770900e-01 1.527183e+03 
1.782700e-01 1.511613e+03 
1.794600e-01 1.495777e+03 
1.807000e-01 1.479289e+03 
1.819100e-01 1.463475e+03 
1.830100e-01 1.448984e+03 
1.842200e-01 1.433240e+03 
1.855000e-01 1.416864e+03 
1.867000e-01 1.401610e+03 
1.879200e-01 1.386359e+03 
1.890900e-01 1.371983e+03 
1.902800e-01 1.357665e+03 
1.915200e-01 1.342988e+03 
1.926900e-01 1.329423e+03 
1.939000e-01 1.315813e+03 
1.951700e-01 1.301760e+03 
1.963100e-01 1.289424e+03 
1.975100e-01 1.276850e+03 
1.987800e-01 1.263752e+03 
2.000100e-01 1.251368e+03 
2.012500e-01 1.239308e+03 
2.023400e-01 1.228861e+03 
2.036100e-01 1.216918e+03 
2.048900e-01 1.205269e+03 
2.060400e-01 1.194959e+03 
2.072200e-01 1.184541e+03 
2.084200e-01 1.174255e+03 
2.096900e-01 1.163530e+03 
2.109200e-01 1.153296e+03 
2.121100e-01 1.143593e+03 
2.132700e-01 1.134267e+03 
2.145200e-01 1.124359e+03 
2.157200e-01 1.114990e+03 
2.168800e-01 1.106059e+03 
2.180700e-01 1.097020e+03 
2.193400e-01 1.087494e+03 
2.206000e-01 1.078148e+03 
2.217500e-01 1.069735e+03 
2.229500e-01 1.061071e+03 
2.241400e-01 1.052551e+03 
2.253500e-01 1.044003e+03 
2.264900e-01 1.036053e+03 
2.277100e-01 1.027638e+03 
2.289900e-01 1.018909e+03 
2.301500e-01 1.011103e+03 
2.313600e-01 1.003065e+03 
2.325600e-01 9.951833e+02 
2.337700e-01 9.873382e+02 
2.350000e-01 9.794672e+02 
2.362000e-01 9.718961e+02 
2.374100e-01 9.643697e+02 
2.386500e-01 9.567558e+02 
2.399100e-01 9.491201e+02 
2.410400e-01 9.423776e+02 
2.422500e-01 9.352476e+02 
2.435000e-01 9.279751e+02 
2.447300e-01 9.209190e+02 
2.458700e-01 9.144952e+02 
2.470600e-01 9.078688e+02 
2.483300e-01 9.008844e+02 
2.495600e-01 8.942192e+02 
2.507600e-01 8.878153e+02 
2.519600e-01 8.814875e+02 
2.532200e-01 8.749239e+02 
2.543700e-01 8.690266e+02 
2.555500e-01 8.630597e+02 
2.568000e-01 8.568133e+02 
2.580100e-01 8.508387e+02 
2.592400e-01 8.448549e+02 
2.604100e-01 8.392364e+02 
2.616100e-01 8.335389e+02 
2.628400e-01 8.277661e+02 
2.640600e-01 8.221147e+02 
2.652200e-01 8.168044e+02 
2.664300e-01 8.113266e+02 
2.676500e-01 8.058659e+02 
2.688400e-01 8.006050e+02 
2.700700e-01 7.952316e+02 
2.712400e-01 7.901766e+02 
2.724800e-01 7.848781e+02 
2.736700e-01 7.798505e+02 
2.748800e-01 7.747950e+02 
2.761000e-01 7.697534e+02 
2.773200e-01 7.647671e+02 
2.785400e-01 7.598353e+02 
2.797000e-01 7.551958e+02 
2.808900e-01 7.504860e+02 
2.821400e-01 7.455918e+02 
2.833900e-01 7.407512e+02 
2.845500e-01 7.363005e+02 
2.857800e-01 7.316304e+02 
2.870300e-01 7.269353e+02 
2.882100e-01 7.225498e+02 
2.893900e-01 7.182067e+02 
2.906300e-01 7.136890e+02 
2.918900e-01 7.091475e+02 
2.930500e-01 7.050093e+02 
2.942500e-01 7.007700e+02 
2.954200e-01 6.966741e+02 
2.966500e-01 6.924114e+02 
2.978900e-01 6.881585e+02 
2.990400e-01 6.842536e+02 
3.002700e-01 6.801150e+02 
3.015100e-01 6.759839e+02 
3.026800e-01 6.721247e+02 
3.038500e-01 6.683025e+02 
3.050300e-01 6.644845e+02 
3.062600e-01 6.605419e+02 
3.075000e-01 6.566070e+02 
3.087000e-01 6.528365e+02 
3.099100e-01 6.490714e+02 
3.111200e-01 6.453440e+02 
3.123100e-01 6.417155e+02 
3.135300e-01 6.380310e+02 
3.147300e-01 6.344417e+02 
3.159900e-01 6.307095e+02 
3.171800e-01 6.272216e+02 
3.183700e-01 6.237681e+02 
3.196300e-01 6.201465e+02 
3.208400e-01 6.167018e+02 
3.220300e-01 6.133455e+02 
3.232000e-01 6.100805e+02 
3.244300e-01 6.066816e+02 
3.256700e-01 6.032874e+02 
3.269200e-01 5.998982e+02 
3.280800e-01 5.967818e+02 
3.292500e-01 5.936750e+02 
3.304800e-01 5.904410e+02 
3.317100e-01 5.872369e+02 
3.328900e-01 5.841907e+02 
3.340700e-01 5.811712e+02 
3.353600e-01 5.779102e+02 
3.365300e-01 5.749832e+02 
3.377100e-01 5.720566e+02 
3.389200e-01 5.690819e+02 
3.401600e-01 5.660607e+02 
3.413700e-01 5.631502e+02 
3.425300e-01 5.603918e+02 
3.437700e-01 5.574686e+02 
3.449800e-01 5.546414e+02 
3.461800e-01 5.518617e+02 
3.473600e-01 5.491562e+02 
3.485800e-01 5.463944e+02 
3.498100e-01 5.436340e+02 
3.510200e-01 5.409420e+02 
3.522000e-01 5.383387e+02 
3.533900e-01 5.357353e+02 
3.546400e-01 5.330408e+02 
3.558400e-01 5.304772e+02 
3.570600e-01 5.278928e+02 
3.582700e-01 5.253510e+02 
3.595000e-01 5.227889e+02 
3.607100e-01 5.202988e+02 
3.618900e-01 5.178975e+02 
3.631200e-01 5.154150e+02 
3.643200e-01 5.130131e+02 
3.655500e-01 5.105713e+02 
3.667300e-01 5.082478e+02 
3.679500e-01 5.058827e+02 
3.691900e-01 5.034987e+02 
3.703600e-01 5.012674e+02 
3.715700e-01 4.989780e+02 
3.727700e-01 4.967256e+02 
3.739900e-01 4.944602e+02 
3.752000e-01 4.922423e+02 
3.763900e-01 4.900782e+02 
3.775800e-01 4.879309e+02 
3.788200e-01 4.857112e+02 
3.800300e-01 4.835624e+02 
3.812100e-01 4.814902e+02 
3.824200e-01 4.793865e+02 
3.836100e-01 4.773336e+02 
3.848600e-01 4.751940e+02 
3.860400e-01 4.731899e+02 
3.872400e-01 4.711672e+02 
3.884600e-01 4.691363e+02 
3.896500e-01 4.671740e+02 
3.908700e-01 4.651775e+02 
3.920600e-01 4.632449e+02 
3.933100e-01 4.612303e+02 
3.945300e-01 4.592792e+02 
3.957200e-01 4.574003e+02 
3.969300e-01 4.555068e+02 
3.981700e-01 4.535810e+02 
3.993500e-01 4.517621e+02 
4.094840e-01 4.366805e+02 
4.272360e-01 4.125693e+02 
4.454600e-01 3.903170e+02 
4.630560e-01 3.708656e+02 
4.804610e-01 3.533138e+02 
4.980690e-01 3.370445e+02 
5.159230e-01 3.218978e+02 
5.317440e-01 3.094915e+02 
5.489640e-01 2.969783e+02 
5.671990e-01 2.847563e+02 
5.838690e-01 2.744123e+02 
6.018840e-01 2.640474e+02 
6.202330e-01 2.542873e+02 
6.379250e-01 2.455498e+02 
6.545410e-01 2.379246e+02 
6.714560e-01 2.306512e+02 
6.892080e-01 2.235238e+02 
7.066010e-01 2.169946e+02 
7.240540e-01 2.108467e+02 
7.420450e-01 2.049044e+02 
7.593780e-01 1.995165e+02 
7.764720e-01 1.944949e+02 
7.942840e-01 1.895502e+02 
8.116170e-01 1.849950e+02 
8.288310e-01 1.807005e+02 
8.462240e-01 1.765683e+02 
8.631980e-01 1.727212e+02 
8.810700e-01 1.688551e+02 
8.989410e-01 1.651641e+02 
9.166330e-01 1.616651e+02 
9.345640e-01 1.582675e+02 
9.515980e-01 1.551648e+02 
9.688720e-01 1.521354e+02 
9.865640e-01 1.491441e+02 
1.031870e+00 1.419606e+02 
1.063490e+00 1.373013e+02 
1.097920e+00 1.325253e+02 
1.134370e+00 1.277640e+02 
1.167730e+00 1.236529e+02 
1.203830e+00 1.194290e+02 
1.240470e+00 1.153783e+02 
1.275790e+00 1.116622e+02 
1.309140e+00 1.083319e+02 
1.342970e+00 1.050890e+02 
1.378420e+00 1.018550e+02 
1.413200e+00 9.881770e+01 
1.448110e+00 9.590025e+01 
1.484090e+00 9.302891e+01 
1.518820e+00 9.037303e+01 
1.552880e+00 8.786847e+01 
1.588630e+00 8.534725e+01 
1.623230e+00 8.300699e+01 
1.657720e+00 8.076505e+01 
1.692450e+00 7.859591e+01 
1.726400e+00 7.654913e+01 
1.762200e+00 7.447150e+01 
1.797880e+00 7.248145e+01 
1.833270e+00 7.058031e+01 
1.869070e+00 6.872786e+01 
1.903200e+00 6.702618e+01 
1.937740e+00 6.536396e+01 
1.973190e+00 6.371601e+01 
2.007440e+00 6.217987e+01 
2.042160e+00 6.067533e+01 
2.077900e+00 5.917781e+01 
2.112390e+00 5.778346e+01 
2.146220e+00 5.645688e+01 
2.181600e+00 5.511457e+01 
2.216930e+00 5.381903e+01 
2.250760e+00 5.261798e+01 
2.286500e+00 5.138923e+01 
2.321770e+00 5.021578e+01 
2.355950e+00 4.911355e+01 
2.391280e+00 4.800767e+01 
2.426240e+00 4.694737e+01 
2.460670e+00 4.593542e+01 
2.495640e+00 4.493916e+01 
2.531080e+00 4.395688e+01 
2.566220e+00 4.301246e+01 
2.600830e+00 4.211017e+01 
2.635080e+00 4.124346e+01 
2.670340e+00 4.037528e+01 
2.705970e+00 3.952370e+01 
2.740040e+00 3.873271e+01 
2.774520e+00 3.795277e+01 
2.809730e+00 3.717869e+01 
2.844390e+00 3.643853e+01 
2.879960e+00 3.569945e+01 
2.914860e+00 3.499380e+01 
2.949410e+00 3.431457e+01 
2.984440e+00 3.364353e+01 
3.019760e+00 3.298522e+01 
3.054730e+00 3.235142e+01 
3.089030e+00 3.174449e+01 
3.124060e+00 3.114116e+01 
3.159560e+00 3.054558e+01 
3.194710e+00 2.997097e+01 
3.229010e+00 2.942516e+01 
3.263320e+00 2.889188e+01 
3.297930e+00 2.836772e+01 
3.332830e+00 2.785185e+01 
3.368040e+00 2.734437e+01 
3.403300e+00 2.684905e+01 
3.438450e+00 2.636715e+01 
3.473060e+00 2.590477e+01 
3.508440e+00 2.544281e+01 
3.543110e+00 2.500158e+01 
3.577470e+00 2.457413e+01 
3.613040e+00 2.414245e+01 
3.648120e+00 2.372643e+01 
3.682910e+00 2.332379e+01 
3.718050e+00 2.292651e+01 
3.753320e+00 2.253730e+01 
3.787980e+00 2.216367e+01 
3.822290e+00 2.180223e+01 
3.857020e+00 2.144442e+01 
3.891920e+00 2.109305e+01 
3.926650e+00 2.075103e+01 
3.961970e+00 2.041122e+01 
3.997360e+00 2.007844e+01 
4.031670e+00 1.976309e+01 
4.066330e+00 1.945121e+01 
4.101420e+00 1.914258e+01 
4.136200e+00 1.884315e+01 
4.170810e+00 1.855179e+01 
4.206250e+00 1.825965e+01 
4.241580e+00 1.797482e+01 
4.276300e+00 1.770089e+01 
4.310970e+00 1.743317e+01 
4.346120e+00 1.716756e+01 
4.380600e+00 1.691255e+01 
4.414730e+00 1.666539e+01 
4.450350e+00 1.641270e+01 
4.485320e+00 1.616987e+01 
4.519810e+00 1.593525e+01 
4.555430e+00 1.569792e+01 
4.590870e+00 1.546675e+01 
4.625480e+00 1.524566e+01 
4.659910e+00 1.503011e+01 
4.695230e+00 1.481339e+01 
4.729960e+00 1.460455e+01 
4.764450e+00 1.440125e+01 
4.799530e+00 1.419857e+01 
4.834910e+00 1.399818e+01 
4.869700e+00 1.380512e+01 
4.904370e+00 1.361644e+01 
4.939450e+00 1.342924e+01 
4.973940e+00 1.324883e+01 
5.008430e+00 1.307180e+01 
5.043810e+00 1.289367e+01 
5.078840e+00 1.272066e+01 
5.113500e+00 1.255264e+01 
5.148890e+00 1.238454e+01 
5.184210e+00 1.221990e+01 
5.219060e+00 1.206047e+01 
5.253660e+00 1.190519e+01 
5.288570e+00 1.175133e+01 
5.323420e+00 1.160060e+01 
5.358440e+00 1.145198e+01 
5.393590e+00 1.130546e+01 
5.428310e+00 1.116346e+01 
5.462800e+00 1.102495e+01 
5.497640e+00 1.088744e+01 
5.532670e+00 1.075176e+01 
5.567280e+00 1.062005e+01 
5.602000e+00 1.049016e+01 
5.637270e+00 1.036072e+01 
5.672410e+00 1.023400e+01 
5.707020e+00 1.011128e+01 
5.742040e+00 9.989398e+00 
5.777430e+00 9.868324e+00 
5.812210e+00 9.751301e+00 
5.846820e+00 9.636967e+00 
5.881610e+00 9.523952e+00 
5.916510e+00 9.412407e+00 
5.951600e+00 9.302283e+00 
5.986560e+00 9.194423e+00 
6.021830e+00 9.087346e+00 
6.056490e+00 8.983965e+00 
6.091160e+00 8.882318e+00 
6.125830e+00 8.782248e+00 
6.161090e+00 8.682155e+00 
6.195760e+00 8.585466e+00 
6.230420e+00 8.490279e+00 
6.265690e+00 8.394912e+00 
6.300950e+00 8.301315e+00 
6.335620e+00 8.210677e+00 
6.370880e+00 8.119886e+00 
6.405550e+00 8.032170e+00 
6.440220e+00 7.945839e+00 
6.475480e+00 7.859340e+00 
6.510150e+00 7.775618e+00 
6.544810e+00 7.693302e+00 
6.580080e+00 7.610761e+00 
6.614750e+00 7.530804e+00 
6.649410e+00 7.452312e+00 
6.684080e+00 7.374975e+00 
6.719340e+00 7.297448e+00 
6.754010e+00 7.222368e+00 
6.788680e+00 7.148499e+00 
6.823940e+00 7.074431e+00 
6.859800e+00 7.000177e+00 
6.894470e+00 6.929598e+00 
6.929140e+00 6.860064e+00 
6.963800e+00 6.791502e+00 
6.999070e+00 6.722706e+00 
7.033730e+00 6.656216e+00 
7.068400e+00 6.590604e+00 
7.103660e+00 6.524781e+00 
7.138330e+00 6.461024e+00 
7.173600e+00 6.397223e+00 
7.208260e+00 6.335364e+00 
7.243530e+00 6.273253e+00 
7.277600e+00 6.214172e+00 
7.312860e+00 6.153946e+00 
7.348120e+00 6.094515e+00 
7.382790e+00 6.036842e+00 
7.417460e+00 5.980046e+00 
7.452720e+00 5.923099e+00 
7.487390e+00 5.867826e+00 
7.522650e+00 5.812334e+00 
7.557320e+00 5.758606e+00 
7.591990e+00 5.705608e+00 
7.627250e+00 5.652389e+00 
7.662510e+00 5.599847e+00 
7.697180e+00 5.548984e+00 
7.731850e+00 5.498810e+00 
7.766510e+00 5.449268e+00 
7.801180e+00 5.400319e+00 
7.836440e+00 5.351292e+00 
7.871110e+00 5.303765e+00 
7.906380e+00 5.256004e+00 
7.941040e+00 5.209641e+00 
7.976310e+00 5.163099e+00 
8.011570e+00 5.117217e+00 
8.046240e+00 5.072643e+00 
8.080900e+00 5.028611e+00 
8.115570e+00 4.985123e+00 
8.150830e+00 4.941560e+00 
8.185500e+00 4.899232e+00 
8.220770e+00 4.856677e+00 
8.255430e+00 4.815348e+00 
8.290100e+00 4.774628e+00 
8.324770e+00 4.734393e+00 
8.359430e+00 4.694631e+00 
8.394700e+00 4.654635e+00 
8.429960e+00 4.615201e+00 
8.464630e+00 4.576958e+00 
8.499890e+00 4.538507e+00 
8.534560e+00 4.501127e+00 
8.569200e+00 4.464197e+00 
