# Parameters:
# omega_b = 0.021941, omega_m = 0.153346, n_s = 1.029528, h = 74.370079, w = -1.000000, sigma_8 = 0.762835
# z = 1.000000
#
# k[1/Mpc] # P(k):
8.694000e-04 2.648844e+03 
2.077466e-03 6.036633e+03 
3.285532e-03 8.883662e+03 
4.493598e-03 1.121864e+04 
5.701664e-03 1.307693e+04 
6.909730e-03 1.450787e+04 
8.117797e-03 1.558647e+04 
9.325863e-03 1.635052e+04 
1.053393e-02 1.684292e+04 
1.174199e-02 1.710612e+04 
1.295006e-02 1.716719e+04 
1.415813e-02 1.706492e+04 
1.536619e-02 1.683225e+04 
1.657426e-02 1.648827e+04 
1.778233e-02 1.602592e+04 
1.899039e-02 1.545380e+04 
2.019846e-02 1.484100e+04 
2.140652e-02 1.424653e+04 
2.261459e-02 1.366802e+04 
2.382266e-02 1.310645e+04 
2.503072e-02 1.256986e+04 
2.623879e-02 1.206328e+04 
2.744685e-02 1.158965e+04 
2.865492e-02 1.115283e+04 
2.986299e-02 1.075347e+04 
3.100100e-02 1.041186e+04 
3.220400e-02 1.008642e+04 
3.288100e-02 9.919533e+03 
3.424300e-02 9.616282e+03 
3.555100e-02 9.360940e+03 
3.686000e-02 9.137655e+03 
3.795000e-02 8.972073e+03 
3.929100e-02 8.791470e+03 
4.039800e-02 8.656163e+03 
4.164000e-02 8.514546e+03 
4.294400e-02 8.371932e+03 
4.415000e-02 8.242624e+03 
4.542900e-02 8.100738e+03 
4.660900e-02 7.966336e+03 
4.782300e-02 7.814796e+03 
4.892900e-02 7.669617e+03 
5.031200e-02 7.474253e+03 
5.155900e-02 7.283623e+03 
5.238100e-02 7.151778e+03 
5.378200e-02 6.917718e+03 
5.513400e-02 6.681330e+03 
5.627600e-02 6.476546e+03 
5.735300e-02 6.282220e+03 
5.870100e-02 6.040304e+03 
5.988700e-02 5.832149e+03 
6.113500e-02 5.619882e+03 
6.225900e-02 5.436735e+03 
6.340100e-02 5.260348e+03 
6.480200e-02 5.058197e+03 
6.601100e-02 4.898216e+03 
6.725500e-02 4.747848e+03 
6.829100e-02 4.634914e+03 
6.958600e-02 4.506310e+03 
7.071100e-02 4.407061e+03 
7.192300e-02 4.311485e+03 
7.307400e-02 4.230636e+03 
7.412300e-02 4.164402e+03 
7.550400e-02 4.087505e+03 
7.663100e-02 4.030978e+03 
7.791200e-02 3.973713e+03 
7.912700e-02 3.924028e+03 
8.027600e-02 3.879593e+03 
8.138400e-02 3.838222e+03 
8.272200e-02 3.789179e+03 
8.406100e-02 3.739989e+03 
8.534100e-02 3.691291e+03 
8.653800e-02 3.643452e+03 
8.759800e-02 3.599624e+03 
8.900300e-02 3.538738e+03 
9.009000e-02 3.488873e+03 
9.113300e-02 3.438303e+03 
9.239600e-02 3.375318e+03 
9.358000e-02 3.313723e+03 
9.496100e-02 3.238318e+03 
9.608400e-02 3.175877e+03 
9.727500e-02 3.109245e+03 
9.852600e-02 3.036678e+03 
9.973800e-02 2.967124e+03 
1.009000e-01 2.901277e+03 
1.020900e-01 2.834208e+03 
1.034000e-01 2.762698e+03 
1.046000e-01 2.699303e+03 
1.057200e-01 2.642969e+03 
1.069100e-01 2.585504e+03 
1.082500e-01 2.525133e+03 
1.093900e-01 2.477354e+03 
1.105400e-01 2.431641e+03 
1.116900e-01 2.390555e+03 
1.129600e-01 2.347671e+03 
1.142000e-01 2.310344e+03 
1.153300e-01 2.278639e+03 
1.166400e-01 2.245061e+03 
1.177800e-01 2.218511e+03 
1.190000e-01 2.191688e+03 
1.201200e-01 2.169222e+03 
1.213400e-01 2.145611e+03 
1.227100e-01 2.120947e+03 
1.238900e-01 2.100256e+03 
1.250700e-01 2.079982e+03 
1.263200e-01 2.058697e+03 
1.275500e-01 2.037540e+03 
1.287500e-01 2.016691e+03 
1.299900e-01 1.994549e+03 
1.311300e-01 1.973686e+03 
1.323500e-01 1.950397e+03 
1.335900e-01 1.926125e+03 
1.347100e-01 1.903175e+03 
1.359800e-01 1.876760e+03 
1.372100e-01 1.849843e+03 
1.384300e-01 1.823057e+03 
1.395700e-01 1.796934e+03 
1.407700e-01 1.769868e+03 
1.420300e-01 1.740415e+03 
1.432800e-01 1.711880e+03 
1.444500e-01 1.684901e+03 
1.456300e-01 1.658287e+03 
1.468900e-01 1.630682e+03 
1.480500e-01 1.605882e+03 
1.491700e-01 1.582856e+03 
1.503800e-01 1.559037e+03 
1.516400e-01 1.535077e+03 
1.528200e-01 1.514435e+03 
1.540200e-01 1.493865e+03 
1.551900e-01 1.475708e+03 
1.564300e-01 1.457205e+03 
1.576600e-01 1.439990e+03 
1.588700e-01 1.424312e+03 
1.600900e-01 1.408869e+03 
1.612700e-01 1.395428e+03 
1.625400e-01 1.381229e+03 
1.637600e-01 1.368217e+03 
1.649500e-01 1.355970e+03 
1.662200e-01 1.343130e+03 
1.674000e-01 1.331373e+03 
1.685000e-01 1.320594e+03 
1.697500e-01 1.308243e+03 
1.710300e-01 1.295515e+03 
1.722200e-01 1.283889e+03 
1.734400e-01 1.271230e+03 
1.746400e-01 1.258953e+03 
1.758700e-01 1.246255e+03 
1.770900e-01 1.233211e+03 
1.782700e-01 1.220806e+03 
1.794600e-01 1.208008e+03 
1.807000e-01 1.194566e+03 
1.819100e-01 1.181674e+03 
1.830100e-01 1.169716e+03 
1.842200e-01 1.156702e+03 
1.855000e-01 1.143165e+03 
1.867000e-01 1.130497e+03 
1.879200e-01 1.117833e+03 
1.890900e-01 1.105904e+03 
1.902800e-01 1.094054e+03 
1.915200e-01 1.081910e+03 
1.926900e-01 1.070709e+03 
1.939000e-01 1.059545e+03 
1.951700e-01 1.048018e+03 
1.963100e-01 1.037933e+03 
1.975100e-01 1.027741e+03 
1.987800e-01 1.017124e+03 
2.000100e-01 1.007121e+03 
2.012500e-01 9.974588e+02 
2.023400e-01 9.890889e+02 
2.036100e-01 9.795384e+02 
2.048900e-01 9.702928e+02 
2.060400e-01 9.621088e+02 
2.072200e-01 9.538431e+02 
2.084200e-01 9.457253e+02 
2.096900e-01 9.372598e+02 
2.109200e-01 9.291820e+02 
2.121100e-01 9.215393e+02 
2.132700e-01 9.141944e+02 
2.145200e-01 9.063901e+02 
2.157200e-01 8.990119e+02 
2.168800e-01 8.919797e+02 
2.180700e-01 8.848622e+02 
2.193400e-01 8.773626e+02 
2.206000e-01 8.700103e+02 
2.217500e-01 8.633906e+02 
2.229500e-01 8.565737e+02 
2.241400e-01 8.498932e+02 
2.253500e-01 8.431902e+02 
2.264900e-01 8.369565e+02 
2.277100e-01 8.303830e+02 
2.289900e-01 8.235928e+02 
2.301500e-01 8.175202e+02 
2.313600e-01 8.112671e+02 
2.325600e-01 8.052073e+02 
2.337700e-01 7.991752e+02 
2.350000e-01 7.931223e+02 
2.362000e-01 7.873365e+02 
2.374100e-01 7.816278e+02 
2.386500e-01 7.758519e+02 
2.399100e-01 7.700585e+02 
2.410400e-01 7.650010e+02 
2.422500e-01 7.596595e+02 
2.435000e-01 7.542101e+02 
2.447300e-01 7.489306e+02 
2.458700e-01 7.441575e+02 
2.470600e-01 7.392329e+02 
2.483300e-01 7.340414e+02 
2.495600e-01 7.290877e+02 
2.507600e-01 7.243291e+02 
2.519600e-01 7.196264e+02 
2.532200e-01 7.147475e+02 
2.543700e-01 7.103441e+02 
2.555500e-01 7.058748e+02 
2.568000e-01 7.011955e+02 
2.580100e-01 6.967191e+02 
2.592400e-01 6.921912e+02 
2.604100e-01 6.879197e+02 
2.616100e-01 6.835876e+02 
2.628400e-01 6.791978e+02 
2.640600e-01 6.748449e+02 
2.652200e-01 6.707327e+02 
2.664300e-01 6.664903e+02 
2.676500e-01 6.622608e+02 
2.688400e-01 6.581391e+02 
2.700700e-01 6.538999e+02 
2.712400e-01 6.499116e+02 
2.724800e-01 6.457310e+02 
2.736700e-01 6.417321e+02 
2.748800e-01 6.376785e+02 
2.761000e-01 6.336359e+02 
2.773200e-01 6.296373e+02 
2.785400e-01 6.256671e+02 
2.797000e-01 6.219004e+02 
2.808900e-01 6.180764e+02 
2.821400e-01 6.141027e+02 
2.833900e-01 6.101709e+02 
2.845500e-01 6.065252e+02 
2.857800e-01 6.026997e+02 
2.870300e-01 5.988537e+02 
2.882100e-01 5.952612e+02 
2.893900e-01 5.916899e+02 
2.906300e-01 5.879676e+02 
2.918900e-01 5.842255e+02 
2.930500e-01 5.808159e+02 
2.942500e-01 5.773201e+02 
2.954200e-01 5.739332e+02 
2.966500e-01 5.704086e+02 
2.978900e-01 5.668920e+02 
2.990400e-01 5.636631e+02 
3.002700e-01 5.602362e+02 
3.015100e-01 5.568130e+02 
3.026800e-01 5.536151e+02 
3.038500e-01 5.504480e+02 
3.050300e-01 5.472843e+02 
3.062600e-01 5.440137e+02 
3.075000e-01 5.407496e+02 
3.087000e-01 5.376218e+02 
3.099100e-01 5.344986e+02 
3.111200e-01 5.314061e+02 
3.123100e-01 5.283945e+02 
3.135300e-01 5.253366e+02 
3.147300e-01 5.223577e+02 
3.159900e-01 5.192602e+02 
3.171800e-01 5.163645e+02 
3.183700e-01 5.134967e+02 
3.196300e-01 5.104892e+02 
3.208400e-01 5.076287e+02 
3.220300e-01 5.048417e+02 
3.232000e-01 5.021309e+02 
3.244300e-01 4.993091e+02 
3.256700e-01 4.964912e+02 
3.269200e-01 4.936775e+02 
3.280800e-01 4.910904e+02 
3.292500e-01 4.885111e+02 
3.304800e-01 4.858264e+02 
3.317100e-01 4.831665e+02 
3.328900e-01 4.806377e+02 
3.340700e-01 4.781312e+02 
3.353600e-01 4.754244e+02 
3.365300e-01 4.729948e+02 
3.377100e-01 4.705657e+02 
3.389200e-01 4.680967e+02 
3.401600e-01 4.655891e+02 
3.413700e-01 4.631742e+02 
3.425300e-01 4.608860e+02 
3.437700e-01 4.584613e+02 
3.449800e-01 4.561160e+02 
3.461800e-01 4.538103e+02 
3.473600e-01 4.515664e+02 
3.485800e-01 4.492761e+02 
3.498100e-01 4.469871e+02 
3.510200e-01 4.447548e+02 
3.522000e-01 4.425961e+02 
3.533900e-01 4.404373e+02 
3.546400e-01 4.382040e+02 
3.558400e-01 4.360791e+02 
3.570600e-01 4.339371e+02 
3.582700e-01 4.318304e+02 
3.595000e-01 4.297069e+02 
3.607100e-01 4.276435e+02 
3.618900e-01 4.256539e+02 
3.631200e-01 4.235970e+02 
3.643200e-01 4.216068e+02 
3.655500e-01 4.195838e+02 
3.667300e-01 4.176587e+02 
3.679500e-01 4.156998e+02 
3.691900e-01 4.137252e+02 
3.703600e-01 4.118771e+02 
3.715700e-01 4.099810e+02 
3.727700e-01 4.081155e+02 
3.739900e-01 4.062394e+02 
3.752000e-01 4.044030e+02 
3.763900e-01 4.026112e+02 
3.775800e-01 4.008334e+02 
3.788200e-01 3.989956e+02 
3.800300e-01 3.972165e+02 
3.812100e-01 3.955009e+02 
3.824200e-01 3.937594e+02 
3.836100e-01 3.920599e+02 
3.848600e-01 3.902886e+02 
3.860400e-01 3.886295e+02 
3.872400e-01 3.869551e+02 
3.884600e-01 3.852742e+02 
3.896500e-01 3.836503e+02 
3.908700e-01 3.819981e+02 
3.920600e-01 3.803987e+02 
3.933100e-01 3.787316e+02 
3.945300e-01 3.771170e+02 
3.957200e-01 3.755619e+02 
3.969300e-01 3.739946e+02 
3.981700e-01 3.724007e+02 
3.993500e-01 3.708952e+02 
4.094840e-01 3.584133e+02 
4.272360e-01 3.384540e+02 
4.454600e-01 3.200274e+02 
4.630560e-01 3.039172e+02 
4.804610e-01 2.893762e+02 
4.980690e-01 2.758932e+02 
5.159230e-01 2.633329e+02 
5.317440e-01 2.530404e+02 
5.489640e-01 2.426554e+02 
5.671990e-01 2.325031e+02 
5.838690e-01 2.239070e+02 
6.018840e-01 2.152941e+02 
6.202330e-01 2.071833e+02 
6.379250e-01 1.999188e+02 
6.545410e-01 1.935832e+02 
6.714560e-01 1.875448e+02 
6.892080e-01 1.816279e+02 
7.066010e-01 1.762186e+02 
7.240540e-01 1.711269e+02 
7.420450e-01 1.662185e+02 
7.593780e-01 1.617773e+02 
7.764720e-01 1.576460e+02 
7.942840e-01 1.535854e+02 
8.116170e-01 1.498572e+02 
8.288310e-01 1.463537e+02 
8.462240e-01 1.429915e+02 
8.631980e-01 1.398730e+02 
8.810700e-01 1.367468e+02 
8.989410e-01 1.337717e+02 
9.166330e-01 1.309604e+02 
9.345640e-01 1.282392e+02 
9.515980e-01 1.257642e+02 
9.688720e-01 1.233550e+02 
9.865640e-01 1.209847e+02 
1.031870e+00 1.153161e+02 
1.063490e+00 1.116630e+02 
1.097920e+00 1.079359e+02 
1.134370e+00 1.042345e+02 
1.167730e+00 1.010525e+02 
1.203830e+00 9.779273e+01 
1.240470e+00 9.467436e+01 
1.275790e+00 9.182159e+01 
1.309140e+00 8.926711e+01 
1.342970e+00 8.678275e+01 
1.378420e+00 8.430832e+01 
1.413200e+00 8.198535e+01 
1.448110e+00 7.975290e+01 
1.484090e+00 7.755681e+01 
1.518820e+00 7.552348e+01 
1.552880e+00 7.360444e+01 
1.588630e+00 7.166982e+01 
1.623230e+00 6.987345e+01 
1.657720e+00 6.815048e+01 
1.692450e+00 6.647972e+01 
1.726400e+00 6.490131e+01 
1.762200e+00 6.329727e+01 
1.797880e+00 6.175624e+01 
1.833270e+00 6.028318e+01 
1.869070e+00 5.884452e+01 
1.903200e+00 5.751926e+01 
1.937740e+00 5.622277e+01 
1.973190e+00 5.493518e+01 
2.007440e+00 5.373194e+01 
2.042160e+00 5.254997e+01 
2.077900e+00 5.137184e+01 
2.112390e+00 5.027187e+01 
2.146220e+00 4.922380e+01 
2.181600e+00 4.816009e+01 
2.216930e+00 4.713090e+01 
2.250760e+00 4.617487e+01 
2.286500e+00 4.519490e+01 
2.321770e+00 4.425691e+01 
2.355950e+00 4.337331e+01 
2.391280e+00 4.248454e+01 
2.426240e+00 4.163020e+01 
2.460670e+00 4.081309e+01 
2.495640e+00 4.000720e+01 
2.531080e+00 3.921068e+01 
2.566220e+00 3.844281e+01 
2.600830e+00 3.770743e+01 
2.635080e+00 3.699944e+01 
2.670340e+00 3.628783e+01 
2.705970e+00 3.558858e+01 
2.740040e+00 3.493807e+01 
2.774520e+00 3.429557e+01 
2.809730e+00 3.365568e+01 
2.844390e+00 3.304241e+01 
2.879960e+00 3.242849e+01 
2.914860e+00 3.184127e+01 
2.949410e+00 3.127506e+01 
2.984440e+00 3.071377e+01 
3.019760e+00 3.016231e+01 
3.054730e+00 2.963069e+01 
3.089030e+00 2.911951e+01 
3.124060e+00 2.861075e+01 
3.159560e+00 2.810776e+01 
3.194710e+00 2.762101e+01 
3.229010e+00 2.715793e+01 
3.263320e+00 2.670384e+01 
3.297930e+00 2.625701e+01 
3.332830e+00 2.581655e+01 
3.368040e+00 2.538225e+01 
3.403300e+00 2.495757e+01 
3.438450e+00 2.454314e+01 
3.473060e+00 2.414502e+01 
3.508440e+00 2.374617e+01 
3.543110e+00 2.336480e+01 
3.577470e+00 2.299418e+01 
3.613040e+00 2.261949e+01 
3.648120e+00 2.225770e+01 
3.682910e+00 2.190700e+01 
3.718050e+00 2.156012e+01 
3.753320e+00 2.121972e+01 
3.787980e+00 2.089225e+01 
3.822290e+00 2.057495e+01 
3.857020e+00 2.026015e+01 
3.891920e+00 1.995056e+01 
3.926650e+00 1.964854e+01 
3.961970e+00 1.934811e+01 
3.997360e+00 1.905325e+01 
4.031670e+00 1.877354e+01 
4.066330e+00 1.849612e+01 
4.101420e+00 1.822142e+01 
4.136200e+00 1.795424e+01 
4.170810e+00 1.769411e+01 
4.206250e+00 1.743273e+01 
4.241580e+00 1.717769e+01 
4.276300e+00 1.693181e+01 
4.310970e+00 1.669110e+01 
4.346120e+00 1.645200e+01 
4.380600e+00 1.622201e+01 
4.414730e+00 1.599897e+01 
4.450350e+00 1.577031e+01 
4.485320e+00 1.555045e+01 
4.519810e+00 1.533757e+01 
4.555430e+00 1.512197e+01 
4.590870e+00 1.491171e+01 
4.625480e+00 1.471024e+01 
4.659910e+00 1.451372e+01 
4.695230e+00 1.431567e+01 
4.729960e+00 1.412466e+01 
4.764450e+00 1.393848e+01 
4.799530e+00 1.375253e+01 
4.834910e+00 1.356859e+01 
4.869700e+00 1.339100e+01 
4.904370e+00 1.321731e+01 
4.939450e+00 1.304481e+01 
4.973940e+00 1.287824e+01 
5.008430e+00 1.271471e+01 
5.043810e+00 1.254991e+01 
5.078840e+00 1.238966e+01 
5.113500e+00 1.223397e+01 
5.148890e+00 1.207781e+01 
5.184210e+00 1.192478e+01 
5.219060e+00 1.177647e+01 
5.253660e+00 1.163177e+01 
5.288570e+00 1.148833e+01 
5.323420e+00 1.134764e+01 
5.358440e+00 1.120873e+01 
5.393590e+00 1.107172e+01 
5.428310e+00 1.093873e+01 
5.462800e+00 1.080886e+01 
5.497640e+00 1.067989e+01 
5.532670e+00 1.055240e+01 
5.567280e+00 1.042855e+01 
5.602000e+00 1.030637e+01 
5.637270e+00 1.018440e+01 
5.672410e+00 1.006493e+01 
5.707020e+00 9.949184e+00 
5.742040e+00 9.834006e+00 
5.777430e+00 9.719523e+00 
5.812210e+00 9.608839e+00 
5.846820e+00 9.500506e+00 
5.881610e+00 9.393351e+00 
5.916510e+00 9.287561e+00 
5.951600e+00 9.182965e+00 
5.986560e+00 9.080437e+00 
6.021830e+00 8.978626e+00 
6.056490e+00 8.880219e+00 
6.091160e+00 8.783368e+00 
6.125830e+00 8.687996e+00 
6.161090e+00 8.592522e+00 
6.195760e+00 8.500151e+00 
6.230420e+00 8.409195e+00 
6.265690e+00 8.318038e+00 
6.300950e+00 8.228418e+00 
6.335620e+00 8.141612e+00 
6.370880e+00 8.054639e+00 
6.405550e+00 7.970495e+00 
6.440220e+00 7.887620e+00 
6.475480e+00 7.804567e+00 
6.510150e+00 7.724122e+00 
6.544810e+00 7.644925e+00 
6.580080e+00 7.565493e+00 
6.614750e+00 7.488532e+00 
6.649410e+00 7.412872e+00 
6.684080e+00 7.338292e+00 
6.719340e+00 7.263513e+00 
6.754010e+00 7.191046e+00 
6.788680e+00 7.119647e+00 
6.823940e+00 7.048043e+00 
6.859800e+00 6.976246e+00 
6.894470e+00 6.907923e+00 
6.929140e+00 6.840575e+00 
6.963800e+00 6.774156e+00 
6.999070e+00 6.707494e+00 
7.033730e+00 6.642967e+00 
7.068400e+00 6.579283e+00 
7.103660e+00 6.515383e+00 
7.138330e+00 6.453447e+00 
7.173600e+00 6.391398e+00 
7.208260e+00 6.331226e+00 
7.243530e+00 6.270800e+00 
7.277600e+00 6.213267e+00 
7.312860e+00 6.154566e+00 
7.348120e+00 6.096633e+00 
7.382790e+00 6.040403e+00 
7.417460e+00 5.984979e+00 
7.452720e+00 5.929378e+00 
7.487390e+00 5.875404e+00 
7.522650e+00 5.821207e+00 
7.557320e+00 5.768671e+00 
7.591990e+00 5.716820e+00 
7.627250e+00 5.664746e+00 
7.662510e+00 5.613327e+00 
7.697180e+00 5.563499e+00 
7.731850e+00 5.514321e+00 
7.766510e+00 5.465757e+00 
7.801180e+00 5.417769e+00 
7.836440e+00 5.369662e+00 
7.871110e+00 5.322998e+00 
7.906380e+00 5.276101e+00 
7.941040e+00 5.230569e+00 
7.976310e+00 5.184830e+00 
8.011570e+00 5.139700e+00 
8.046240e+00 5.095853e+00 
8.080900e+00 5.052533e+00 
8.115570e+00 5.009734e+00 
8.150830e+00 4.966818e+00 
8.185500e+00 4.925114e+00 
8.220770e+00 4.883182e+00 
8.255430e+00 4.842453e+00 
8.290100e+00 4.802270e+00 
8.324770e+00 4.762556e+00 
8.359430e+00 4.723305e+00 
8.394700e+00 4.683819e+00 
8.429960e+00 4.644864e+00 
8.464630e+00 4.607063e+00 
8.499890e+00 4.569052e+00 
8.534560e+00 4.532096e+00 
8.569200e+00 4.495583e+00 
