# Parameters:
# omega_b = 0.022098, omega_m = 0.123307, n_s = 0.950787, h = 73.897638, w = -1.000000, sigma_8 = 0.785276
# z = 1.000000
#
# k[1/Mpc] # P(k):
8.694000e-04 8.664037e+03 
2.077466e-03 1.800879e+04 
3.285532e-03 2.495419e+04 
4.493598e-03 2.999968e+04 
5.701664e-03 3.350284e+04 
6.909730e-03 3.576323e+04 
8.117797e-03 3.708685e+04 
9.325863e-03 3.763208e+04 
1.053393e-02 3.755106e+04 
1.174199e-02 3.697976e+04 
1.295006e-02 3.600524e+04 
1.415813e-02 3.473954e+04 
1.536619e-02 3.327562e+04 
1.657426e-02 3.167772e+04 
1.778233e-02 3.000173e+04 
1.899039e-02 2.832603e+04 
2.019846e-02 2.668817e+04 
2.140652e-02 2.512226e+04 
2.261459e-02 2.364655e+04 
2.382266e-02 2.228096e+04 
2.503072e-02 2.103576e+04 
2.623879e-02 1.991110e+04 
2.744685e-02 1.890713e+04 
2.865492e-02 1.801674e+04 
2.986299e-02 1.723102e+04 
3.100100e-02 1.658158e+04 
3.220400e-02 1.597956e+04 
3.288100e-02 1.567699e+04 
3.424300e-02 1.513373e+04 
3.555100e-02 1.467919e+04 
3.686000e-02 1.427889e+04 
3.795000e-02 1.397684e+04 
3.929100e-02 1.363456e+04 
4.039800e-02 1.336647e+04 
4.164000e-02 1.307426e+04 
4.294400e-02 1.276351e+04 
4.415000e-02 1.247405e+04 
4.542900e-02 1.215040e+04 
4.660900e-02 1.184420e+04 
4.782300e-02 1.150566e+04 
4.892900e-02 1.118893e+04 
5.031200e-02 1.077750e+04 
5.155900e-02 1.039351e+04 
5.238100e-02 1.013705e+04 
5.378200e-02 9.697801e+03 
5.513400e-02 9.274823e+03 
5.627600e-02 8.923123e+03 
5.735300e-02 8.600213e+03 
5.870100e-02 8.211701e+03 
5.988700e-02 7.887824e+03 
6.113500e-02 7.566910e+03 
6.225900e-02 7.297495e+03 
6.340100e-02 7.044124e+03 
6.480200e-02 6.759792e+03 
6.601100e-02 6.540352e+03 
6.725500e-02 6.338123e+03 
6.829100e-02 6.189211e+03 
6.958600e-02 6.021838e+03 
7.071100e-02 5.894703e+03 
7.192300e-02 5.773649e+03 
7.307400e-02 5.672091e+03 
7.412300e-02 5.589190e+03 
7.550400e-02 5.492659e+03 
7.663100e-02 5.420955e+03 
7.791200e-02 5.346156e+03 
7.912700e-02 5.278176e+03 
8.027600e-02 5.214387e+03 
8.138400e-02 5.152148e+03 
8.272200e-02 5.074215e+03 
8.406100e-02 4.991749e+03 
8.534100e-02 4.905681e+03 
8.653800e-02 4.818434e+03 
8.759800e-02 4.737401e+03 
8.900300e-02 4.623868e+03 
9.009000e-02 4.530955e+03 
9.113300e-02 4.437807e+03 
9.239600e-02 4.323315e+03 
9.358000e-02 4.213774e+03 
9.496100e-02 4.084390e+03 
9.608400e-02 3.980533e+03 
9.727500e-02 3.872417e+03 
9.852600e-02 3.761620e+03 
9.973800e-02 3.658832e+03 
1.009000e-01 3.564274e+03 
1.020900e-01 3.474448e+03 
1.034000e-01 3.381570e+03 
1.046000e-01 3.302176e+03 
1.057200e-01 3.236013e+03 
1.069100e-01 3.169941e+03 
1.082500e-01 3.104378e+03 
1.093900e-01 3.054372e+03 
1.105400e-01 3.007644e+03 
1.116900e-01 2.967437e+03 
1.129600e-01 2.925860e+03 
1.142000e-01 2.890203e+03 
1.153300e-01 2.859535e+03 
1.166400e-01 2.826458e+03 
1.177800e-01 2.798630e+03 
1.190000e-01 2.769684e+03 
1.201200e-01 2.742191e+03 
1.213400e-01 2.712675e+03 
1.227100e-01 2.676382e+03 
1.238900e-01 2.644856e+03 
1.250700e-01 2.610569e+03 
1.263200e-01 2.573631e+03 
1.275500e-01 2.534882e+03 
1.287500e-01 2.496404e+03 
1.299900e-01 2.455111e+03 
1.311300e-01 2.416881e+03 
1.323500e-01 2.375183e+03 
1.335900e-01 2.333184e+03 
1.347100e-01 2.295276e+03 
1.359800e-01 2.253162e+03 
1.372100e-01 2.213075e+03 
1.384300e-01 2.174446e+03 
1.395700e-01 2.139587e+03 
1.407700e-01 2.103843e+03 
1.420300e-01 2.068414e+03 
1.432800e-01 2.034093e+03 
1.444500e-01 2.004288e+03 
1.456300e-01 1.974867e+03 
1.468900e-01 1.945526e+03 
1.480500e-01 1.919497e+03 
1.491700e-01 1.895531e+03 
1.503800e-01 1.871006e+03 
1.516400e-01 1.846235e+03 
1.528200e-01 1.824554e+03 
1.540200e-01 1.802933e+03 
1.551900e-01 1.782986e+03 
1.564300e-01 1.762428e+03 
1.576600e-01 1.742639e+03 
1.588700e-01 1.723792e+03 
1.600900e-01 1.705145e+03 
1.612700e-01 1.687441e+03 
1.625400e-01 1.668743e+03 
1.637600e-01 1.650871e+03 
1.649500e-01 1.633610e+03 
1.662200e-01 1.615424e+03 
1.674000e-01 1.598255e+03 
1.685000e-01 1.582521e+03 
1.697500e-01 1.564546e+03 
1.710300e-01 1.546077e+03 
1.722200e-01 1.529218e+03 
1.734400e-01 1.511447e+03 
1.746400e-01 1.494243e+03 
1.758700e-01 1.476734e+03 
1.770900e-01 1.459296e+03 
1.782700e-01 1.442723e+03 
1.794600e-01 1.426110e+03 
1.807000e-01 1.408976e+03 
1.819100e-01 1.392551e+03 
1.830100e-01 1.377854e+03 
1.842200e-01 1.361951e+03 
1.855000e-01 1.345432e+03 
1.867000e-01 1.330436e+03 
1.879200e-01 1.315445e+03 
1.890900e-01 1.301368e+03 
1.902800e-01 1.287611e+03 
1.915200e-01 1.273510e+03 
1.926900e-01 1.260527e+03 
1.939000e-01 1.247663e+03 
1.951700e-01 1.234380e+03 
1.963100e-01 1.222746e+03 
1.975100e-01 1.210955e+03 
1.987800e-01 1.198672e+03 
2.000100e-01 1.187054e+03 
2.012500e-01 1.175732e+03 
2.023400e-01 1.165924e+03 
2.036100e-01 1.154690e+03 
2.048900e-01 1.143652e+03 
2.060400e-01 1.133883e+03 
2.072200e-01 1.124000e+03 
2.084200e-01 1.114108e+03 
2.096900e-01 1.103793e+03 
2.109200e-01 1.093952e+03 
2.121100e-01 1.084467e+03 
2.132700e-01 1.075344e+03 
2.145200e-01 1.065652e+03 
2.157200e-01 1.056386e+03 
2.168800e-01 1.047507e+03 
2.180700e-01 1.038522e+03 
2.193400e-01 1.029009e+03 
2.206000e-01 1.019597e+03 
2.217500e-01 1.011124e+03 
2.229500e-01 1.002401e+03 
2.241400e-01 9.937314e+02 
2.253500e-01 9.850321e+02 
2.264900e-01 9.769444e+02 
2.277100e-01 9.683516e+02 
2.289900e-01 9.594044e+02 
2.301500e-01 9.514060e+02 
2.313600e-01 9.431716e+02 
2.325600e-01 9.350528e+02 
2.337700e-01 9.269745e+02 
2.350000e-01 9.188721e+02 
2.362000e-01 9.110686e+02 
2.374100e-01 9.032989e+02 
2.386500e-01 8.954415e+02 
2.399100e-01 8.875643e+02 
2.410400e-01 8.806080e+02 
2.422500e-01 8.732540e+02 
2.435000e-01 8.657554e+02 
2.447300e-01 8.584859e+02 
2.458700e-01 8.518844e+02 
2.470600e-01 8.450767e+02 
2.483300e-01 8.379034e+02 
2.495600e-01 8.310790e+02 
2.507600e-01 8.245499e+02 
2.519600e-01 8.181002e+02 
2.532200e-01 8.114120e+02 
2.543700e-01 8.054391e+02 
2.555500e-01 7.994206e+02 
2.568000e-01 7.931218e+02 
2.580100e-01 7.870985e+02 
2.592400e-01 7.811155e+02 
2.604100e-01 7.755201e+02 
2.616100e-01 7.698470e+02 
2.628400e-01 7.641002e+02 
2.640600e-01 7.585217e+02 
2.652200e-01 7.532992e+02 
2.664300e-01 7.479127e+02 
2.676500e-01 7.425440e+02 
2.688400e-01 7.374049e+02 
2.700700e-01 7.321769e+02 
2.712400e-01 7.272593e+02 
2.724800e-01 7.221055e+02 
2.736700e-01 7.172344e+02 
2.748800e-01 7.123559e+02 
2.761000e-01 7.074915e+02 
2.773200e-01 7.026809e+02 
2.785400e-01 6.979305e+02 
2.797000e-01 6.934771e+02 
2.808900e-01 6.889566e+02 
2.821400e-01 6.842597e+02 
2.833900e-01 6.796151e+02 
2.845500e-01 6.753563e+02 
2.857800e-01 6.708880e+02 
2.870300e-01 6.663963e+02 
2.882100e-01 6.622010e+02 
2.893900e-01 6.580508e+02 
2.906300e-01 6.537363e+02 
2.918900e-01 6.493993e+02 
2.930500e-01 6.454479e+02 
2.942500e-01 6.414014e+02 
2.954200e-01 6.374953e+02 
2.966500e-01 6.334307e+02 
2.978900e-01 6.293757e+02 
2.990400e-01 6.256528e+02 
3.002700e-01 6.217101e+02 
3.015100e-01 6.177762e+02 
3.026800e-01 6.141015e+02 
3.038500e-01 6.104623e+02 
3.050300e-01 6.068275e+02 
3.062600e-01 6.030795e+02 
3.075000e-01 5.993391e+02 
3.087000e-01 5.957553e+02 
3.099100e-01 5.921769e+02 
3.111200e-01 5.886368e+02 
3.123100e-01 5.851946e+02 
3.135300e-01 5.816997e+02 
3.147300e-01 5.782952e+02 
3.159900e-01 5.747555e+02 
3.171800e-01 5.714521e+02 
3.183700e-01 5.681845e+02 
3.196300e-01 5.647579e+02 
3.208400e-01 5.614991e+02 
3.220300e-01 5.583242e+02 
3.232000e-01 5.552401e+02 
3.244300e-01 5.520314e+02 
3.256700e-01 5.488275e+02 
3.269200e-01 5.456285e+02 
3.280800e-01 5.426872e+02 
3.292500e-01 5.397594e+02 
3.304800e-01 5.367133e+02 
3.317100e-01 5.336956e+02 
3.328900e-01 5.308268e+02 
3.340700e-01 5.279833e+02 
3.353600e-01 5.249166e+02 
3.365300e-01 5.221654e+02 
3.377100e-01 5.194150e+02 
3.389200e-01 5.166194e+02 
3.401600e-01 5.137804e+02 
3.413700e-01 5.110473e+02 
3.425300e-01 5.084585e+02 
3.437700e-01 5.057152e+02 
3.449800e-01 5.030621e+02 
3.461800e-01 5.004538e+02 
3.473600e-01 4.979159e+02 
3.485800e-01 4.953268e+02 
3.498100e-01 4.927392e+02 
3.510200e-01 4.902158e+02 
3.522000e-01 4.877758e+02 
3.533900e-01 4.853357e+02 
3.546400e-01 4.828114e+02 
3.558400e-01 4.804097e+02 
3.570600e-01 4.779887e+02 
3.582700e-01 4.756078e+02 
3.595000e-01 4.732079e+02 
3.607100e-01 4.708757e+02 
3.618900e-01 4.686267e+02 
3.631200e-01 4.663018e+02 
3.643200e-01 4.640524e+02 
3.655500e-01 4.617658e+02 
3.667300e-01 4.595901e+02 
3.679500e-01 4.573748e+02 
3.691900e-01 4.551417e+02 
3.703600e-01 4.530517e+02 
3.715700e-01 4.509075e+02 
3.727700e-01 4.487981e+02 
3.739900e-01 4.466759e+02 
3.752000e-01 4.445975e+02 
3.763900e-01 4.425696e+02 
3.775800e-01 4.405576e+02 
3.788200e-01 4.384777e+02 
3.800300e-01 4.364643e+02 
3.812100e-01 4.345220e+02 
3.824200e-01 4.325496e+02 
3.836100e-01 4.306248e+02 
3.848600e-01 4.286189e+02 
3.860400e-01 4.267401e+02 
3.872400e-01 4.248440e+02 
3.884600e-01 4.229391e+02 
3.896500e-01 4.210982e+02 
3.908700e-01 4.192253e+02 
3.920600e-01 4.174123e+02 
3.933100e-01 4.155226e+02 
3.945300e-01 4.136925e+02 
3.957200e-01 4.119288e+02 
3.969300e-01 4.101511e+02 
3.981700e-01 4.083432e+02 
3.993500e-01 4.066357e+02 
4.094840e-01 3.924792e+02 
4.272360e-01 3.698387e+02 
4.454600e-01 3.489710e+02 
4.630560e-01 3.307691e+02 
4.804610e-01 3.143912e+02 
4.980690e-01 2.992561e+02 
5.159230e-01 2.852090e+02 
5.317440e-01 2.737318e+02 
5.489640e-01 2.621798e+02 
5.671990e-01 2.509169e+02 
5.838690e-01 2.413950e+02 
6.018840e-01 2.318621e+02 
6.202330e-01 2.228897e+02 
6.379250e-01 2.148599e+02 
6.545410e-01 2.078514e+02 
6.714560e-01 2.011685e+02 
6.892080e-01 1.946189e+02 
7.066010e-01 1.886195e+02 
7.240540e-01 1.829722e+02 
7.420450e-01 1.775155e+02 
7.593780e-01 1.725710e+02 
7.764720e-01 1.679658e+02 
7.942840e-01 1.634352e+02 
8.116170e-01 1.592666e+02 
8.288310e-01 1.553417e+02 
8.462240e-01 1.515713e+02 
8.631980e-01 1.480665e+02 
8.810700e-01 1.445506e+02 
8.989410e-01 1.412009e+02 
9.166330e-01 1.380320e+02 
9.345640e-01 1.349617e+02 
9.515980e-01 1.321644e+02 
9.688720e-01 1.294399e+02 
9.865640e-01 1.267568e+02 
1.031870e+00 1.203403e+02 
1.063490e+00 1.162022e+02 
1.097920e+00 1.119799e+02 
1.134370e+00 1.077910e+02 
1.167730e+00 1.041905e+02 
1.203830e+00 1.005101e+02 
1.240470e+00 9.699375e+01 
1.275790e+00 9.378349e+01 
1.309140e+00 9.091473e+01 
1.342970e+00 8.813409e+01 
1.378420e+00 8.536763e+01 
1.413200e+00 8.277831e+01 
1.448110e+00 8.029885e+01 
1.484090e+00 7.786396e+01 
1.518820e+00 7.561786e+01 
1.552880e+00 7.350495e+01 
1.588630e+00 7.138231e+01 
1.623230e+00 6.941545e+01 
1.657720e+00 6.753416e+01 
1.692450e+00 6.571719e+01 
1.726400e+00 6.400559e+01 
1.762200e+00 6.227038e+01 
1.797880e+00 6.061065e+01 
1.833270e+00 5.902662e+01 
1.869070e+00 5.748500e+01 
1.903200e+00 5.607003e+01 
1.937740e+00 5.468903e+01 
1.973190e+00 5.332101e+01 
2.007440e+00 5.204665e+01 
2.042160e+00 5.079941e+01 
2.077900e+00 4.955863e+01 
2.112390e+00 4.840390e+01 
2.146220e+00 4.730579e+01 
2.181600e+00 4.619506e+01 
2.216930e+00 4.512355e+01 
2.250760e+00 4.413040e+01 
2.286500e+00 4.311451e+01 
2.321770e+00 4.214456e+01 
2.355950e+00 4.123368e+01 
2.391280e+00 4.031994e+01 
2.426240e+00 3.944386e+01 
2.460670e+00 3.860775e+01 
2.495640e+00 3.778466e+01 
2.531080e+00 3.697302e+01 
2.566220e+00 3.619273e+01 
2.600830e+00 3.544719e+01 
2.635080e+00 3.473094e+01 
2.670340e+00 3.401352e+01 
2.705970e+00 3.330967e+01 
2.740040e+00 3.265576e+01 
2.774520e+00 3.201078e+01 
2.809730e+00 3.137058e+01 
2.844390e+00 3.075835e+01 
2.879960e+00 3.014688e+01 
2.914860e+00 2.956284e+01 
2.949410e+00 2.900051e+01 
2.984440e+00 2.844482e+01 
3.019760e+00 2.789947e+01 
3.054730e+00 2.737428e+01 
3.089030e+00 2.687118e+01 
3.124060e+00 2.637090e+01 
3.159560e+00 2.587686e+01 
3.194710e+00 2.540001e+01 
3.229010e+00 2.494693e+01 
3.263320e+00 2.450403e+01 
3.297930e+00 2.406860e+01 
3.332830e+00 2.363992e+01 
3.368040e+00 2.321796e+01 
3.403300e+00 2.280590e+01 
3.438450e+00 2.240482e+01 
3.473060e+00 2.201989e+01 
3.508440e+00 2.163509e+01 
3.543110e+00 2.126747e+01 
3.577470e+00 2.091107e+01 
3.613040e+00 2.055104e+01 
3.648120e+00 2.020387e+01 
3.682910e+00 1.986774e+01 
3.718050e+00 1.953591e+01 
3.753320e+00 1.921069e+01 
3.787980e+00 1.889833e+01 
3.822290e+00 1.859603e+01 
3.857020e+00 1.829656e+01 
3.891920e+00 1.800239e+01 
3.926650e+00 1.771589e+01 
3.961970e+00 1.743114e+01 
3.997360e+00 1.715205e+01 
4.031670e+00 1.688752e+01 
4.066330e+00 1.662576e+01 
4.101420e+00 1.636669e+01 
4.136200e+00 1.611509e+01 
4.170810e+00 1.587024e+01 
4.206250e+00 1.562451e+01 
4.241580e+00 1.538487e+01 
4.276300e+00 1.515429e+01 
4.310970e+00 1.492884e+01 
4.346120e+00 1.470509e+01 
4.380600e+00 1.449011e+01 
4.414730e+00 1.428171e+01 
4.450350e+00 1.406846e+01 
4.485320e+00 1.386350e+01 
4.519810e+00 1.366534e+01 
4.555430e+00 1.346483e+01 
4.590870e+00 1.326945e+01 
4.625480e+00 1.308247e+01 
4.659910e+00 1.290014e+01 
4.695230e+00 1.271668e+01 
4.729960e+00 1.253984e+01 
4.764450e+00 1.236763e+01 
4.799530e+00 1.219583e+01 
4.834910e+00 1.202595e+01 
4.869700e+00 1.186217e+01 
4.904370e+00 1.170206e+01 
4.939450e+00 1.154316e+01 
4.973940e+00 1.138992e+01 
5.008430e+00 1.123954e+01 
5.043810e+00 1.108812e+01 
5.078840e+00 1.094098e+01 
5.113500e+00 1.079809e+01 
5.148890e+00 1.065502e+01 
5.184210e+00 1.051488e+01 
5.219060e+00 1.037913e+01 
5.253660e+00 1.024683e+01 
5.288570e+00 1.011571e+01 
5.323420e+00 9.987210e+00 
5.358440e+00 9.860448e+00 
5.393590e+00 9.735460e+00 
5.428310e+00 9.614273e+00 
5.462800e+00 9.496021e+00 
5.497640e+00 9.378614e+00 
5.532670e+00 9.262695e+00 
5.567280e+00 9.150146e+00 
5.602000e+00 9.039139e+00 
5.637270e+00 8.928450e+00 
5.672410e+00 8.820070e+00 
5.707020e+00 8.715102e+00 
5.742040e+00 8.610778e+00 
5.777430e+00 8.507131e+00 
5.812210e+00 8.406947e+00 
5.846820e+00 8.309015e+00 
5.881610e+00 8.212197e+00 
5.916510e+00 8.116634e+00 
5.951600e+00 8.022238e+00 
5.986560e+00 7.929758e+00 
6.021830e+00 7.837945e+00 
6.056490e+00 7.749265e+00 
6.091160e+00 7.662042e+00 
6.125830e+00 7.576168e+00 
6.161090e+00 7.490261e+00 
6.195760e+00 7.407248e+00 
6.230420e+00 7.325523e+00 
6.265690e+00 7.243637e+00 
6.300950e+00 7.163216e+00 
6.335620e+00 7.085334e+00 
6.370880e+00 7.007319e+00 
6.405550e+00 6.931923e+00 
6.440220e+00 6.857707e+00 
6.475480e+00 6.783345e+00 
6.510150e+00 6.711355e+00 
6.544810e+00 6.640546e+00 
6.580080e+00 6.569541e+00 
6.614750e+00 6.500757e+00 
6.649410e+00 6.433211e+00 
6.684080e+00 6.366653e+00 
6.719340e+00 6.299929e+00 
6.754010e+00 6.235306e+00 
6.788680e+00 6.171711e+00 
6.823940e+00 6.107944e+00 
6.859800e+00 6.044015e+00 
6.894470e+00 5.983233e+00 
6.929140e+00 5.923342e+00 
6.963800e+00 5.864289e+00 
6.999070e+00 5.805031e+00 
7.033730e+00 5.747736e+00 
7.068400e+00 5.691198e+00 
7.103660e+00 5.634477e+00 
7.138330e+00 5.579533e+00 
7.173600e+00 5.524547e+00 
7.208260e+00 5.471233e+00 
7.243530e+00 5.417701e+00 
7.277600e+00 5.366777e+00 
7.312860e+00 5.314862e+00 
7.348120e+00 5.263632e+00 
7.382790e+00 5.213916e+00 
7.417460e+00 5.164947e+00 
7.452720e+00 5.115844e+00 
7.487390e+00 5.068183e+00 
7.522650e+00 5.020333e+00 
7.557320e+00 4.974005e+00 
7.591990e+00 4.928304e+00 
7.627250e+00 4.882414e+00 
7.662510e+00 4.837106e+00 
7.697180e+00 4.793241e+00 
7.731850e+00 4.749968e+00 
7.766510e+00 4.707240e+00 
7.801180e+00 4.665024e+00 
7.836440e+00 4.622739e+00 
7.871110e+00 4.581747e+00 
7.906380e+00 4.540554e+00 
7.941040e+00 4.500564e+00 
7.976310e+00 4.460424e+00 
8.011570e+00 4.420855e+00 
8.046240e+00 4.382415e+00 
8.080900e+00 4.344441e+00 
8.115570e+00 4.306935e+00 
8.150830e+00 4.269364e+00 
8.185500e+00 4.232857e+00 
8.220770e+00 4.196155e+00 
8.255430e+00 4.160509e+00 
8.290100e+00 4.125396e+00 
8.324770e+00 4.090703e+00 
8.359430e+00 4.056416e+00 
8.394700e+00 4.021928e+00 
8.429960e+00 3.987925e+00 
8.464630e+00 3.954951e+00 
8.499890e+00 3.921797e+00 
8.534560e+00 3.889566e+00 
8.569200e+00 3.857723e+00 
