# Parameters:
# omega_b = 0.023358, omega_m = 0.133228, n_s = 0.886220, h = 74.133858, w = -1.000000, sigma_8 = 0.705984
# z = 1.000000
#
# k[1/Mpc] # P(k):
8.694000e-04 7.640928e+03 
2.077466e-03 1.514677e+04 
3.285532e-03 2.055156e+04 
4.493598e-03 2.442744e+04 
5.701664e-03 2.708360e+04 
6.909730e-03 2.877774e+04 
8.117797e-03 2.975974e+04 
9.325863e-03 3.015566e+04 
1.053393e-02 3.008124e+04 
1.174199e-02 2.963653e+04 
1.295006e-02 2.888712e+04 
1.415813e-02 2.791671e+04 
1.536619e-02 2.679277e+04 
1.657426e-02 2.555904e+04 
1.778233e-02 2.423690e+04 
1.899039e-02 2.288059e+04 
2.019846e-02 2.155793e+04 
2.140652e-02 2.031068e+04 
2.261459e-02 1.913844e+04 
2.382266e-02 1.804839e+04 
2.503072e-02 1.704758e+04 
2.623879e-02 1.613666e+04 
2.744685e-02 1.531552e+04 
2.865492e-02 1.458057e+04 
2.986299e-02 1.392596e+04 
3.100100e-02 1.337919e+04 
3.220400e-02 1.286757e+04 
3.288100e-02 1.260842e+04 
3.424300e-02 1.214042e+04 
3.555100e-02 1.174721e+04 
3.686000e-02 1.140090e+04 
3.795000e-02 1.114076e+04 
3.929100e-02 1.084959e+04 
4.039800e-02 1.062528e+04 
4.164000e-02 1.038488e+04 
4.294400e-02 1.013570e+04 
4.415000e-02 9.907150e+03 
4.542900e-02 9.656031e+03 
4.660900e-02 9.420397e+03 
4.782300e-02 9.161464e+03 
4.892900e-02 8.919289e+03 
5.031200e-02 8.603974e+03 
5.155900e-02 8.308076e+03 
5.238100e-02 8.109354e+03 
5.378200e-02 7.766868e+03 
5.513400e-02 7.434048e+03 
5.627600e-02 7.154991e+03 
5.735300e-02 6.896982e+03 
5.870100e-02 6.584283e+03 
5.988700e-02 6.321857e+03 
6.113500e-02 6.060222e+03 
6.225900e-02 5.839252e+03 
6.340100e-02 5.630319e+03 
6.480200e-02 5.394762e+03 
6.601100e-02 5.211856e+03 
6.725500e-02 5.042390e+03 
6.829100e-02 4.916821e+03 
6.958600e-02 4.775064e+03 
7.071100e-02 4.666656e+03 
7.192300e-02 4.562810e+03 
7.307400e-02 4.475159e+03 
7.412300e-02 4.403244e+03 
7.550400e-02 4.319104e+03 
7.663100e-02 4.256521e+03 
7.791200e-02 4.191447e+03 
7.912700e-02 4.132974e+03 
8.027600e-02 4.078917e+03 
8.138400e-02 4.027017e+03 
8.272200e-02 3.963350e+03 
8.406100e-02 3.897454e+03 
8.534100e-02 3.830345e+03 
8.653800e-02 3.763532e+03 
8.759800e-02 3.702103e+03 
8.900300e-02 3.616852e+03 
9.009000e-02 3.547572e+03 
9.113300e-02 3.478312e+03 
9.239600e-02 3.393193e+03 
9.358000e-02 3.311607e+03 
9.496100e-02 3.214650e+03 
9.608400e-02 3.136292e+03 
9.727500e-02 3.054260e+03 
9.852600e-02 2.968784e+03 
9.973800e-02 2.888733e+03 
1.009000e-01 2.814472e+03 
1.020900e-01 2.742285e+03 
1.034000e-01 2.666877e+03 
1.046000e-01 2.601598e+03 
1.057200e-01 2.545876e+03 
1.069100e-01 2.489795e+03 
1.082500e-01 2.432865e+03 
1.093900e-01 2.388781e+03 
1.105400e-01 2.347178e+03 
1.116900e-01 2.310690e+03 
1.129600e-01 2.272799e+03 
1.142000e-01 2.240074e+03 
1.153300e-01 2.212072e+03 
1.166400e-01 2.182096e+03 
1.177800e-01 2.157528e+03 
1.190000e-01 2.132275e+03 
1.201200e-01 2.109480e+03 
1.213400e-01 2.085206e+03 
1.227100e-01 2.057089e+03 
1.238900e-01 2.032957e+03 
1.250700e-01 2.007599e+03 
1.263200e-01 1.980506e+03 
1.275500e-01 1.952562e+03 
1.287500e-01 1.924880e+03 
1.299900e-01 1.895276e+03 
1.311300e-01 1.867740e+03 
1.323500e-01 1.837523e+03 
1.335900e-01 1.806795e+03 
1.347100e-01 1.778688e+03 
1.359800e-01 1.747133e+03 
1.372100e-01 1.716460e+03 
1.384300e-01 1.686610e+03 
1.395700e-01 1.658983e+03 
1.407700e-01 1.630571e+03 
1.420300e-01 1.601481e+03 
1.432800e-01 1.573318e+03 
1.444500e-01 1.548091e+03 
1.456300e-01 1.523210e+03 
1.468900e-01 1.498045e+03 
1.480500e-01 1.475625e+03 
1.491700e-01 1.454933e+03 
1.503800e-01 1.433690e+03 
1.516400e-01 1.412286e+03 
1.528200e-01 1.393711e+03 
1.540200e-01 1.375198e+03 
1.551900e-01 1.358451e+03 
1.564300e-01 1.341280e+03 
1.576600e-01 1.324985e+03 
1.588700e-01 1.309747e+03 
1.600900e-01 1.294700e+03 
1.612700e-01 1.280880e+03 
1.625400e-01 1.266285e+03 
1.637600e-01 1.252548e+03 
1.649500e-01 1.239402e+03 
1.662200e-01 1.225574e+03 
1.674000e-01 1.212647e+03 
1.685000e-01 1.200799e+03 
1.697500e-01 1.187250e+03 
1.710300e-01 1.173314e+03 
1.722200e-01 1.160593e+03 
1.734400e-01 1.147032e+03 
1.746400e-01 1.133899e+03 
1.758700e-01 1.120464e+03 
1.770900e-01 1.106944e+03 
1.782700e-01 1.094096e+03 
1.794600e-01 1.081093e+03 
1.807000e-01 1.067602e+03 
1.819100e-01 1.054672e+03 
1.830100e-01 1.042968e+03 
1.842200e-01 1.030283e+03 
1.855000e-01 1.017106e+03 
1.867000e-01 1.005029e+03 
1.879200e-01 9.929607e+02 
1.890900e-01 9.816228e+02 
1.902800e-01 9.704942e+02 
1.915200e-01 9.590921e+02 
1.926900e-01 9.485949e+02 
1.939000e-01 9.381862e+02 
1.951700e-01 9.274424e+02 
1.963100e-01 9.180425e+02 
1.975100e-01 9.085396e+02 
1.987800e-01 8.986438e+02 
2.000100e-01 8.893012e+02 
2.012500e-01 8.802334e+02 
2.023400e-01 8.723798e+02 
2.036100e-01 8.634005e+02 
2.048900e-01 8.546312e+02 
2.060400e-01 8.468709e+02 
2.072200e-01 8.390275e+02 
2.084200e-01 8.312331e+02 
2.096900e-01 8.231075e+02 
2.109200e-01 8.153562e+02 
2.121100e-01 8.079395e+02 
2.132700e-01 8.008097e+02 
2.145200e-01 7.932366e+02 
2.157200e-01 7.860281e+02 
2.168800e-01 7.791365e+02 
2.180700e-01 7.721639e+02 
2.193400e-01 7.648000e+02 
2.206000e-01 7.575471e+02 
2.217500e-01 7.510196e+02 
2.229500e-01 7.443002e+02 
2.241400e-01 7.376669e+02 
2.253500e-01 7.310128e+02 
2.264900e-01 7.248273e+02 
2.277100e-01 7.182830e+02 
2.289900e-01 7.114989e+02 
2.301500e-01 7.054349e+02 
2.313600e-01 6.991929e+02 
2.325600e-01 6.930947e+02 
2.337700e-01 6.870273e+02 
2.350000e-01 6.809421e+02 
2.362000e-01 6.751058e+02 
2.374100e-01 6.693233e+02 
2.386500e-01 6.634756e+02 
2.399100e-01 6.576133e+02 
2.410400e-01 6.524704e+02 
2.422500e-01 6.470377e+02 
2.435000e-01 6.414980e+02 
2.447300e-01 6.361318e+02 
2.458700e-01 6.312751e+02 
2.470600e-01 6.262665e+02 
2.483300e-01 6.209889e+02 
2.495600e-01 6.159664e+02 
2.507600e-01 6.111591e+02 
2.519600e-01 6.064102e+02 
2.532200e-01 6.014856e+02 
2.543700e-01 5.970727e+02 
2.555500e-01 5.926159e+02 
2.568000e-01 5.879515e+02 
2.580100e-01 5.834911e+02 
2.592400e-01 5.790322e+02 
2.604100e-01 5.748495e+02 
2.616100e-01 5.706090e+02 
2.628400e-01 5.663134e+02 
2.640600e-01 5.621096e+02 
2.652200e-01 5.581607e+02 
2.664300e-01 5.540880e+02 
2.676500e-01 5.500290e+02 
2.688400e-01 5.461155e+02 
2.700700e-01 5.421168e+02 
2.712400e-01 5.383559e+02 
2.724800e-01 5.344148e+02 
2.736700e-01 5.306714e+02 
2.748800e-01 5.269036e+02 
2.761000e-01 5.231470e+02 
2.773200e-01 5.194324e+02 
2.785400e-01 5.157557e+02 
2.797000e-01 5.122902e+02 
2.808900e-01 5.087729e+02 
2.821400e-01 5.051189e+02 
2.833900e-01 5.015053e+02 
2.845500e-01 4.981738e+02 
2.857800e-01 4.946789e+02 
2.870300e-01 4.911663e+02 
2.882100e-01 4.878861e+02 
2.893900e-01 4.846330e+02 
2.906300e-01 4.812472e+02 
2.918900e-01 4.778443e+02 
2.930500e-01 4.747445e+02 
2.942500e-01 4.715687e+02 
2.954200e-01 4.684980e+02 
2.966500e-01 4.653032e+02 
2.978900e-01 4.621165e+02 
2.990400e-01 4.591912e+02 
3.002700e-01 4.560903e+02 
3.015100e-01 4.529951e+02 
3.026800e-01 4.501043e+02 
3.038500e-01 4.472420e+02 
3.050300e-01 4.443836e+02 
3.062600e-01 4.414333e+02 
3.075000e-01 4.384896e+02 
3.087000e-01 4.356697e+02 
3.099100e-01 4.328545e+02 
3.111200e-01 4.300693e+02 
3.123100e-01 4.273604e+02 
3.135300e-01 4.246106e+02 
3.147300e-01 4.219324e+02 
3.159900e-01 4.191484e+02 
3.171800e-01 4.165500e+02 
3.183700e-01 4.139797e+02 
3.196300e-01 4.112849e+02 
3.208400e-01 4.087225e+02 
3.220300e-01 4.062265e+02 
3.232000e-01 4.038025e+02 
3.244300e-01 4.012812e+02 
3.256700e-01 3.987640e+02 
3.269200e-01 3.962513e+02 
3.280800e-01 3.939413e+02 
3.292500e-01 3.916424e+02 
3.304800e-01 3.892511e+02 
3.317100e-01 3.868824e+02 
3.328900e-01 3.846311e+02 
3.340700e-01 3.824000e+02 
3.353600e-01 3.799953e+02 
3.365300e-01 3.778390e+02 
3.377100e-01 3.756835e+02 
3.389200e-01 3.734931e+02 
3.401600e-01 3.712690e+02 
3.413700e-01 3.691295e+02 
3.425300e-01 3.671041e+02 
3.437700e-01 3.649583e+02 
3.449800e-01 3.628833e+02 
3.461800e-01 3.608436e+02 
3.473600e-01 3.588601e+02 
3.485800e-01 3.568387e+02 
3.498100e-01 3.548188e+02 
3.510200e-01 3.528493e+02 
3.522000e-01 3.509452e+02 
3.533900e-01 3.490413e+02 
3.546400e-01 3.470748e+02 
3.558400e-01 3.452044e+02 
3.570600e-01 3.433192e+02 
3.582700e-01 3.414655e+02 
3.595000e-01 3.395973e+02 
3.607100e-01 3.377837e+02 
3.618900e-01 3.360365e+02 
3.631200e-01 3.342306e+02 
3.643200e-01 3.324835e+02 
3.655500e-01 3.307079e+02 
3.667300e-01 3.290186e+02 
3.679500e-01 3.273019e+02 
3.691900e-01 3.255717e+02 
3.703600e-01 3.239526e+02 
3.715700e-01 3.222917e+02 
3.727700e-01 3.206580e+02 
3.739900e-01 3.190157e+02 
3.752000e-01 3.174093e+02 
3.763900e-01 3.158422e+02 
3.775800e-01 3.142876e+02 
3.788200e-01 3.126807e+02 
3.800300e-01 3.111254e+02 
3.812100e-01 3.096270e+02 
3.824200e-01 3.081068e+02 
3.836100e-01 3.066234e+02 
3.848600e-01 3.050777e+02 
3.860400e-01 3.036302e+02 
3.872400e-01 3.021695e+02 
3.884600e-01 3.007042e+02 
3.896500e-01 2.992892e+02 
3.908700e-01 2.978498e+02 
3.920600e-01 2.964566e+02 
3.933100e-01 2.950045e+02 
3.945300e-01 2.935985e+02 
3.957200e-01 2.922454e+02 
3.969300e-01 2.908822e+02 
3.981700e-01 2.894961e+02 
3.993500e-01 2.881870e+02 
4.094840e-01 2.773531e+02 
4.272360e-01 2.600990e+02 
4.454600e-01 2.442651e+02 
4.630560e-01 2.305065e+02 
4.804610e-01 2.181664e+02 
4.980690e-01 2.067946e+02 
5.159230e-01 1.962680e+02 
5.317440e-01 1.876881e+02 
5.489640e-01 1.790749e+02 
5.671990e-01 1.706973e+02 
5.838690e-01 1.636332e+02 
6.018840e-01 1.565841e+02 
6.202330e-01 1.499725e+02 
6.379250e-01 1.440684e+02 
6.545410e-01 1.389360e+02 
6.714560e-01 1.340586e+02 
6.892080e-01 1.292907e+02 
7.066010e-01 1.249438e+02 
7.240540e-01 1.208614e+02 
7.420450e-01 1.169374e+02 
7.593780e-01 1.133962e+02 
7.764720e-01 1.101100e+02 
7.942840e-01 1.068879e+02 
8.116170e-01 1.039386e+02 
8.288310e-01 1.011747e+02 
8.462240e-01 9.853051e+01 
8.631980e-01 9.608470e+01 
8.810700e-01 9.364003e+01 
8.989410e-01 9.132117e+01 
9.166330e-01 8.913712e+01 
9.345640e-01 8.702978e+01 
9.515980e-01 8.511996e+01 
9.688720e-01 8.326750e+01 
9.865640e-01 8.145199e+01 
1.031870e+00 7.713728e+01 
1.063490e+00 7.437961e+01 
1.097920e+00 7.158478e+01 
1.134370e+00 6.883059e+01 
1.167730e+00 6.647932e+01 
1.203830e+00 6.409020e+01 
1.240470e+00 6.181921e+01 
1.275790e+00 5.975879e+01 
1.309140e+00 5.792261e+01 
1.342970e+00 5.615201e+01 
1.378420e+00 5.439649e+01 
1.413200e+00 5.275917e+01 
1.448110e+00 5.119545e+01 
1.484090e+00 4.966449e+01 
1.518820e+00 4.825521e+01 
1.552880e+00 4.693229e+01 
1.588630e+00 4.560505e+01 
1.623230e+00 4.437809e+01 
1.657720e+00 4.320580e+01 
1.692450e+00 4.207406e+01 
1.726400e+00 4.100986e+01 
1.762200e+00 3.993253e+01 
1.797880e+00 3.890139e+01 
1.833270e+00 3.791900e+01 
1.869070e+00 3.696339e+01 
1.903200e+00 3.608552e+01 
1.937740e+00 3.522922e+01 
1.973190e+00 3.438168e+01 
2.007440e+00 3.359181e+01 
2.042160e+00 3.281807e+01 
2.077900e+00 3.204896e+01 
2.112390e+00 3.133232e+01 
2.146220e+00 3.065154e+01 
2.181600e+00 2.996199e+01 
2.216930e+00 2.929651e+01 
2.250760e+00 2.867957e+01 
2.286500e+00 2.804835e+01 
2.321770e+00 2.744537e+01 
2.355950e+00 2.687836e+01 
2.391280e+00 2.630934e+01 
2.426240e+00 2.576313e+01 
2.460670e+00 2.524148e+01 
2.495640e+00 2.472782e+01 
2.531080e+00 2.422106e+01 
2.566220e+00 2.373328e+01 
2.600830e+00 2.326668e+01 
2.635080e+00 2.281792e+01 
2.670340e+00 2.236772e+01 
2.705970e+00 2.192587e+01 
2.740040e+00 2.151523e+01 
2.774520e+00 2.111008e+01 
2.809730e+00 2.070708e+01 
2.844390e+00 2.032117e+01 
2.879960e+00 1.993528e+01 
2.914860e+00 1.956655e+01 
2.949410e+00 1.921124e+01 
2.984440e+00 1.885935e+01 
3.019760e+00 1.851392e+01 
3.054730e+00 1.818111e+01 
3.089030e+00 1.786146e+01 
3.124060e+00 1.754350e+01 
3.159560e+00 1.722941e+01 
3.194710e+00 1.692563e+01 
3.229010e+00 1.663671e+01 
3.263320e+00 1.635360e+01 
3.297930e+00 1.607519e+01 
3.332830e+00 1.580104e+01 
3.368040e+00 1.553075e+01 
3.403300e+00 1.526647e+01 
3.438450e+00 1.500872e+01 
3.473060e+00 1.476118e+01 
3.508440e+00 1.451342e+01 
3.543110e+00 1.427656e+01 
3.577470e+00 1.404647e+01 
3.613040e+00 1.381390e+01 
3.648120e+00 1.358945e+01 
3.682910e+00 1.337193e+01 
3.718050e+00 1.315684e+01 
3.753320e+00 1.294582e+01 
3.787980e+00 1.274288e+01 
3.822290e+00 1.254626e+01 
3.857020e+00 1.235121e+01 
3.891920e+00 1.215943e+01 
3.926650e+00 1.197240e+01 
3.961970e+00 1.178636e+01 
3.997360e+00 1.160375e+01 
4.031670e+00 1.143056e+01 
4.066330e+00 1.125891e+01 
4.101420e+00 1.108897e+01 
4.136200e+00 1.092364e+01 
4.170810e+00 1.076270e+01 
4.206250e+00 1.060099e+01 
4.241580e+00 1.044320e+01 
4.276300e+00 1.029113e+01 
4.310970e+00 1.014229e+01 
4.346120e+00 9.994449e+00 
4.380600e+00 9.852234e+00 
4.414730e+00 9.714332e+00 
4.450350e+00 9.572934e+00 
4.485320e+00 9.437001e+00 
4.519810e+00 9.305401e+00 
4.555430e+00 9.172141e+00 
4.590870e+00 9.042190e+00 
4.625480e+00 8.917659e+00 
4.659910e+00 8.796210e+00 
4.695230e+00 8.673807e+00 
4.729960e+00 8.555776e+00 
4.764450e+00 8.440732e+00 
4.799530e+00 8.325822e+00 
4.834910e+00 8.212180e+00 
4.869700e+00 8.102453e+00 
4.904370e+00 7.995151e+00 
4.939450e+00 7.888592e+00 
4.973940e+00 7.785694e+00 
5.008430e+00 7.684692e+00 
5.043810e+00 7.582885e+00 
5.078840e+00 7.483888e+00 
5.113500e+00 7.387728e+00 
5.148890e+00 7.291299e+00 
5.184210e+00 7.196823e+00 
5.219060e+00 7.105267e+00 
5.253660e+00 7.015919e+00 
5.288570e+00 6.927366e+00 
5.323420e+00 6.840520e+00 
5.358440e+00 6.754778e+00 
5.393590e+00 6.670228e+00 
5.428310e+00 6.588163e+00 
5.462800e+00 6.508035e+00 
5.497640e+00 6.428474e+00 
5.532670e+00 6.349834e+00 
5.567280e+00 6.273448e+00 
5.602000e+00 6.198104e+00 
5.637270e+00 6.122901e+00 
5.672410e+00 6.049246e+00 
5.707020e+00 5.977905e+00 
5.742040e+00 5.906921e+00 
5.777430e+00 5.836377e+00 
5.812210e+00 5.768185e+00 
5.846820e+00 5.701467e+00 
5.881610e+00 5.635490e+00 
5.916510e+00 5.570366e+00 
5.951600e+00 5.505986e+00 
5.986560e+00 5.442890e+00 
6.021830e+00 5.380246e+00 
6.056490e+00 5.319707e+00 
6.091160e+00 5.260134e+00 
6.125830e+00 5.201481e+00 
6.161090e+00 5.142787e+00 
6.195760e+00 5.086033e+00 
6.230420e+00 5.030159e+00 
6.265690e+00 4.974171e+00 
6.300950e+00 4.919140e+00 
6.335620e+00 4.865846e+00 
6.370880e+00 4.812460e+00 
6.405550e+00 4.760840e+00 
6.440220e+00 4.710016e+00 
6.475480e+00 4.659093e+00 
6.510150e+00 4.609782e+00 
6.544810e+00 4.561258e+00 
6.580080e+00 4.512599e+00 
6.614750e+00 4.465461e+00 
6.649410e+00 4.419154e+00 
6.684080e+00 4.373519e+00 
6.719340e+00 4.327771e+00 
6.754010e+00 4.283457e+00 
6.788680e+00 4.239835e+00 
6.823940e+00 4.196094e+00 
6.859800e+00 4.152242e+00 
6.894470e+00 4.110541e+00 
6.929140e+00 4.069448e+00 
6.963800e+00 4.028930e+00 
6.999070e+00 3.988270e+00 
7.033730e+00 3.948945e+00 
7.068400e+00 3.910140e+00 
7.103660e+00 3.871208e+00 
7.138330e+00 3.833496e+00 
7.173600e+00 3.795755e+00 
7.208260e+00 3.759161e+00 
7.243530e+00 3.722418e+00 
7.277600e+00 3.687463e+00 
7.312860e+00 3.651825e+00 
7.348120e+00 3.616658e+00 
7.382790e+00 3.582530e+00 
7.417460e+00 3.548918e+00 
7.452720e+00 3.515216e+00 
7.487390e+00 3.482504e+00 
7.522650e+00 3.449662e+00 
7.557320e+00 3.417869e+00 
7.591990e+00 3.386508e+00 
7.627250e+00 3.355016e+00 
7.662510e+00 3.323924e+00 
7.697180e+00 3.293827e+00 
7.731850e+00 3.264137e+00 
7.766510e+00 3.234820e+00 
7.801180e+00 3.205855e+00 
7.836440e+00 3.176851e+00 
7.871110e+00 3.148738e+00 
7.906380e+00 3.120488e+00 
7.941040e+00 3.093063e+00 
7.976310e+00 3.065540e+00 
8.011570e+00 3.038416e+00 
8.046240e+00 3.012065e+00 
8.080900e+00 2.986033e+00 
8.115570e+00 2.960325e+00 
8.150830e+00 2.934584e+00 
8.185500e+00 2.909571e+00 
8.220770e+00 2.884424e+00 
8.255430e+00 2.860001e+00 
8.290100e+00 2.835955e+00 
8.324770e+00 2.812197e+00 
8.359430e+00 2.788718e+00 
8.394700e+00 2.765099e+00 
8.429960e+00 2.741823e+00 
8.464630e+00 2.719260e+00 
8.499890e+00 2.696574e+00 
8.534560e+00 2.674518e+00 
8.569200e+00 2.652728e+00 
