# Parameters:
# omega_b = 0.022350, omega_m = 0.129370, n_s = 0.868898, h = 65.393701, w = -1.000000, sigma_8 = 0.701496
# z = 1.000000
#
# k[1/Mpc] # P(k):
8.694000e-04 9.346042e+03 
2.077466e-03 1.820874e+04 
3.285532e-03 2.445082e+04 
4.493598e-03 2.881938e+04 
5.701664e-03 3.174730e+04 
6.909730e-03 3.354912e+04 
8.117797e-03 3.452085e+04 
9.325863e-03 3.481481e+04 
1.053393e-02 3.457340e+04 
1.174199e-02 3.392091e+04 
1.295006e-02 3.293433e+04 
1.415813e-02 3.171035e+04 
1.536619e-02 3.032935e+04 
1.657426e-02 2.885148e+04 
1.778233e-02 2.735916e+04 
1.899039e-02 2.594147e+04 
2.019846e-02 2.455860e+04 
2.140652e-02 2.319422e+04 
2.261459e-02 2.188160e+04 
2.382266e-02 2.065391e+04 
2.503072e-02 1.952375e+04 
2.623879e-02 1.849211e+04 
2.744685e-02 1.755825e+04 
2.865492e-02 1.671854e+04 
2.986299e-02 1.596649e+04 
3.100100e-02 1.533371e+04 
3.220400e-02 1.473666e+04 
3.288100e-02 1.443144e+04 
3.424300e-02 1.387496e+04 
3.555100e-02 1.340126e+04 
3.686000e-02 1.297811e+04 
3.795000e-02 1.265652e+04 
3.929100e-02 1.229222e+04 
4.039800e-02 1.200992e+04 
4.164000e-02 1.170719e+04 
4.294400e-02 1.139571e+04 
4.415000e-02 1.111299e+04 
4.542900e-02 1.080845e+04 
4.660900e-02 1.052731e+04 
4.782300e-02 1.022610e+04 
4.892900e-02 9.948992e+03 
5.031200e-02 9.594895e+03 
5.155900e-02 9.268528e+03 
5.238100e-02 9.051738e+03 
5.378200e-02 8.681538e+03 
5.513400e-02 8.325004e+03 
5.627600e-02 8.027499e+03 
5.735300e-02 7.752841e+03 
5.870100e-02 7.419718e+03 
5.988700e-02 7.139243e+03 
6.113500e-02 6.858184e+03 
6.225900e-02 6.619032e+03 
6.340100e-02 6.390883e+03 
6.480200e-02 6.131082e+03 
6.601100e-02 5.926294e+03 
6.725500e-02 5.733801e+03 
6.829100e-02 5.588658e+03 
6.958600e-02 5.422606e+03 
7.071100e-02 5.293272e+03 
7.192300e-02 5.167402e+03 
7.307400e-02 5.059522e+03 
7.412300e-02 4.969889e+03 
7.550400e-02 4.863693e+03 
7.663100e-02 4.784203e+03 
7.791200e-02 4.701427e+03 
7.912700e-02 4.627688e+03 
8.027600e-02 4.560387e+03 
8.138400e-02 4.496693e+03 
8.272200e-02 4.420010e+03 
8.406100e-02 4.342225e+03 
8.534100e-02 4.264674e+03 
8.653800e-02 4.188633e+03 
8.759800e-02 4.119319e+03 
8.900300e-02 4.023932e+03 
9.009000e-02 3.946959e+03 
9.113300e-02 3.870380e+03 
9.239600e-02 3.776552e+03 
9.358000e-02 3.686928e+03 
9.496100e-02 3.580832e+03 
9.608400e-02 3.495306e+03 
9.727500e-02 3.405927e+03 
9.852600e-02 3.313214e+03 
9.973800e-02 3.226503e+03 
1.009000e-01 3.146153e+03 
1.020900e-01 3.068190e+03 
1.034000e-01 2.986691e+03 
1.046000e-01 2.916080e+03 
1.057200e-01 2.855521e+03 
1.069100e-01 2.794399e+03 
1.082500e-01 2.731787e+03 
1.093900e-01 2.682807e+03 
1.105400e-01 2.636281e+03 
1.116900e-01 2.594624e+03 
1.129600e-01 2.551038e+03 
1.142000e-01 2.512506e+03 
1.153300e-01 2.479197e+03 
1.166400e-01 2.442989e+03 
1.177800e-01 2.412959e+03 
1.190000e-01 2.381917e+03 
1.201200e-01 2.353864e+03 
1.213400e-01 2.323984e+03 
1.227100e-01 2.289841e+03 
1.238900e-01 2.260704e+03 
1.250700e-01 2.230645e+03 
1.263200e-01 2.198803e+03 
1.275500e-01 2.166543e+03 
1.287500e-01 2.134911e+03 
1.299900e-01 2.101570e+03 
1.311300e-01 2.070834e+03 
1.323500e-01 2.037505e+03 
1.335900e-01 2.003831e+03 
1.347100e-01 1.973311e+03 
1.359800e-01 1.939167e+03 
1.372100e-01 1.906220e+03 
1.384300e-01 1.874203e+03 
1.395700e-01 1.844698e+03 
1.407700e-01 1.814347e+03 
1.420300e-01 1.783311e+03 
1.432800e-01 1.753250e+03 
1.444500e-01 1.726217e+03 
1.456300e-01 1.699544e+03 
1.468900e-01 1.672381e+03 
1.480500e-01 1.648120e+03 
1.491700e-01 1.625587e+03 
1.503800e-01 1.602269e+03 
1.516400e-01 1.578700e+03 
1.528200e-01 1.557929e+03 
1.540200e-01 1.537227e+03 
1.551900e-01 1.518193e+03 
1.564300e-01 1.498599e+03 
1.576600e-01 1.479866e+03 
1.588700e-01 1.462177e+03 
1.600900e-01 1.444702e+03 
1.612700e-01 1.428482e+03 
1.625400e-01 1.411356e+03 
1.637600e-01 1.395240e+03 
1.649500e-01 1.379823e+03 
1.662200e-01 1.363633e+03 
1.674000e-01 1.348636e+03 
1.685000e-01 1.334894e+03 
1.697500e-01 1.319318e+03 
1.710300e-01 1.303436e+03 
1.722200e-01 1.288939e+03 
1.734400e-01 1.273780e+03 
1.746400e-01 1.259112e+03 
1.758700e-01 1.244190e+03 
1.770900e-01 1.229340e+03 
1.782700e-01 1.215228e+03 
1.794600e-01 1.201047e+03 
1.807000e-01 1.186400e+03 
1.819100e-01 1.172360e+03 
1.830100e-01 1.159712e+03 
1.842200e-01 1.146013e+03 
1.855000e-01 1.131780e+03 
1.867000e-01 1.118730e+03 
1.879200e-01 1.105687e+03 
1.890900e-01 1.093421e+03 
1.902800e-01 1.081328e+03 
1.915200e-01 1.068935e+03 
1.926900e-01 1.057502e+03 
1.939000e-01 1.046093e+03 
1.951700e-01 1.034315e+03 
1.963100e-01 1.023982e+03 
1.975100e-01 1.013465e+03 
1.987800e-01 1.002513e+03 
2.000100e-01 9.921474e+02 
2.012500e-01 9.820291e+02 
2.023400e-01 9.732658e+02 
2.036100e-01 9.632352e+02 
2.048900e-01 9.533966e+02 
2.060400e-01 9.446902e+02 
2.072200e-01 9.358891e+02 
2.084200e-01 9.271227e+02 
2.096900e-01 9.179840e+02 
2.109200e-01 9.092667e+02 
2.121100e-01 9.009215e+02 
2.132700e-01 8.928993e+02 
2.145200e-01 8.843786e+02 
2.157200e-01 8.762648e+02 
2.168800e-01 8.685066e+02 
2.180700e-01 8.606574e+02 
2.193400e-01 8.523599e+02 
2.206000e-01 8.441730e+02 
2.217500e-01 8.368052e+02 
2.229500e-01 8.292213e+02 
2.241400e-01 8.216886e+02 
2.253500e-01 8.141316e+02 
2.264900e-01 8.071074e+02 
2.277100e-01 7.996378e+02 
2.289900e-01 7.918528e+02 
2.301500e-01 7.848948e+02 
2.313600e-01 7.777330e+02 
2.325600e-01 7.706392e+02 
2.337700e-01 7.635827e+02 
2.350000e-01 7.565069e+02 
2.362000e-01 7.496746e+02 
2.374100e-01 7.428511e+02 
2.386500e-01 7.359526e+02 
2.399100e-01 7.290386e+02 
2.410400e-01 7.229026e+02 
2.422500e-01 7.164135e+02 
2.435000e-01 7.097989e+02 
2.447300e-01 7.033829e+02 
2.458700e-01 6.975358e+02 
2.470600e-01 6.915078e+02 
2.483300e-01 6.851584e+02 
2.495600e-01 6.791137e+02 
2.507600e-01 6.733239e+02 
2.519600e-01 6.676065e+02 
2.532200e-01 6.616796e+02 
2.543700e-01 6.563884e+02 
2.555500e-01 6.510584e+02 
2.568000e-01 6.454819e+02 
2.580100e-01 6.401511e+02 
2.592400e-01 6.348668e+02 
2.604100e-01 6.299303e+02 
2.616100e-01 6.249268e+02 
2.628400e-01 6.198597e+02 
2.640600e-01 6.149580e+02 
2.652200e-01 6.103766e+02 
2.664300e-01 6.056525e+02 
2.676500e-01 6.009453e+02 
2.688400e-01 5.964548e+02 
2.700700e-01 5.918967e+02 
2.712400e-01 5.876103e+02 
2.724800e-01 5.831190e+02 
2.736700e-01 5.788860e+02 
2.748800e-01 5.746589e+02 
2.761000e-01 5.704448e+02 
2.773200e-01 5.662783e+02 
2.785400e-01 5.621701e+02 
2.797000e-01 5.583307e+02 
2.808900e-01 5.544341e+02 
2.821400e-01 5.503863e+02 
2.833900e-01 5.463848e+02 
2.845500e-01 5.427265e+02 
2.857800e-01 5.388890e+02 
2.870300e-01 5.350320e+02 
2.882100e-01 5.314303e+02 
2.893900e-01 5.278716e+02 
2.906300e-01 5.241748e+02 
2.918900e-01 5.204593e+02 
2.930500e-01 5.170749e+02 
2.942500e-01 5.136100e+02 
2.954200e-01 5.102679e+02 
2.966500e-01 5.067907e+02 
2.978900e-01 5.033223e+02 
2.990400e-01 5.001385e+02 
3.002700e-01 4.967671e+02 
3.015100e-01 4.934036e+02 
3.026800e-01 4.902622e+02 
3.038500e-01 4.871518e+02 
3.050300e-01 4.840456e+02 
3.062600e-01 4.808412e+02 
3.075000e-01 4.776439e+02 
3.087000e-01 4.745810e+02 
3.099100e-01 4.715233e+02 
3.111200e-01 4.684981e+02 
3.123100e-01 4.655556e+02 
3.135300e-01 4.625685e+02 
3.147300e-01 4.596594e+02 
3.159900e-01 4.566351e+02 
3.171800e-01 4.538122e+02 
3.183700e-01 4.510194e+02 
3.196300e-01 4.480914e+02 
3.208400e-01 4.453072e+02 
3.220300e-01 4.425952e+02 
3.232000e-01 4.399604e+02 
3.244300e-01 4.372193e+02 
3.256700e-01 4.344828e+02 
3.269200e-01 4.317510e+02 
3.280800e-01 4.292396e+02 
3.292500e-01 4.267394e+02 
3.304800e-01 4.241385e+02 
3.317100e-01 4.215621e+02 
3.328900e-01 4.191133e+02 
3.340700e-01 4.166866e+02 
3.353600e-01 4.140703e+02 
3.365300e-01 4.117240e+02 
3.377100e-01 4.093786e+02 
3.389200e-01 4.069951e+02 
3.401600e-01 4.045750e+02 
3.413700e-01 4.022464e+02 
3.425300e-01 4.000416e+02 
3.437700e-01 3.977057e+02 
3.449800e-01 3.954468e+02 
3.461800e-01 3.932265e+02 
3.473600e-01 3.910672e+02 
3.485800e-01 3.888663e+02 
3.498100e-01 3.866671e+02 
3.510200e-01 3.845228e+02 
3.522000e-01 3.824496e+02 
3.533900e-01 3.803767e+02 
3.546400e-01 3.782356e+02 
3.558400e-01 3.761990e+02 
3.570600e-01 3.741462e+02 
3.582700e-01 3.721277e+02 
3.595000e-01 3.700936e+02 
3.607100e-01 3.681190e+02 
3.618900e-01 3.662167e+02 
3.631200e-01 3.642505e+02 
3.643200e-01 3.623484e+02 
3.655500e-01 3.604151e+02 
3.667300e-01 3.585759e+02 
3.679500e-01 3.567073e+02 
3.691900e-01 3.548239e+02 
3.703600e-01 3.530615e+02 
3.715700e-01 3.512536e+02 
3.727700e-01 3.494753e+02 
3.739900e-01 3.476878e+02 
3.752000e-01 3.459397e+02 
3.763900e-01 3.442344e+02 
3.775800e-01 3.425426e+02 
3.788200e-01 3.407940e+02 
3.800300e-01 3.391016e+02 
3.812100e-01 3.374714e+02 
3.824200e-01 3.358178e+02 
3.836100e-01 3.342043e+02 
3.848600e-01 3.325230e+02 
3.860400e-01 3.309484e+02 
3.872400e-01 3.293595e+02 
3.884600e-01 3.277661e+02 
3.896500e-01 3.262275e+02 
3.908700e-01 3.246623e+02 
3.920600e-01 3.231473e+02 
3.933100e-01 3.215684e+02 
3.945300e-01 3.200395e+02 
3.957200e-01 3.185689e+02 
3.969300e-01 3.170875e+02 
3.981700e-01 3.155811e+02 
3.993500e-01 3.141585e+02 
4.094840e-01 3.023868e+02 
4.272360e-01 2.836531e+02 
4.454600e-01 2.664681e+02 
4.630560e-01 2.515358e+02 
4.804610e-01 2.381406e+02 
4.980690e-01 2.257932e+02 
5.159230e-01 2.143616e+02 
5.317440e-01 2.050430e+02 
5.489640e-01 1.956878e+02 
5.671990e-01 1.865911e+02 
5.838690e-01 1.789221e+02 
6.018840e-01 1.712709e+02 
6.202330e-01 1.640967e+02 
6.379250e-01 1.576926e+02 
6.545410e-01 1.521267e+02 
6.714560e-01 1.468371e+02 
6.892080e-01 1.416676e+02 
7.066010e-01 1.369526e+02 
7.240540e-01 1.325247e+02 
7.420450e-01 1.282656e+02 
7.593780e-01 1.244196e+02 
7.764720e-01 1.208482e+02 
7.942840e-01 1.173442e+02 
8.116170e-01 1.141330e+02 
8.288310e-01 1.111200e+02 
8.462240e-01 1.082341e+02 
8.631980e-01 1.055609e+02 
8.810700e-01 1.028859e+02 
8.989410e-01 1.003449e+02 
9.166330e-01 9.794821e+01 
9.345640e-01 9.563229e+01 
9.515980e-01 9.352971e+01 
9.688720e-01 9.148730e+01 
9.865640e-01 8.948207e+01 
1.031870e+00 8.470627e+01 
1.063490e+00 8.164387e+01 
1.097920e+00 7.853237e+01 
1.134370e+00 7.545948e+01 
1.167730e+00 7.282988e+01 
1.203830e+00 7.015279e+01 
1.240470e+00 6.760422e+01 
1.275790e+00 6.528765e+01 
1.309140e+00 6.322166e+01 
1.342970e+00 6.122705e+01 
1.378420e+00 5.924785e+01 
1.413200e+00 5.740065e+01 
1.448110e+00 5.563604e+01 
1.484090e+00 5.390763e+01 
1.518820e+00 5.231663e+01 
1.552880e+00 5.082309e+01 
1.588630e+00 4.932520e+01 
1.623230e+00 4.794046e+01 
1.657720e+00 4.661784e+01 
1.692450e+00 4.534185e+01 
1.726400e+00 4.414243e+01 
1.762200e+00 4.292868e+01 
1.797880e+00 4.176822e+01 
1.833270e+00 4.066288e+01 
1.869070e+00 3.958865e+01 
1.903200e+00 3.860289e+01 
1.937740e+00 3.764194e+01 
1.973190e+00 3.669153e+01 
2.007440e+00 3.580672e+01 
2.042160e+00 3.494102e+01 
2.077900e+00 3.408110e+01 
2.112390e+00 3.328075e+01 
2.146220e+00 3.252101e+01 
2.181600e+00 3.175250e+01 
2.216930e+00 3.101163e+01 
2.250760e+00 3.032544e+01 
2.286500e+00 2.962402e+01 
2.321770e+00 2.895470e+01 
2.355950e+00 2.832611e+01 
2.391280e+00 2.769605e+01 
2.426240e+00 2.709198e+01 
2.460670e+00 2.651566e+01 
2.495640e+00 2.594868e+01 
2.531080e+00 2.539001e+01 
2.566220e+00 2.485292e+01 
2.600830e+00 2.433975e+01 
2.635080e+00 2.384674e+01 
2.670340e+00 2.335295e+01 
2.705970e+00 2.286876e+01 
2.740040e+00 2.241915e+01 
2.774520e+00 2.197598e+01 
2.809730e+00 2.153585e+01 
2.844390e+00 2.111487e+01 
2.879960e+00 2.069443e+01 
2.914860e+00 2.029311e+01 
2.949410e+00 1.990674e+01 
2.984440e+00 1.952471e+01 
3.019760e+00 1.915001e+01 
3.054730e+00 1.878926e+01 
3.089030e+00 1.844346e+01 
3.124060e+00 1.809973e+01 
3.159560e+00 1.776048e+01 
3.194710e+00 1.743285e+01 
3.229010e+00 1.712151e+01 
3.263320e+00 1.681697e+01 
3.297930e+00 1.651767e+01 
3.332830e+00 1.622324e+01 
3.368040e+00 1.593329e+01 
3.403300e+00 1.565007e+01 
3.438450e+00 1.537427e+01 
3.473060e+00 1.510956e+01 
3.508440e+00 1.484501e+01 
3.543110e+00 1.459226e+01 
3.577470e+00 1.434712e+01 
3.613040e+00 1.409949e+01 
3.648120e+00 1.386077e+01 
3.682910e+00 1.362960e+01 
3.718050e+00 1.340132e+01 
3.753320e+00 1.317756e+01 
3.787980e+00 1.296260e+01 
3.822290e+00 1.275452e+01 
3.857020e+00 1.254835e+01 
3.891920e+00 1.234580e+01 
3.926650e+00 1.214849e+01 
3.961970e+00 1.195236e+01 
3.997360e+00 1.176008e+01 
4.031670e+00 1.157783e+01 
4.066330e+00 1.139747e+01 
4.101420e+00 1.121895e+01 
4.136200e+00 1.104554e+01 
4.170810e+00 1.087678e+01 
4.206250e+00 1.070741e+01 
4.241580e+00 1.054225e+01 
4.276300e+00 1.038326e+01 
4.310970e+00 1.022779e+01 
4.346120e+00 1.007347e+01 
4.380600e+00 9.925175e+00 
4.414730e+00 9.781424e+00 
4.450350e+00 9.634259e+00 
4.485320e+00 9.492822e+00 
4.519810e+00 9.356052e+00 
4.555430e+00 9.217651e+00 
4.590870e+00 9.082773e+00 
4.625480e+00 8.953661e+00 
4.659910e+00 8.827776e+00 
4.695230e+00 8.701075e+00 
4.729960e+00 8.578952e+00 
4.764450e+00 8.460005e+00 
4.799530e+00 8.341315e+00 
4.834910e+00 8.223965e+00 
4.869700e+00 8.110798e+00 
4.904370e+00 8.000177e+00 
4.939450e+00 7.890385e+00 
4.973940e+00 7.784482e+00 
5.008430e+00 7.680554e+00 
5.043810e+00 7.575896e+00 
5.078840e+00 7.474194e+00 
5.113500e+00 7.375427e+00 
5.148890e+00 7.276521e+00 
5.184210e+00 7.179644e+00 
5.219060e+00 7.085808e+00 
5.253660e+00 6.994329e+00 
5.288570e+00 6.903683e+00 
5.323420e+00 6.814848e+00 
5.358440e+00 6.727212e+00 
5.393590e+00 6.640810e+00 
5.428310e+00 6.557027e+00 
5.462800e+00 6.475270e+00 
5.497640e+00 6.394107e+00 
5.532670e+00 6.313963e+00 
5.567280e+00 6.236153e+00 
5.602000e+00 6.159417e+00 
5.637270e+00 6.082901e+00 
5.672410e+00 6.007989e+00 
5.707020e+00 5.935443e+00 
5.742040e+00 5.863336e+00 
5.777430e+00 5.791702e+00 
5.812210e+00 5.722470e+00 
5.846820e+00 5.654799e+00 
5.881610e+00 5.587906e+00 
5.916510e+00 5.521887e+00 
5.951600e+00 5.456678e+00 
5.986560e+00 5.392800e+00 
6.021830e+00 5.329389e+00 
6.056490e+00 5.268148e+00 
6.091160e+00 5.207920e+00 
6.125830e+00 5.148630e+00 
6.161090e+00 5.089326e+00 
6.195760e+00 5.032031e+00 
6.230420e+00 4.975632e+00 
6.265690e+00 4.919128e+00 
6.300950e+00 4.863646e+00 
6.335620e+00 4.809924e+00 
6.370880e+00 4.756115e+00 
6.405550e+00 4.704126e+00 
6.440220e+00 4.652961e+00 
6.475480e+00 4.601701e+00 
6.510150e+00 4.552085e+00 
6.544810e+00 4.503299e+00 
6.580080e+00 4.454382e+00 
6.614750e+00 4.407001e+00 
6.649410e+00 4.360492e+00 
6.684080e+00 4.314672e+00 
6.719340e+00 4.268742e+00 
6.754010e+00 4.224270e+00 
6.788680e+00 4.180525e+00 
6.823940e+00 4.136666e+00 
6.859800e+00 4.092701e+00 
6.894470e+00 4.050920e+00 
6.929140e+00 4.009763e+00 
6.963800e+00 3.969185e+00 
6.999070e+00 3.928472e+00 
7.033730e+00 3.889130e+00 
7.068400e+00 3.850312e+00 
7.103660e+00 3.811372e+00 
7.138330e+00 3.773665e+00 
7.173600e+00 3.735954e+00 
7.208260e+00 3.699392e+00 
7.243530e+00 3.662685e+00 
7.277600e+00 3.627783e+00 
7.312860e+00 3.592217e+00 
7.348120e+00 3.557123e+00 
7.382790e+00 3.523070e+00 
7.417460e+00 3.489550e+00 
7.452720e+00 3.455952e+00 
7.487390e+00 3.423343e+00 
7.522650e+00 3.390606e+00 
7.557320e+00 3.358937e+00 
7.591990e+00 3.327708e+00 
7.627250e+00 3.296351e+00 
7.662510e+00 3.265394e+00 
7.697180e+00 3.235447e+00 
7.731850e+00 3.205913e+00 
7.766510e+00 3.176753e+00 
7.801180e+00 3.147944e+00 
7.836440e+00 3.119112e+00 
7.871110e+00 3.091176e+00 
7.906380e+00 3.063104e+00 
7.941040e+00 3.035855e+00 
7.976310e+00 3.008520e+00 
8.011570e+00 2.981593e+00 
8.046240e+00 2.955435e+00 
8.080900e+00 2.929596e+00 
8.115570e+00 2.904083e+00 
8.150830e+00 2.878554e+00 
8.185500e+00 2.853749e+00 
8.220770e+00 2.828812e+00 
8.255430e+00 2.804594e+00 
8.290100e+00 2.780768e+00 
8.324770e+00 2.757231e+00 
8.359430e+00 2.733971e+00 
8.394700e+00 2.710574e+00 
8.429960e+00 2.687525e+00 
8.464630e+00 2.665191e+00 
8.499890e+00 2.642736e+00 
8.534560e+00 2.620907e+00 
8.569200e+00 2.599341e+00 
