# Parameters:
# omega_b = 0.021705, omega_m = 0.125512, n_s = 1.020079, h = 58.070866, w = -1.000000, sigma_8 = 0.809213
# z = 1.000000
#
# k[1/Mpc] # P(k):
8.694000e-04 7.332998e+03 
2.077466e-03 1.623068e+04 
3.285532e-03 2.329711e+04 
4.493598e-03 2.872726e+04 
5.701664e-03 3.274400e+04 
6.909730e-03 3.555552e+04 
8.117797e-03 3.741291e+04 
9.325863e-03 3.844829e+04 
1.053393e-02 3.880208e+04 
1.174199e-02 3.860878e+04 
1.295006e-02 3.795140e+04 
1.415813e-02 3.694229e+04 
1.536619e-02 3.568210e+04 
1.657426e-02 3.425611e+04 
1.778233e-02 3.282566e+04 
1.899039e-02 3.154395e+04 
2.019846e-02 3.026135e+04 
2.140652e-02 2.889257e+04 
2.261459e-02 2.751272e+04 
2.382266e-02 2.619390e+04 
2.503072e-02 2.496287e+04 
2.623879e-02 2.382618e+04 
2.744685e-02 2.278663e+04 
2.865492e-02 2.184416e+04 
2.986299e-02 2.099400e+04 
3.100100e-02 2.027396e+04 
3.220400e-02 1.959053e+04 
3.288100e-02 1.923904e+04 
3.424300e-02 1.859457e+04 
3.555100e-02 1.804124e+04 
3.686000e-02 1.754213e+04 
3.795000e-02 1.715927e+04 
3.929100e-02 1.672037e+04 
4.039800e-02 1.637674e+04 
4.164000e-02 1.600505e+04 
4.294400e-02 1.561910e+04 
4.415000e-02 1.526743e+04 
4.542900e-02 1.488763e+04 
4.660900e-02 1.453687e+04 
4.782300e-02 1.416225e+04 
4.892900e-02 1.381844e+04 
5.031200e-02 1.338067e+04 
5.155900e-02 1.297862e+04 
5.238100e-02 1.271208e+04 
5.378200e-02 1.225736e+04 
5.513400e-02 1.181924e+04 
5.627600e-02 1.145273e+04 
5.735300e-02 1.111304e+04 
5.870100e-02 1.069847e+04 
5.988700e-02 1.034642e+04 
6.113500e-02 9.990132e+03 
6.225900e-02 9.683349e+03 
6.340100e-02 9.387032e+03 
6.480200e-02 9.045128e+03 
6.601100e-02 8.770740e+03 
6.725500e-02 8.508819e+03 
6.829100e-02 8.307993e+03 
6.958600e-02 8.075409e+03 
7.071100e-02 7.891652e+03 
7.192300e-02 7.710895e+03 
7.307400e-02 7.554646e+03 
7.412300e-02 7.424170e+03 
7.550400e-02 7.269268e+03 
7.663100e-02 7.153556e+03 
7.791200e-02 7.034236e+03 
7.912700e-02 6.929612e+03 
8.027600e-02 6.835548e+03 
8.138400e-02 6.747745e+03 
8.272200e-02 6.643602e+03 
8.406100e-02 6.539268e+03 
8.534100e-02 6.436078e+03 
8.653800e-02 6.334929e+03 
8.759800e-02 6.242475e+03 
8.900300e-02 6.114585e+03 
9.009000e-02 6.010596e+03 
9.113300e-02 5.906281e+03 
9.239600e-02 5.777703e+03 
9.358000e-02 5.654003e+03 
9.496100e-02 5.506532e+03 
9.608400e-02 5.387148e+03 
9.727500e-02 5.261983e+03 
9.852600e-02 5.131824e+03 
9.973800e-02 5.009938e+03 
1.009000e-01 4.896855e+03 
1.020900e-01 4.787166e+03 
1.034000e-01 4.672400e+03 
1.046000e-01 4.572895e+03 
1.057200e-01 4.487402e+03 
1.069100e-01 4.400941e+03 
1.082500e-01 4.311977e+03 
1.093900e-01 4.241960e+03 
1.105400e-01 4.175189e+03 
1.116900e-01 4.114655e+03 
1.129600e-01 4.050997e+03 
1.142000e-01 3.993870e+03 
1.153300e-01 3.944127e+03 
1.166400e-01 3.889495e+03 
1.177800e-01 3.843742e+03 
1.190000e-01 3.796238e+03 
1.201200e-01 3.753046e+03 
1.213400e-01 3.706996e+03 
1.227100e-01 3.654471e+03 
1.238900e-01 3.609740e+03 
1.250700e-01 3.563928e+03 
1.263200e-01 3.515599e+03 
1.275500e-01 3.467079e+03 
1.287500e-01 3.419805e+03 
1.299900e-01 3.370444e+03 
1.311300e-01 3.325241e+03 
1.323500e-01 3.276669e+03 
1.335900e-01 3.227881e+03 
1.347100e-01 3.184041e+03 
1.359800e-01 3.135190e+03 
1.372100e-01 3.088469e+03 
1.384300e-01 3.043154e+03 
1.395700e-01 3.001670e+03 
1.407700e-01 2.958969e+03 
1.420300e-01 2.915510e+03 
1.432800e-01 2.873361e+03 
1.444500e-01 2.835406e+03 
1.456300e-01 2.797913e+03 
1.468900e-01 2.759449e+03 
1.480500e-01 2.724986e+03 
1.491700e-01 2.692721e+03 
1.503800e-01 2.659011e+03 
1.516400e-01 2.624772e+03 
1.528200e-01 2.593982e+03 
1.540200e-01 2.563275e+03 
1.551900e-01 2.534423e+03 
1.564300e-01 2.504557e+03 
1.576600e-01 2.475699e+03 
1.588700e-01 2.448080e+03 
1.600900e-01 2.420767e+03 
1.612700e-01 2.395000e+03 
1.625400e-01 2.367787e+03 
1.637600e-01 2.342107e+03 
1.649500e-01 2.317493e+03 
1.662200e-01 2.291674e+03 
1.674000e-01 2.267936e+03 
1.685000e-01 2.246179e+03 
1.697500e-01 2.221722e+03 
1.710300e-01 2.196981e+03 
1.722200e-01 2.174391e+03 
1.734400e-01 2.151259e+03 
1.746400e-01 2.128885e+03 
1.758700e-01 2.106259e+03 
1.770900e-01 2.084026e+03 
1.782700e-01 2.062884e+03 
1.794600e-01 2.041820e+03 
1.807000e-01 2.020175e+03 
1.819100e-01 1.999411e+03 
1.830100e-01 1.980807e+03 
1.842200e-01 1.960660e+03 
1.855000e-01 1.939711e+03 
1.867000e-01 1.920485e+03 
1.879200e-01 1.901255e+03 
1.890900e-01 1.883137e+03 
1.902800e-01 1.865153e+03 
1.915200e-01 1.846711e+03 
1.926900e-01 1.829642e+03 
1.939000e-01 1.812455e+03 
1.951700e-01 1.794701e+03 
1.963100e-01 1.779063e+03 
1.975100e-01 1.762988e+03 
1.987800e-01 1.746238e+03 
2.000100e-01 1.730330e+03 
2.012500e-01 1.714680e+03 
2.023400e-01 1.701121e+03 
2.036100e-01 1.685570e+03 
2.048900e-01 1.670216e+03 
2.060400e-01 1.656624e+03 
2.072200e-01 1.642875e+03 
2.084200e-01 1.629119e+03 
2.096900e-01 1.614773e+03 
2.109200e-01 1.601084e+03 
2.121100e-01 1.587939e+03 
2.132700e-01 1.575296e+03 
2.145200e-01 1.561862e+03 
2.157200e-01 1.549041e+03 
2.168800e-01 1.536767e+03 
2.180700e-01 1.524343e+03 
2.193400e-01 1.511171e+03 
2.206000e-01 1.498105e+03 
2.217500e-01 1.486341e+03 
2.229500e-01 1.474229e+03 
2.241400e-01 1.462062e+03 
2.253500e-01 1.449849e+03 
2.264900e-01 1.438492e+03 
2.277100e-01 1.426306e+03 
2.289900e-01 1.413486e+03 
2.301500e-01 1.402024e+03 
2.313600e-01 1.390220e+03 
2.325600e-01 1.378277e+03 
2.337700e-01 1.366394e+03 
2.350000e-01 1.354476e+03 
2.362000e-01 1.342849e+03 
2.374100e-01 1.331099e+03 
2.386500e-01 1.319217e+03 
2.399100e-01 1.307307e+03 
2.410400e-01 1.296557e+03 
2.422500e-01 1.285165e+03 
2.435000e-01 1.273552e+03 
2.447300e-01 1.262261e+03 
2.458700e-01 1.251863e+03 
2.470600e-01 1.241144e+03 
2.483300e-01 1.229853e+03 
2.495600e-01 1.219087e+03 
2.507600e-01 1.208752e+03 
2.519600e-01 1.198546e+03 
2.532200e-01 1.187965e+03 
2.543700e-01 1.178554e+03 
2.555500e-01 1.169096e+03 
2.568000e-01 1.159201e+03 
2.580100e-01 1.149740e+03 
2.592400e-01 1.140451e+03 
2.604100e-01 1.131812e+03 
2.616100e-01 1.123055e+03 
2.628400e-01 1.114185e+03 
2.640600e-01 1.105727e+03 
2.652200e-01 1.097869e+03 
2.664300e-01 1.089765e+03 
2.676500e-01 1.081688e+03 
2.688400e-01 1.074091e+03 
2.700700e-01 1.066447e+03 
2.712400e-01 1.059256e+03 
2.724800e-01 1.051721e+03 
2.736700e-01 1.044694e+03 
2.748800e-01 1.037754e+03 
2.761000e-01 1.030834e+03 
2.773200e-01 1.023990e+03 
2.785400e-01 1.017279e+03 
2.797000e-01 1.011089e+03 
2.808900e-01 1.004806e+03 
2.821400e-01 9.982758e+02 
2.833900e-01 9.918226e+02 
2.845500e-01 9.860046e+02 
2.857800e-01 9.798994e+02 
2.870300e-01 9.737614e+02 
2.882100e-01 9.680276e+02 
2.893900e-01 9.623992e+02 
2.906300e-01 9.565709e+02 
2.918900e-01 9.507113e+02 
2.930500e-01 9.453718e+02 
2.942500e-01 9.399115e+02 
2.954200e-01 9.346674e+02 
2.966500e-01 9.292095e+02 
2.978900e-01 9.237636e+02 
2.990400e-01 9.187629e+02 
3.002700e-01 9.134787e+02 
3.015100e-01 9.082113e+02 
3.026800e-01 9.032900e+02 
3.038500e-01 8.984156e+02 
3.050300e-01 8.935465e+02 
3.062600e-01 8.885291e+02 
3.075000e-01 8.835211e+02 
3.087000e-01 8.787219e+02 
3.099100e-01 8.739292e+02 
3.111200e-01 8.691857e+02 
3.123100e-01 8.645704e+02 
3.135300e-01 8.598836e+02 
3.147300e-01 8.553174e+02 
3.159900e-01 8.505689e+02 
3.171800e-01 8.461322e+02 
3.183700e-01 8.417399e+02 
3.196300e-01 8.371331e+02 
3.208400e-01 8.327511e+02 
3.220300e-01 8.284812e+02 
3.232000e-01 8.243258e+02 
3.244300e-01 8.199990e+02 
3.256700e-01 8.156779e+02 
3.269200e-01 8.113628e+02 
3.280800e-01 8.073946e+02 
3.292500e-01 8.034373e+02 
3.304800e-01 7.993176e+02 
3.317100e-01 7.952354e+02 
3.328900e-01 7.913542e+02 
3.340700e-01 7.875067e+02 
3.353600e-01 7.833487e+02 
3.365300e-01 7.796152e+02 
3.377100e-01 7.758821e+02 
3.389200e-01 7.720873e+02 
3.401600e-01 7.682329e+02 
3.413700e-01 7.645168e+02 
3.425300e-01 7.609929e+02 
3.437700e-01 7.572583e+02 
3.449800e-01 7.536460e+02 
3.461800e-01 7.500941e+02 
3.473600e-01 7.466357e+02 
3.485800e-01 7.431020e+02 
3.498100e-01 7.395701e+02 
3.510200e-01 7.361252e+02 
3.522000e-01 7.327939e+02 
3.533900e-01 7.294620e+02 
3.546400e-01 7.260089e+02 
3.558400e-01 7.227231e+02 
3.570600e-01 7.194102e+02 
3.582700e-01 7.161520e+02 
3.595000e-01 7.128675e+02 
3.607100e-01 7.096726e+02 
3.618900e-01 7.065897e+02 
3.631200e-01 7.034023e+02 
3.643200e-01 7.003181e+02 
3.655500e-01 6.971826e+02 
3.667300e-01 6.941988e+02 
3.679500e-01 6.911573e+02 
3.691900e-01 6.880912e+02 
3.703600e-01 6.852213e+02 
3.715700e-01 6.822766e+02 
3.727700e-01 6.793794e+02 
3.739900e-01 6.764638e+02 
3.752000e-01 6.736068e+02 
3.763900e-01 6.708191e+02 
3.775800e-01 6.680528e+02 
3.788200e-01 6.651931e+02 
3.800300e-01 6.624245e+02 
3.812100e-01 6.597525e+02 
3.824200e-01 6.570384e+02 
3.836100e-01 6.543896e+02 
3.848600e-01 6.516289e+02 
3.860400e-01 6.490429e+02 
3.872400e-01 6.464329e+02 
3.884600e-01 6.438093e+02 
3.896500e-01 6.412732e+02 
3.908700e-01 6.386929e+02 
3.920600e-01 6.361950e+02 
3.933100e-01 6.335910e+02 
3.945300e-01 6.310691e+02 
3.957200e-01 6.286386e+02 
3.969300e-01 6.261886e+02 
3.981700e-01 6.236969e+02 
3.993500e-01 6.213433e+02 
4.094840e-01 6.018073e+02 
4.272360e-01 5.705069e+02 
4.454600e-01 5.415510e+02 
4.630560e-01 5.161832e+02 
4.804610e-01 4.932488e+02 
4.980690e-01 4.719554e+02 
5.159230e-01 4.521039e+02 
5.317440e-01 4.358236e+02 
5.489640e-01 4.193798e+02 
5.671990e-01 4.033049e+02 
5.838690e-01 3.896844e+02 
6.018840e-01 3.760100e+02 
6.202330e-01 3.631093e+02 
6.379250e-01 3.515520e+02 
6.545410e-01 3.414392e+02 
6.714560e-01 3.317693e+02 
6.892080e-01 3.222817e+02 
7.066010e-01 3.135548e+02 
7.240540e-01 3.053267e+02 
7.420450e-01 2.973342e+02 
7.593780e-01 2.900603e+02 
7.764720e-01 2.832576e+02 
7.942840e-01 2.765374e+02 
8.116170e-01 2.703127e+02 
8.288310e-01 2.644144e+02 
8.462240e-01 2.587139e+02 
8.631980e-01 2.533772e+02 
8.810700e-01 2.479929e+02 
8.989410e-01 2.428268e+02 
9.166330e-01 2.379051e+02 
9.345640e-01 2.331033e+02 
9.515980e-01 2.286920e+02 
9.688720e-01 2.243647e+02 
9.865640e-01 2.200683e+02 
1.031870e+00 2.096809e+02 
1.063490e+00 2.028769e+02 
1.097920e+00 1.958515e+02 
1.134370e+00 1.888005e+02 
1.167730e+00 1.826701e+02 
1.203830e+00 1.763361e+02 
1.240470e+00 1.702332e+02 
1.275790e+00 1.646033e+02 
1.309140e+00 1.595467e+02 
1.342970e+00 1.546032e+02 
1.378420e+00 1.496597e+02 
1.413200e+00 1.450056e+02 
1.448110e+00 1.405288e+02 
1.484090e+00 1.361140e+02 
1.518820e+00 1.320272e+02 
1.552880e+00 1.281700e+02 
1.588630e+00 1.242869e+02 
1.623230e+00 1.206786e+02 
1.657720e+00 1.172219e+02 
1.692450e+00 1.138804e+02 
1.726400e+00 1.107262e+02 
1.762200e+00 1.075241e+02 
1.797880e+00 1.044625e+02 
1.833270e+00 1.015363e+02 
1.869070e+00 9.868768e+01 
1.903200e+00 9.607586e+01 
1.937740e+00 9.352601e+01 
1.973190e+00 9.099937e+01 
2.007440e+00 8.864783e+01 
2.042160e+00 8.634923e+01 
2.077900e+00 8.406237e+01 
2.112390e+00 8.193744e+01 
2.146220e+00 7.991649e+01 
2.181600e+00 7.787625e+01 
2.216930e+00 7.591017e+01 
2.250760e+00 7.408971e+01 
2.286500e+00 7.222957e+01 
2.321770e+00 7.045587e+01 
2.355950e+00 6.879347e+01 
2.391280e+00 6.712820e+01 
2.426240e+00 6.553478e+01 
2.460670e+00 6.401639e+01 
2.495640e+00 6.252330e+01 
2.531080e+00 6.105348e+01 
2.566220e+00 5.964326e+01 
2.600830e+00 5.829853e+01 
2.635080e+00 5.700917e+01 
2.670340e+00 5.572095e+01 
2.705970e+00 5.445892e+01 
2.740040e+00 5.328800e+01 
2.774520e+00 5.213479e+01 
2.809730e+00 5.099350e+01 
2.844390e+00 4.990437e+01 
2.879960e+00 4.881898e+01 
2.914860e+00 4.778401e+01 
2.949410e+00 4.678922e+01 
2.984440e+00 4.580925e+01 
3.019760e+00 4.484886e+01 
3.054730e+00 4.392520e+01 
3.089030e+00 4.304374e+01 
3.124060e+00 4.216831e+01 
3.159560e+00 4.130505e+01 
3.194710e+00 4.047437e+01 
3.229010e+00 3.968648e+01 
3.263320e+00 3.891904e+01 
3.297930e+00 3.816536e+01 
3.332830e+00 3.742438e+01 
3.368040e+00 3.669697e+01 
3.403300e+00 3.598821e+01 
3.438450e+00 3.530043e+01 
3.473060e+00 3.464126e+01 
3.508440e+00 3.398405e+01 
3.543110e+00 3.335697e+01 
3.577470e+00 3.275110e+01 
3.613040e+00 3.213982e+01 
3.648120e+00 3.155162e+01 
3.682910e+00 3.098313e+01 
3.718050e+00 3.042341e+01 
3.753320e+00 2.987585e+01 
3.787980e+00 2.935121e+01 
3.822290e+00 2.884442e+01 
3.857020e+00 2.834369e+01 
3.891920e+00 2.785260e+01 
3.926650e+00 2.737549e+01 
3.961970e+00 2.690201e+01 
3.997360e+00 2.643924e+01 
4.031670e+00 2.600113e+01 
4.066330e+00 2.556882e+01 
4.101420e+00 2.514126e+01 
4.136200e+00 2.472742e+01 
4.170810e+00 2.432492e+01 
4.206250e+00 2.392209e+01 
4.241580e+00 2.352964e+01 
4.276300e+00 2.315302e+01 
4.310970e+00 2.278545e+01 
4.346120e+00 2.242122e+01 
4.380600e+00 2.207210e+01 
4.414730e+00 2.173388e+01 
4.450350e+00 2.138901e+01 
4.485320e+00 2.105772e+01 
4.519810e+00 2.073825e+01 
4.555430e+00 2.041544e+01 
4.590870e+00 2.010132e+01 
4.625480e+00 1.980145e+01 
4.659910e+00 1.950920e+01 
4.695230e+00 1.921601e+01 
4.729960e+00 1.893366e+01 
4.764450e+00 1.865911e+01 
4.799530e+00 1.838586e+01 
4.834910e+00 1.811580e+01 
4.869700e+00 1.785613e+01 
4.904370e+00 1.760251e+01 
4.939450e+00 1.735110e+01 
4.973940e+00 1.710927e+01 
5.008430e+00 1.687203e+01 
5.043810e+00 1.663368e+01 
5.078840e+00 1.640241e+01 
5.113500e+00 1.617789e+01 
5.148890e+00 1.595377e+01 
5.184210e+00 1.573433e+01 
5.219060e+00 1.552201e+01 
5.253660e+00 1.531556e+01 
5.288570e+00 1.511104e+01 
5.323420e+00 1.491091e+01 
5.358440e+00 1.471381e+01 
5.393590e+00 1.451954e+01 
5.428310e+00 1.433156e+01 
5.462800e+00 1.414837e+01 
5.497640e+00 1.396654e+01 
5.532670e+00 1.378741e+01 
5.567280e+00 1.361364e+01 
5.602000e+00 1.344231e+01 
5.637270e+00 1.327183e+01 
5.672410e+00 1.310503e+01 
5.707020e+00 1.294352e+01 
5.742040e+00 1.278337e+01 
5.777430e+00 1.262438e+01 
5.812210e+00 1.247073e+01 
5.846820e+00 1.232084e+01 
5.881610e+00 1.217275e+01 
5.916510e+00 1.202661e+01 
5.951600e+00 1.188251e+01 
5.986560e+00 1.174147e+01 
6.021830e+00 1.160148e+01 
6.056490e+00 1.146644e+01 
6.091160e+00 1.133378e+01 
6.125830e+00 1.120319e+01 
6.161090e+00 1.107266e+01 
6.195760e+00 1.094672e+01 
6.230420e+00 1.082275e+01 
6.265690e+00 1.069857e+01 
6.300950e+00 1.057687e+01 
6.335620e+00 1.045903e+01 
6.370880e+00 1.034101e+01 
6.405550e+00 1.022711e+01 
6.440220e+00 1.011505e+01 
6.475480e+00 1.000280e+01 
6.510150e+00 9.894206e+00 
6.544810e+00 9.787542e+00 
6.580080e+00 9.680599e+00 
6.614750e+00 9.577017e+00 
6.649410e+00 9.475434e+00 
6.684080e+00 9.375375e+00 
6.719340e+00 9.275081e+00 
6.754010e+00 9.177998e+00 
6.788680e+00 9.082565e+00 
6.823940e+00 8.986886e+00 
6.859800e+00 8.890978e+00 
6.894470e+00 8.799883e+00 
6.929140e+00 8.710167e+00 
6.963800e+00 8.621714e+00 
6.999070e+00 8.532974e+00 
7.033730e+00 8.447292e+00 
7.068400e+00 8.362751e+00 
7.103660e+00 8.277945e+00 
7.138330e+00 8.195830e+00 
7.173600e+00 8.113709e+00 
7.208260e+00 8.034094e+00 
7.243530e+00 7.954163e+00 
7.277600e+00 7.878172e+00 
7.312860e+00 7.800745e+00 
7.348120e+00 7.724348e+00 
7.382790e+00 7.650216e+00 
7.417460e+00 7.577242e+00 
7.452720e+00 7.504093e+00 
7.487390e+00 7.433101e+00 
7.522650e+00 7.361832e+00 
7.557320e+00 7.292867e+00 
7.591990e+00 7.224855e+00 
7.627250e+00 7.156566e+00 
7.662510e+00 7.089149e+00 
7.697180e+00 7.023920e+00 
7.731850e+00 6.959587e+00 
7.766510e+00 6.896071e+00 
7.801180e+00 6.833320e+00 
7.836440e+00 6.770485e+00 
7.871110e+00 6.709585e+00 
7.906380e+00 6.648391e+00 
7.941040e+00 6.588990e+00 
7.976310e+00 6.529377e+00 
8.011570e+00 6.470624e+00 
8.046240e+00 6.413552e+00 
8.080900e+00 6.357175e+00 
8.115570e+00 6.301503e+00 
8.150830e+00 6.245750e+00 
8.185500e+00 6.191580e+00 
8.220770e+00 6.137125e+00 
8.255430e+00 6.084241e+00 
8.290100e+00 6.032157e+00 
8.324770e+00 5.980699e+00 
8.359430e+00 5.929848e+00 
8.394700e+00 5.878702e+00 
8.429960e+00 5.828278e+00 
8.464630e+00 5.779381e+00 
8.499890e+00 5.730221e+00 
8.534560e+00 5.682433e+00 
8.569200e+00 5.635225e+00 
