# Parameters:
# omega_b = 0.022728, omega_m = 0.120827, n_s = 1.012205, h = 59.251969, w = -1.000000, sigma_8 = 0.740394
# z = 1.000000
#
# k[1/Mpc] # P(k):
8.694000e-04 7.432127e+03 
2.077466e-03 1.625457e+04 
3.285532e-03 2.313054e+04 
4.493598e-03 2.831427e+04 
5.701664e-03 3.205228e+04 
6.909730e-03 3.458031e+04 
8.117797e-03 3.616786e+04 
9.325863e-03 3.695548e+04 
1.053393e-02 3.708685e+04 
1.174199e-02 3.669613e+04 
1.295006e-02 3.586819e+04 
1.415813e-02 3.471599e+04 
1.536619e-02 3.333891e+04 
1.657426e-02 3.182096e+04 
1.778233e-02 3.031715e+04 
1.899039e-02 2.898069e+04 
2.019846e-02 2.767195e+04 
2.140652e-02 2.630282e+04 
2.261459e-02 2.494102e+04 
2.382266e-02 2.365325e+04 
2.503072e-02 2.246252e+04 
2.623879e-02 2.137297e+04 
2.744685e-02 2.038620e+04 
2.865492e-02 1.949914e+04 
2.986299e-02 1.870543e+04 
3.100100e-02 1.803880e+04 
3.220400e-02 1.741074e+04 
3.288100e-02 1.708984e+04 
3.424300e-02 1.650449e+04 
3.555100e-02 1.600464e+04 
3.686000e-02 1.555552e+04 
3.795000e-02 1.521152e+04 
3.929100e-02 1.481685e+04 
4.039800e-02 1.450682e+04 
4.164000e-02 1.417012e+04 
4.294400e-02 1.381766e+04 
4.415000e-02 1.349460e+04 
4.542900e-02 1.314286e+04 
4.660900e-02 1.281647e+04 
4.782300e-02 1.246564e+04 
4.892900e-02 1.214280e+04 
5.031200e-02 1.173077e+04 
5.155900e-02 1.135203e+04 
5.238100e-02 1.110107e+04 
5.378200e-02 1.067355e+04 
5.513400e-02 1.026298e+04 
5.627600e-02 9.921018e+03 
5.735300e-02 9.605536e+03 
5.870100e-02 9.222805e+03 
5.988700e-02 8.900058e+03 
6.113500e-02 8.575880e+03 
6.225900e-02 8.299134e+03 
6.340100e-02 8.034134e+03 
6.480200e-02 7.731048e+03 
6.601100e-02 7.490733e+03 
6.725500e-02 7.263736e+03 
6.829100e-02 7.091734e+03 
6.958600e-02 6.894244e+03 
7.071100e-02 6.739914e+03 
7.192300e-02 6.589440e+03 
7.307400e-02 6.460385e+03 
7.412300e-02 6.353227e+03 
7.550400e-02 6.226571e+03 
7.663100e-02 6.132028e+03 
7.791200e-02 6.034082e+03 
7.912700e-02 5.947183e+03 
8.027600e-02 5.867965e+03 
8.138400e-02 5.792928e+03 
8.272200e-02 5.702274e+03 
8.406100e-02 5.609697e+03 
8.534100e-02 5.516344e+03 
8.653800e-02 5.423709e+03 
8.759800e-02 5.338552e+03 
8.900300e-02 5.220246e+03 
9.009000e-02 5.123890e+03 
9.113300e-02 5.027372e+03 
9.239600e-02 4.908653e+03 
9.358000e-02 4.794849e+03 
9.496100e-02 4.659967e+03 
9.608400e-02 4.551330e+03 
9.727500e-02 4.437904e+03 
9.852600e-02 4.321031e+03 
9.973800e-02 4.212167e+03 
1.009000e-01 4.111647e+03 
1.020900e-01 4.015268e+03 
1.034000e-01 3.915012e+03 
1.046000e-01 3.828693e+03 
1.057200e-01 3.755532e+03 
1.069100e-01 3.681929e+03 
1.082500e-01 3.607273e+03 
1.093900e-01 3.549162e+03 
1.105400e-01 3.494132e+03 
1.116900e-01 3.445034e+03 
1.129600e-01 3.393639e+03 
1.142000e-01 3.348023e+03 
1.153300e-01 3.308360e+03 
1.166400e-01 3.264889e+03 
1.177800e-01 3.228263e+03 
1.190000e-01 3.190130e+03 
1.201200e-01 3.154802e+03 
1.213400e-01 3.117021e+03 
1.227100e-01 3.072686e+03 
1.238900e-01 3.034660e+03 
1.250700e-01 2.994853e+03 
1.263200e-01 2.952556e+03 
1.275500e-01 2.909428e+03 
1.287500e-01 2.867147e+03 
1.299900e-01 2.822595e+03 
1.311300e-01 2.781682e+03 
1.323500e-01 2.737549e+03 
1.335900e-01 2.693244e+03 
1.347100e-01 2.653456e+03 
1.359800e-01 2.609232e+03 
1.372100e-01 2.567136e+03 
1.384300e-01 2.526459e+03 
1.395700e-01 2.489545e+03 
1.407700e-01 2.451619e+03 
1.420300e-01 2.413546e+03 
1.432800e-01 2.376637e+03 
1.444500e-01 2.343952e+03 
1.456300e-01 2.311674e+03 
1.468900e-01 2.278937e+03 
1.480500e-01 2.249723e+03 
1.491700e-01 2.222532e+03 
1.503800e-01 2.194328e+03 
1.516400e-01 2.165728e+03 
1.528200e-01 2.140206e+03 
1.540200e-01 2.114753e+03 
1.551900e-01 2.090917e+03 
1.564300e-01 2.066263e+03 
1.576600e-01 2.042429e+03 
1.588700e-01 2.019603e+03 
1.600900e-01 1.997023e+03 
1.612700e-01 1.975593e+03 
1.625400e-01 1.952961e+03 
1.637600e-01 1.931477e+03 
1.649500e-01 1.910813e+03 
1.662200e-01 1.889102e+03 
1.674000e-01 1.868934e+03 
1.685000e-01 1.850452e+03 
1.697500e-01 1.829565e+03 
1.710300e-01 1.808325e+03 
1.722200e-01 1.788935e+03 
1.734400e-01 1.768904e+03 
1.746400e-01 1.749526e+03 
1.758700e-01 1.729900e+03 
1.770900e-01 1.710550e+03 
1.782700e-01 1.692155e+03 
1.794600e-01 1.673813e+03 
1.807000e-01 1.654959e+03 
1.819100e-01 1.636877e+03 
1.830100e-01 1.620717e+03 
1.842200e-01 1.603229e+03 
1.855000e-01 1.585053e+03 
1.867000e-01 1.568469e+03 
1.879200e-01 1.551885e+03 
1.890900e-01 1.536282e+03 
1.902800e-01 1.520900e+03 
1.915200e-01 1.505129e+03 
1.926900e-01 1.490563e+03 
1.939000e-01 1.475987e+03 
1.951700e-01 1.460934e+03 
1.963100e-01 1.447701e+03 
1.975100e-01 1.434168e+03 
1.987800e-01 1.420068e+03 
2.000100e-01 1.406694e+03 
2.012500e-01 1.393574e+03 
2.023400e-01 1.382208e+03 
2.036100e-01 1.369175e+03 
2.048900e-01 1.356316e+03 
2.060400e-01 1.344934e+03 
2.072200e-01 1.333419e+03 
2.084200e-01 1.321876e+03 
2.096900e-01 1.309840e+03 
2.109200e-01 1.298355e+03 
2.121100e-01 1.287287e+03 
2.132700e-01 1.276640e+03 
2.145200e-01 1.265329e+03 
2.157200e-01 1.254501e+03 
2.168800e-01 1.244120e+03 
2.180700e-01 1.233615e+03 
2.193400e-01 1.222466e+03 
2.206000e-01 1.211385e+03 
2.217500e-01 1.201411e+03 
2.229500e-01 1.191142e+03 
2.241400e-01 1.180807e+03 
2.253500e-01 1.170433e+03 
2.264900e-01 1.160789e+03 
2.277100e-01 1.150444e+03 
2.289900e-01 1.139566e+03 
2.301500e-01 1.129842e+03 
2.313600e-01 1.119830e+03 
2.325600e-01 1.109721e+03 
2.337700e-01 1.099665e+03 
2.350000e-01 1.089581e+03 
2.362000e-01 1.079759e+03 
2.374100e-01 1.069850e+03 
2.386500e-01 1.059833e+03 
2.399100e-01 1.049793e+03 
2.410400e-01 1.040761e+03 
2.422500e-01 1.031195e+03 
2.435000e-01 1.021446e+03 
2.447300e-01 1.011973e+03 
2.458700e-01 1.003274e+03 
2.470600e-01 9.943076e+02 
2.483300e-01 9.848645e+02 
2.495600e-01 9.758709e+02 
2.507600e-01 9.672506e+02 
2.519600e-01 9.587395e+02 
2.532200e-01 9.499182e+02 
2.543700e-01 9.420781e+02 
2.555500e-01 9.342049e+02 
2.568000e-01 9.259688e+02 
2.580100e-01 9.180964e+02 
2.592400e-01 9.103686e+02 
2.604100e-01 9.031834e+02 
2.616100e-01 8.959009e+02 
2.628400e-01 8.885265e+02 
2.640600e-01 8.814906e+02 
2.652200e-01 8.749536e+02 
2.664300e-01 8.682130e+02 
2.676500e-01 8.614962e+02 
2.688400e-01 8.551721e+02 
2.700700e-01 8.488050e+02 
2.712400e-01 8.428169e+02 
2.724800e-01 8.365421e+02 
2.736700e-01 8.306854e+02 
2.748800e-01 8.248958e+02 
2.761000e-01 8.191233e+02 
2.773200e-01 8.134150e+02 
2.785400e-01 8.078148e+02 
2.797000e-01 8.026408e+02 
2.808900e-01 7.973888e+02 
2.821400e-01 7.919320e+02 
2.833900e-01 7.865393e+02 
2.845500e-01 7.816671e+02 
2.857800e-01 7.765550e+02 
2.870300e-01 7.714160e+02 
2.882100e-01 7.666160e+02 
2.893900e-01 7.618987e+02 
2.906300e-01 7.570112e+02 
2.918900e-01 7.520980e+02 
2.930500e-01 7.476214e+02 
2.942500e-01 7.430427e+02 
2.954200e-01 7.386418e+02 
2.966500e-01 7.340619e+02 
2.978900e-01 7.294926e+02 
2.990400e-01 7.252972e+02 
3.002700e-01 7.208620e+02 
3.015100e-01 7.164402e+02 
3.026800e-01 7.123094e+02 
3.038500e-01 7.082184e+02 
3.050300e-01 7.041321e+02 
3.062600e-01 6.999209e+02 
3.075000e-01 6.957180e+02 
3.087000e-01 6.916908e+02 
3.099100e-01 6.876694e+02 
3.111200e-01 6.836901e+02 
3.123100e-01 6.798194e+02 
3.135300e-01 6.758891e+02 
3.147300e-01 6.720603e+02 
3.159900e-01 6.680791e+02 
3.171800e-01 6.643610e+02 
3.183700e-01 6.606812e+02 
3.196300e-01 6.568222e+02 
3.208400e-01 6.531519e+02 
3.220300e-01 6.495758e+02 
3.232000e-01 6.460984e+02 
3.244300e-01 6.424789e+02 
3.256700e-01 6.388645e+02 
3.269200e-01 6.352555e+02 
3.280800e-01 6.319370e+02 
3.292500e-01 6.286301e+02 
3.304800e-01 6.251884e+02 
3.317100e-01 6.217786e+02 
3.328900e-01 6.185368e+02 
3.340700e-01 6.153235e+02 
3.353600e-01 6.118544e+02 
3.365300e-01 6.087409e+02 
3.377100e-01 6.056281e+02 
3.389200e-01 6.024640e+02 
3.401600e-01 5.992506e+02 
3.413700e-01 5.961551e+02 
3.425300e-01 5.932214e+02 
3.437700e-01 5.901127e+02 
3.449800e-01 5.871059e+02 
3.461800e-01 5.841497e+02 
3.473600e-01 5.812726e+02 
3.485800e-01 5.783357e+02 
3.498100e-01 5.754005e+02 
3.510200e-01 5.725380e+02 
3.522000e-01 5.697699e+02 
3.533900e-01 5.670015e+02 
3.546400e-01 5.641363e+02 
3.558400e-01 5.614101e+02 
3.570600e-01 5.586617e+02 
3.582700e-01 5.559588e+02 
3.595000e-01 5.532343e+02 
3.607100e-01 5.505862e+02 
3.618900e-01 5.480323e+02 
3.631200e-01 5.453921e+02 
3.643200e-01 5.428376e+02 
3.655500e-01 5.402407e+02 
3.667300e-01 5.377696e+02 
3.679500e-01 5.352537e+02 
3.691900e-01 5.327177e+02 
3.703600e-01 5.303440e+02 
3.715700e-01 5.279086e+02 
3.727700e-01 5.255126e+02 
3.739900e-01 5.231024e+02 
3.752000e-01 5.207423e+02 
3.763900e-01 5.184394e+02 
3.775800e-01 5.161545e+02 
3.788200e-01 5.137924e+02 
3.800300e-01 5.115058e+02 
3.812100e-01 5.093004e+02 
3.824200e-01 5.070612e+02 
3.836100e-01 5.048760e+02 
3.848600e-01 5.025987e+02 
3.860400e-01 5.004655e+02 
3.872400e-01 4.983126e+02 
3.884600e-01 4.961503e+02 
3.896500e-01 4.940608e+02 
3.908700e-01 4.919349e+02 
3.920600e-01 4.898770e+02 
3.933100e-01 4.877319e+02 
3.945300e-01 4.856544e+02 
3.957200e-01 4.836534e+02 
3.969300e-01 4.816368e+02 
3.981700e-01 4.795858e+02 
3.993500e-01 4.776486e+02 
4.094840e-01 4.615857e+02 
4.272360e-01 4.359028e+02 
4.454600e-01 4.122096e+02 
4.630560e-01 3.915114e+02 
4.804610e-01 3.728506e+02 
4.980690e-01 3.555698e+02 
5.159230e-01 3.394990e+02 
5.317440e-01 3.263470e+02 
5.489640e-01 3.130908e+02 
5.671990e-01 3.001540e+02 
5.838690e-01 2.892097e+02 
6.018840e-01 2.782450e+02 
6.202330e-01 2.679210e+02 
6.379250e-01 2.586809e+02 
6.545410e-01 2.506138e+02 
6.714560e-01 2.429166e+02 
6.892080e-01 2.353730e+02 
7.066010e-01 2.284561e+02 
7.240540e-01 2.219426e+02 
7.420450e-01 2.156398e+02 
7.593780e-01 2.099209e+02 
7.764720e-01 2.045871e+02 
7.942840e-01 1.993321e+02 
8.116170e-01 1.944857e+02 
8.288310e-01 1.899121e+02 
8.462240e-01 1.855083e+02 
8.631980e-01 1.814037e+02 
8.810700e-01 1.772766e+02 
8.989410e-01 1.733335e+02 
9.166330e-01 1.695926e+02 
9.345640e-01 1.659577e+02 
9.515980e-01 1.626350e+02 
9.688720e-01 1.593891e+02 
9.865640e-01 1.561815e+02 
1.031870e+00 1.484752e+02 
1.063490e+00 1.434722e+02 
1.097920e+00 1.383410e+02 
1.134370e+00 1.332249e+02 
1.167730e+00 1.288056e+02 
1.203830e+00 1.242668e+02 
1.240470e+00 1.199145e+02 
1.275790e+00 1.159229e+02 
1.309140e+00 1.123477e+02 
1.342970e+00 1.088693e+02 
1.378420e+00 1.054012e+02 
1.413200e+00 1.021468e+02 
1.448110e+00 9.902424e+01 
1.484090e+00 9.595258e+01 
1.518820e+00 9.311477e+01 
1.552880e+00 9.044143e+01 
1.588630e+00 8.775345e+01 
1.623230e+00 8.526009e+01 
1.657720e+00 8.287375e+01 
1.692450e+00 8.056810e+01 
1.726400e+00 7.839462e+01 
1.762200e+00 7.619024e+01 
1.797880e+00 7.408209e+01 
1.833270e+00 7.206928e+01 
1.869070e+00 7.011047e+01 
1.903200e+00 6.831348e+01 
1.937740e+00 6.655970e+01 
1.973190e+00 6.482258e+01 
2.007440e+00 6.320523e+01 
2.042160e+00 6.162331e+01 
2.077900e+00 6.004994e+01 
2.112390e+00 5.858675e+01 
2.146220e+00 5.719570e+01 
2.181600e+00 5.578997e+01 
2.216930e+00 5.443475e+01 
2.250760e+00 5.317943e+01 
2.286500e+00 5.189624e+01 
2.321770e+00 5.067199e+01 
2.355950e+00 4.952341e+01 
2.391280e+00 4.837223e+01 
2.426240e+00 4.726962e+01 
2.460670e+00 4.621821e+01 
2.495640e+00 4.518387e+01 
2.531080e+00 4.416498e+01 
2.566220e+00 4.318642e+01 
2.600830e+00 4.225240e+01 
2.635080e+00 4.135597e+01 
2.670340e+00 4.045923e+01 
2.705970e+00 3.958022e+01 
2.740040e+00 3.876422e+01 
2.774520e+00 3.796011e+01 
2.809730e+00 3.716307e+01 
2.844390e+00 3.640164e+01 
2.879960e+00 3.564203e+01 
2.914860e+00 3.491724e+01 
2.949410e+00 3.422002e+01 
2.984440e+00 3.353207e+01 
3.019760e+00 3.285750e+01 
3.054730e+00 3.220835e+01 
3.089030e+00 3.158765e+01 
3.124060e+00 3.097088e+01 
3.159560e+00 3.036235e+01 
3.194710e+00 2.977586e+01 
3.229010e+00 2.921909e+01 
3.263320e+00 2.867578e+01 
3.297930e+00 2.814197e+01 
3.332830e+00 2.761691e+01 
3.368040e+00 2.710076e+01 
3.403300e+00 2.659729e+01 
3.438450e+00 2.610797e+01 
3.473060e+00 2.563868e+01 
3.508440e+00 2.517024e+01 
3.543110e+00 2.472300e+01 
3.577470e+00 2.429016e+01 
3.613040e+00 2.385320e+01 
3.648120e+00 2.343234e+01 
3.682910e+00 2.302524e+01 
3.718050e+00 2.262388e+01 
3.753320e+00 2.223089e+01 
3.787980e+00 2.185391e+01 
3.822290e+00 2.148941e+01 
3.857020e+00 2.112882e+01 
3.891920e+00 2.077489e+01 
3.926650e+00 2.043063e+01 
3.961970e+00 2.008873e+01 
3.997360e+00 1.975411e+01 
4.031670e+00 1.943715e+01 
4.066330e+00 1.912396e+01 
4.101420e+00 1.881411e+01 
4.136200e+00 1.851371e+01 
4.170810e+00 1.822147e+01 
4.206250e+00 1.792862e+01 
4.241580e+00 1.764317e+01 
4.276300e+00 1.736888e+01 
4.310970e+00 1.710094e+01 
4.346120e+00 1.683522e+01 
4.380600e+00 1.658025e+01 
4.414730e+00 1.633316e+01 
4.450350e+00 1.608078e+01 
4.485320e+00 1.583827e+01 
4.519810e+00 1.560412e+01 
4.555430e+00 1.536737e+01 
4.590870e+00 1.513684e+01 
4.625480e+00 1.491650e+01 
4.659910e+00 1.470171e+01 
4.695230e+00 1.448592e+01 
4.729960e+00 1.427802e+01 
4.764450e+00 1.407571e+01 
4.799530e+00 1.387413e+01 
4.834910e+00 1.367486e+01 
4.869700e+00 1.348301e+01 
4.904370e+00 1.329555e+01 
4.939450e+00 1.310962e+01 
4.973940e+00 1.293056e+01 
5.008430e+00 1.275486e+01 
5.043810e+00 1.257816e+01 
5.078840e+00 1.240659e+01 
5.113500e+00 1.223999e+01 
5.148890e+00 1.207346e+01 
5.184210e+00 1.191037e+01 
5.219060e+00 1.175249e+01 
5.253660e+00 1.159880e+01 
5.288570e+00 1.144652e+01 
5.323420e+00 1.129741e+01 
5.358440e+00 1.115044e+01 
5.393590e+00 1.100556e+01 
5.428310e+00 1.086524e+01 
5.462800e+00 1.072840e+01 
5.497640e+00 1.059257e+01 
5.532670e+00 1.045862e+01 
5.567280e+00 1.032862e+01 
5.602000e+00 1.020042e+01 
5.637270e+00 1.007274e+01 
5.672410e+00 9.947778e+00 
5.707020e+00 9.826766e+00 
5.742040e+00 9.706645e+00 
5.777430e+00 9.587348e+00 
5.812210e+00 9.472055e+00 
5.846820e+00 9.359475e+00 
5.881610e+00 9.248217e+00 
5.916510e+00 9.138418e+00 
5.951600e+00 9.030064e+00 
5.986560e+00 8.923965e+00 
6.021830e+00 8.818646e+00 
6.056490e+00 8.716995e+00 
6.091160e+00 8.617080e+00 
6.125830e+00 8.518723e+00 
6.161090e+00 8.420372e+00 
6.195760e+00 8.325415e+00 
6.230420e+00 8.231942e+00 
6.265690e+00 8.138301e+00 
6.300950e+00 8.046444e+00 
6.335620e+00 7.957499e+00 
6.370880e+00 7.868411e+00 
6.405550e+00 7.782380e+00 
6.440220e+00 7.697728e+00 
6.475480e+00 7.612919e+00 
6.510150e+00 7.530850e+00 
6.544810e+00 7.450193e+00 
6.580080e+00 7.369322e+00 
6.614750e+00 7.290989e+00 
6.649410e+00 7.214127e+00 
6.684080e+00 7.138408e+00 
6.719340e+00 7.062508e+00 
6.754010e+00 6.989024e+00 
6.788680e+00 6.916758e+00 
6.823940e+00 6.844303e+00 
6.859800e+00 6.771672e+00 
6.894470e+00 6.702661e+00 
6.929140e+00 6.634684e+00 
6.963800e+00 6.567662e+00 
6.999070e+00 6.500417e+00 
7.033730e+00 6.435458e+00 
7.068400e+00 6.371361e+00 
7.103660e+00 6.307062e+00 
7.138330e+00 6.244796e+00 
7.173600e+00 6.182514e+00 
7.208260e+00 6.122131e+00 
7.243530e+00 6.061506e+00 
7.277600e+00 6.003860e+00 
7.312860e+00 5.945114e+00 
7.348120e+00 5.887149e+00 
7.382790e+00 5.830900e+00 
7.417460e+00 5.775524e+00 
7.452720e+00 5.720011e+00 
7.487390e+00 5.666132e+00 
7.522650e+00 5.612043e+00 
7.557320e+00 5.559698e+00 
7.591990e+00 5.508075e+00 
7.627250e+00 5.456239e+00 
7.662510e+00 5.405065e+00 
7.697180e+00 5.355546e+00 
7.731850e+00 5.306706e+00 
7.766510e+00 5.258483e+00 
7.801180e+00 5.210841e+00 
7.836440e+00 5.163138e+00 
7.871110e+00 5.116904e+00 
7.906380e+00 5.070446e+00 
7.941040e+00 5.025349e+00 
7.976310e+00 4.980092e+00 
8.011570e+00 4.935492e+00 
8.046240e+00 4.892165e+00 
8.080900e+00 4.849367e+00 
8.115570e+00 4.807103e+00 
8.150830e+00 4.764783e+00 
8.185500e+00 4.723663e+00 
8.220770e+00 4.682325e+00 
8.255430e+00 4.642180e+00 
8.290100e+00 4.602649e+00 
8.324770e+00 4.563593e+00 
8.359430e+00 4.524998e+00 
8.394700e+00 4.486177e+00 
8.429960e+00 4.447910e+00 
8.464630e+00 4.410809e+00 
8.499890e+00 4.373507e+00 
8.534560e+00 4.337245e+00 
8.569200e+00 4.301422e+00 
