# Parameters:
# omega_b = 0.021925, omega_m = 0.146732, n_s = 0.983858, h = 60.669291, w = -1.000000, sigma_8 = 0.704488
# z = 1.000000
#
# k[1/Mpc] # P(k):
8.694000e-04 3.802651e+03 
2.077466e-03 8.298517e+03 
3.285532e-03 1.190405e+04 
4.493598e-03 1.474704e+04 
5.701664e-03 1.692637e+04 
6.909730e-03 1.853225e+04 
8.117797e-03 1.967731e+04 
9.325863e-03 2.042013e+04 
1.053393e-02 2.082395e+04 
1.174199e-02 2.094973e+04 
1.295006e-02 2.083483e+04 
1.415813e-02 2.053050e+04 
1.536619e-02 2.008195e+04 
1.657426e-02 1.952419e+04 
1.778233e-02 1.890848e+04 
1.899039e-02 1.828966e+04 
2.019846e-02 1.764238e+04 
2.140652e-02 1.696104e+04 
2.261459e-02 1.626992e+04 
2.382266e-02 1.559471e+04 
2.503072e-02 1.494902e+04 
2.623879e-02 1.433830e+04 
2.744685e-02 1.376462e+04 
2.865492e-02 1.323227e+04 
2.986299e-02 1.274158e+04 
3.100100e-02 1.231689e+04 
3.220400e-02 1.190665e+04 
3.288100e-02 1.169294e+04 
3.424300e-02 1.129792e+04 
3.555100e-02 1.095729e+04 
3.686000e-02 1.065114e+04 
3.795000e-02 1.041853e+04 
3.929100e-02 1.015754e+04 
4.039800e-02 9.958349e+03 
4.164000e-02 9.748102e+03 
4.294400e-02 9.537495e+03 
4.415000e-02 9.349531e+03 
4.542900e-02 9.150971e+03 
4.660900e-02 8.969122e+03 
4.782300e-02 8.775222e+03 
4.892900e-02 8.596182e+03 
5.031200e-02 8.365207e+03 
5.155900e-02 8.148727e+03 
5.238100e-02 8.002602e+03 
5.378200e-02 7.748408e+03 
5.513400e-02 7.496692e+03 
5.627600e-02 7.280978e+03 
5.735300e-02 7.077114e+03 
5.870100e-02 6.823329e+03 
5.988700e-02 6.604010e+03 
6.113500e-02 6.378668e+03 
6.225900e-02 6.182037e+03 
6.340100e-02 5.990102e+03 
6.480200e-02 5.766876e+03 
6.601100e-02 5.586315e+03 
6.725500e-02 5.413095e+03 
6.829100e-02 5.279799e+03 
6.958600e-02 5.125229e+03 
7.071100e-02 5.002951e+03 
7.192300e-02 4.882655e+03 
7.307400e-02 4.778737e+03 
7.412300e-02 4.692069e+03 
7.550400e-02 4.589463e+03 
7.663100e-02 4.513113e+03 
7.791200e-02 4.434987e+03 
7.912700e-02 4.367300e+03 
8.027600e-02 4.307284e+03 
8.138400e-02 4.252099e+03 
8.272200e-02 4.187939e+03 
8.406100e-02 4.125130e+03 
8.534100e-02 4.064758e+03 
8.653800e-02 4.006897e+03 
8.759800e-02 3.954706e+03 
8.900300e-02 3.883415e+03 
9.009000e-02 3.825960e+03 
9.113300e-02 3.768464e+03 
9.239600e-02 3.697500e+03 
9.358000e-02 3.628871e+03 
9.496100e-02 3.545962e+03 
9.608400e-02 3.477919e+03 
9.727500e-02 3.405775e+03 
9.852600e-02 3.328308e+03 
9.973800e-02 3.254438e+03 
1.009000e-01 3.184802e+03 
1.020900e-01 3.114376e+03 
1.034000e-01 3.039320e+03 
1.046000e-01 2.972802e+03 
1.057200e-01 2.913388e+03 
1.069100e-01 2.852562e+03 
1.082500e-01 2.787912e+03 
1.093900e-01 2.736045e+03 
1.105400e-01 2.686001e+03 
1.116900e-01 2.639788e+03 
1.129600e-01 2.591072e+03 
1.142000e-01 2.547320e+03 
1.153300e-01 2.509587e+03 
1.166400e-01 2.468700e+03 
1.177800e-01 2.435588e+03 
1.190000e-01 2.401743e+03 
1.201200e-01 2.372842e+03 
1.213400e-01 2.342358e+03 
1.227100e-01 2.310368e+03 
1.238900e-01 2.283621e+03 
1.250700e-01 2.257783e+03 
1.263200e-01 2.230949e+03 
1.275500e-01 2.204930e+03 
1.287500e-01 2.179749e+03 
1.299900e-01 2.153719e+03 
1.311300e-01 2.129674e+03 
1.323500e-01 2.103532e+03 
1.335900e-01 2.076727e+03 
1.347100e-01 2.051936e+03 
1.359800e-01 2.023678e+03 
1.372100e-01 1.995409e+03 
1.384300e-01 1.967416e+03 
1.395700e-01 1.940440e+03 
1.407700e-01 1.912501e+03 
1.420300e-01 1.882288e+03 
1.432800e-01 1.853003e+03 
1.444500e-01 1.825236e+03 
1.456300e-01 1.797832e+03 
1.468900e-01 1.769156e+03 
1.480500e-01 1.743312e+03 
1.491700e-01 1.719100e+03 
1.503800e-01 1.693775e+03 
1.516400e-01 1.668177e+03 
1.528200e-01 1.645604e+03 
1.540200e-01 1.623110e+03 
1.551900e-01 1.602710e+03 
1.564300e-01 1.581782e+03 
1.576600e-01 1.562034e+03 
1.588700e-01 1.543701e+03 
1.600900e-01 1.525623e+03 
1.612700e-01 1.509468e+03 
1.625400e-01 1.492405e+03 
1.637600e-01 1.476692e+03 
1.649500e-01 1.461859e+03 
1.662200e-01 1.446337e+03 
1.674000e-01 1.432285e+03 
1.685000e-01 1.419403e+03 
1.697500e-01 1.404871e+03 
1.710300e-01 1.390119e+03 
1.722200e-01 1.376648e+03 
1.734400e-01 1.362505e+03 
1.746400e-01 1.348810e+03 
1.758700e-01 1.334802e+03 
1.770900e-01 1.320716e+03 
1.782700e-01 1.307321e+03 
1.794600e-01 1.293692e+03 
1.807000e-01 1.279498e+03 
1.819100e-01 1.265884e+03 
1.830100e-01 1.253377e+03 
1.842200e-01 1.239783e+03 
1.855000e-01 1.225640e+03 
1.867000e-01 1.212407e+03 
1.879200e-01 1.199175e+03 
1.890900e-01 1.186694e+03 
1.902800e-01 1.174209e+03 
1.915200e-01 1.161413e+03 
1.926900e-01 1.149572e+03 
1.939000e-01 1.137649e+03 
1.951700e-01 1.125338e+03 
1.963100e-01 1.114521e+03 
1.975100e-01 1.103471e+03 
1.987800e-01 1.091960e+03 
2.000100e-01 1.081072e+03 
2.012500e-01 1.070458e+03 
2.023400e-01 1.061264e+03 
2.036100e-01 1.050755e+03 
2.048900e-01 1.040509e+03 
2.060400e-01 1.031440e+03 
2.072200e-01 1.022279e+03 
2.084200e-01 1.013251e+03 
2.096900e-01 1.003836e+03 
2.109200e-01 9.948543e+02 
2.121100e-01 9.863571e+02 
2.132700e-01 9.781920e+02 
2.145200e-01 9.695171e+02 
2.157200e-01 9.613195e+02 
2.168800e-01 9.535085e+02 
2.180700e-01 9.456037e+02 
2.193400e-01 9.372695e+02 
2.206000e-01 9.290894e+02 
2.217500e-01 9.217252e+02 
2.229500e-01 9.141424e+02 
2.241400e-01 9.066570e+02 
2.253500e-01 8.991459e+02 
2.264900e-01 8.921616e+02 
2.277100e-01 8.847462e+02 
2.289900e-01 8.770303e+02 
2.301500e-01 8.701312e+02 
2.313600e-01 8.630270e+02 
2.325600e-01 8.560050e+02 
2.337700e-01 8.490166e+02 
2.350000e-01 8.420059e+02 
2.362000e-01 8.352368e+02 
2.374100e-01 8.284773e+02 
2.386500e-01 8.216402e+02 
2.399100e-01 8.147844e+02 
2.410400e-01 8.086936e+02 
2.422500e-01 8.022490e+02 
2.435000e-01 7.956766e+02 
2.447300e-01 7.892955e+02 
2.458700e-01 7.834665e+02 
2.470600e-01 7.774544e+02 
2.483300e-01 7.711187e+02 
2.495600e-01 7.650712e+02 
2.507600e-01 7.592585e+02 
2.519600e-01 7.535157e+02 
2.532200e-01 7.475600e+02 
2.543700e-01 7.422181e+02 
2.555500e-01 7.368196e+02 
2.568000e-01 7.311691e+02 
2.580100e-01 7.257653e+02 
2.592400e-01 7.203728e+02 
2.604100e-01 7.153185e+02 
2.616100e-01 7.101938e+02 
2.628400e-01 7.050021e+02 
2.640600e-01 6.999443e+02 
2.652200e-01 6.952019e+02 
2.664300e-01 6.903105e+02 
2.676500e-01 6.854350e+02 
2.688400e-01 6.807572e+02 
2.700700e-01 6.759916e+02 
2.712400e-01 6.715089e+02 
2.724800e-01 6.668108e+02 
2.736700e-01 6.623659e+02 
2.748800e-01 6.579098e+02 
2.761000e-01 6.534665e+02 
2.773200e-01 6.490722e+02 
2.785400e-01 6.447321e+02 
2.797000e-01 6.406617e+02 
2.808900e-01 6.365299e+02 
2.821400e-01 6.322367e+02 
2.833900e-01 6.279912e+02 
2.845500e-01 6.240982e+02 
2.857800e-01 6.200135e+02 
2.870300e-01 6.159073e+02 
2.882100e-01 6.120720e+02 
2.893900e-01 6.082776e+02 
2.906300e-01 6.043328e+02 
2.918900e-01 6.003673e+02 
2.930500e-01 5.967544e+02 
2.942500e-01 5.930537e+02 
2.954200e-01 5.894798e+02 
2.966500e-01 5.857607e+02 
2.978900e-01 5.820503e+02 
2.990400e-01 5.786437e+02 
3.002700e-01 5.750330e+02 
3.015100e-01 5.714288e+02 
3.026800e-01 5.680619e+02 
3.038500e-01 5.647276e+02 
3.050300e-01 5.613971e+02 
3.062600e-01 5.579562e+02 
3.075000e-01 5.545222e+02 
3.087000e-01 5.512319e+02 
3.099100e-01 5.479465e+02 
3.111200e-01 5.446934e+02 
3.123100e-01 5.415255e+02 
3.135300e-01 5.383090e+02 
3.147300e-01 5.351757e+02 
3.159900e-01 5.319178e+02 
3.171800e-01 5.288719e+02 
3.183700e-01 5.258554e+02 
3.196300e-01 5.226920e+02 
3.208400e-01 5.196835e+02 
3.220300e-01 5.167524e+02 
3.232000e-01 5.139004e+02 
3.244300e-01 5.109313e+02 
3.256700e-01 5.079665e+02 
3.269200e-01 5.050063e+02 
3.280800e-01 5.022845e+02 
3.292500e-01 4.995702e+02 
3.304800e-01 4.967448e+02 
3.317100e-01 4.939457e+02 
3.328900e-01 4.912846e+02 
3.340700e-01 4.886472e+02 
3.353600e-01 4.857989e+02 
3.365300e-01 4.832423e+02 
3.377100e-01 4.806864e+02 
3.389200e-01 4.780887e+02 
3.401600e-01 4.754505e+02 
3.413700e-01 4.729096e+02 
3.425300e-01 4.705020e+02 
3.437700e-01 4.679509e+02 
3.449800e-01 4.654835e+02 
3.461800e-01 4.630579e+02 
3.473600e-01 4.606975e+02 
3.485800e-01 4.582890e+02 
3.498100e-01 4.558820e+02 
3.510200e-01 4.535346e+02 
3.522000e-01 4.512649e+02 
3.533900e-01 4.489951e+02 
3.546400e-01 4.466481e+02 
3.558400e-01 4.444152e+02 
3.570600e-01 4.421643e+02 
3.582700e-01 4.399508e+02 
3.595000e-01 4.377197e+02 
3.607100e-01 4.355526e+02 
3.618900e-01 4.334639e+02 
3.631200e-01 4.313047e+02 
3.643200e-01 4.292157e+02 
3.655500e-01 4.270921e+02 
3.667300e-01 4.250716e+02 
3.679500e-01 4.230175e+02 
3.691900e-01 4.209471e+02 
3.703600e-01 4.190094e+02 
3.715700e-01 4.170213e+02 
3.727700e-01 4.150656e+02 
3.739900e-01 4.130994e+02 
3.752000e-01 4.111762e+02 
3.763900e-01 4.092998e+02 
3.775800e-01 4.074381e+02 
3.788200e-01 4.055136e+02 
3.800300e-01 4.036506e+02 
3.812100e-01 4.018557e+02 
3.824200e-01 4.000347e+02 
3.836100e-01 3.982576e+02 
3.848600e-01 3.964056e+02 
3.860400e-01 3.946709e+02 
3.872400e-01 3.929203e+02 
3.884600e-01 3.911644e+02 
3.896500e-01 3.894686e+02 
3.908700e-01 3.877434e+02 
3.920600e-01 3.860733e+02 
3.933100e-01 3.843326e+02 
3.945300e-01 3.826467e+02 
3.957200e-01 3.810249e+02 
3.969300e-01 3.793910e+02 
3.981700e-01 3.777294e+02 
3.993500e-01 3.761600e+02 
4.094840e-01 3.631593e+02 
4.272360e-01 3.424247e+02 
4.454600e-01 3.233263e+02 
4.630560e-01 3.066558e+02 
4.804610e-01 2.916271e+02 
4.980690e-01 2.777048e+02 
5.159230e-01 2.647493e+02 
5.317440e-01 2.541436e+02 
5.489640e-01 2.434547e+02 
5.671990e-01 2.330214e+02 
5.838690e-01 2.242001e+02 
6.018840e-01 2.153748e+02 
6.202330e-01 2.070788e+02 
6.379250e-01 1.996591e+02 
6.545410e-01 1.931990e+02 
6.714560e-01 1.870484e+02 
6.892080e-01 1.810295e+02 
7.066010e-01 1.755316e+02 
7.240540e-01 1.703607e+02 
7.420450e-01 1.653787e+02 
7.593780e-01 1.608723e+02 
7.764720e-01 1.566809e+02 
7.942840e-01 1.525615e+02 
8.116170e-01 1.487782e+02 
8.288310e-01 1.452212e+02 
8.462240e-01 1.418062e+02 
8.631980e-01 1.386361e+02 
8.810700e-01 1.354564e+02 
8.989410e-01 1.324279e+02 
9.166330e-01 1.295637e+02 
9.345640e-01 1.267886e+02 
9.515980e-01 1.242619e+02 
9.688720e-01 1.218000e+02 
9.865640e-01 1.193751e+02 
1.031870e+00 1.135692e+02 
1.063490e+00 1.098200e+02 
1.097920e+00 1.059890e+02 
1.134370e+00 1.021810e+02 
1.167730e+00 9.890335e+01 
1.203830e+00 9.554364e+01 
1.240470e+00 9.232841e+01 
1.275790e+00 8.938609e+01 
1.309140e+00 8.675143e+01 
1.342970e+00 8.419040e+01 
1.378420e+00 8.163986e+01 
1.413200e+00 7.924692e+01 
1.448110e+00 7.694958e+01 
1.484090e+00 7.469102e+01 
1.518820e+00 7.260248e+01 
1.552880e+00 7.063361e+01 
1.588630e+00 6.865158e+01 
1.623230e+00 6.681316e+01 
1.657720e+00 6.505197e+01 
1.692450e+00 6.334702e+01 
1.726400e+00 6.173880e+01 
1.762200e+00 6.010677e+01 
1.797880e+00 5.854180e+01 
1.833270e+00 5.704762e+01 
1.869070e+00 5.559120e+01 
1.903200e+00 5.425191e+01 
1.937740e+00 5.294353e+01 
1.973190e+00 5.164639e+01 
2.007440e+00 5.043636e+01 
2.042160e+00 4.925001e+01 
2.077900e+00 4.806934e+01 
2.112390e+00 4.696877e+01 
2.146220e+00 4.592195e+01 
2.181600e+00 4.486146e+01 
2.216930e+00 4.383727e+01 
2.250760e+00 4.288737e+01 
2.286500e+00 4.191517e+01 
2.321770e+00 4.098617e+01 
2.355950e+00 4.011259e+01 
2.391280e+00 3.923562e+01 
2.426240e+00 3.839402e+01 
2.460670e+00 3.759029e+01 
2.495640e+00 3.679873e+01 
2.531080e+00 3.601789e+01 
2.566220e+00 3.526641e+01 
2.600830e+00 3.454783e+01 
2.635080e+00 3.385702e+01 
2.670340e+00 3.316419e+01 
2.705970e+00 3.248437e+01 
2.740040e+00 3.185272e+01 
2.774520e+00 3.122974e+01 
2.809730e+00 3.061052e+01 
2.844390e+00 3.001788e+01 
2.879960e+00 2.942559e+01 
2.914860e+00 2.885993e+01 
2.949410e+00 2.831516e+01 
2.984440e+00 2.777614e+01 
3.019760e+00 2.724724e+01 
3.054730e+00 2.673789e+01 
3.089030e+00 2.624928e+01 
3.124060e+00 2.576346e+01 
3.159560e+00 2.528377e+01 
3.194710e+00 2.482038e+01 
3.229010e+00 2.437993e+01 
3.263320e+00 2.394894e+01 
3.297930e+00 2.352524e+01 
3.332830e+00 2.310816e+01 
3.368040e+00 2.269748e+01 
3.403300e+00 2.229634e+01 
3.438450e+00 2.190558e+01 
3.473060e+00 2.153048e+01 
3.508440e+00 2.115544e+01 
3.543110e+00 2.079709e+01 
3.577470e+00 2.044949e+01 
3.613040e+00 2.009835e+01 
3.648120e+00 1.975978e+01 
3.682910e+00 1.943190e+01 
3.718050e+00 1.910809e+01 
3.753320e+00 1.879065e+01 
3.787980e+00 1.848568e+01 
3.822290e+00 1.819048e+01 
3.857020e+00 1.789801e+01 
3.891920e+00 1.761064e+01 
3.926650e+00 1.733069e+01 
3.961970e+00 1.705243e+01 
3.997360e+00 1.677971e+01 
4.031670e+00 1.652118e+01 
4.066330e+00 1.626523e+01 
4.101420e+00 1.601191e+01 
4.136200e+00 1.576591e+01 
4.170810e+00 1.552649e+01 
4.206250e+00 1.528629e+01 
4.241580e+00 1.505204e+01 
4.276300e+00 1.482653e+01 
4.310970e+00 1.460599e+01 
4.346120e+00 1.438709e+01 
4.380600e+00 1.417679e+01 
4.414730e+00 1.397293e+01 
4.450350e+00 1.376428e+01 
4.485320e+00 1.356375e+01 
4.519810e+00 1.336984e+01 
4.555430e+00 1.317361e+01 
4.590870e+00 1.298238e+01 
4.625480e+00 1.279937e+01 
4.659910e+00 1.262092e+01 
4.695230e+00 1.244135e+01 
4.729960e+00 1.226827e+01 
4.764450e+00 1.209970e+01 
4.799530e+00 1.193152e+01 
4.834910e+00 1.176523e+01 
4.869700e+00 1.160490e+01 
4.904370e+00 1.144817e+01 
4.939450e+00 1.129262e+01 
4.973940e+00 1.114260e+01 
5.008430e+00 1.099537e+01 
5.043810e+00 1.084714e+01 
5.078840e+00 1.070312e+01 
5.113500e+00 1.056324e+01 
5.148890e+00 1.042317e+01 
5.184210e+00 1.028595e+01 
5.219060e+00 1.015305e+01 
5.253660e+00 1.002353e+01 
5.288570e+00 9.895176e+00 
5.323420e+00 9.769392e+00 
5.358440e+00 9.645310e+00 
5.393590e+00 9.522966e+00 
5.428310e+00 9.404339e+00 
5.462800e+00 9.288581e+00 
5.497640e+00 9.173653e+00 
5.532670e+00 9.060181e+00 
5.567280e+00 8.950008e+00 
5.602000e+00 8.841346e+00 
5.637270e+00 8.733008e+00 
5.672410e+00 8.626934e+00 
5.707020e+00 8.524199e+00 
5.742040e+00 8.422097e+00 
5.777430e+00 8.320658e+00 
5.812210e+00 8.222608e+00 
5.846820e+00 8.126761e+00 
5.881610e+00 8.032004e+00 
5.916510e+00 7.938476e+00 
5.951600e+00 7.846100e+00 
5.986560e+00 7.755605e+00 
6.021830e+00 7.665763e+00 
6.056490e+00 7.578996e+00 
6.091160e+00 7.493665e+00 
6.125830e+00 7.409654e+00 
6.161090e+00 7.325606e+00 
6.195760e+00 7.244382e+00 
6.230420e+00 7.164418e+00 
6.265690e+00 7.084298e+00 
6.300950e+00 7.005634e+00 
6.335620e+00 6.929455e+00 
6.370880e+00 6.853145e+00 
6.405550e+00 6.779395e+00 
6.440220e+00 6.706799e+00 
6.475480e+00 6.634061e+00 
6.510150e+00 6.563647e+00 
6.544810e+00 6.494399e+00 
6.580080e+00 6.424959e+00 
6.614750e+00 6.357691e+00 
6.649410e+00 6.291639e+00 
6.684080e+00 6.226555e+00 
6.719340e+00 6.161308e+00 
6.754010e+00 6.098115e+00 
6.788680e+00 6.035925e+00 
6.823940e+00 5.973567e+00 
6.859800e+00 5.911051e+00 
6.894470e+00 5.851622e+00 
6.929140e+00 5.793069e+00 
6.963800e+00 5.735334e+00 
6.999070e+00 5.677400e+00 
7.033730e+00 5.621396e+00 
7.068400e+00 5.566132e+00 
7.103660e+00 5.510688e+00 
7.138330e+00 5.456982e+00 
7.173600e+00 5.403235e+00 
7.208260e+00 5.351122e+00 
7.243530e+00 5.298796e+00 
7.277600e+00 5.249019e+00 
7.312860e+00 5.198271e+00 
7.348120e+00 5.148193e+00 
7.382790e+00 5.099595e+00 
7.417460e+00 5.051738e+00 
7.452720e+00 5.003754e+00 
7.487390e+00 4.957180e+00 
7.522650e+00 4.910420e+00 
7.557320e+00 4.865146e+00 
7.591990e+00 4.820486e+00 
7.627250e+00 4.775638e+00 
7.662510e+00 4.731360e+00 
7.697180e+00 4.688498e+00 
7.731850e+00 4.646216e+00 
7.766510e+00 4.604466e+00 
7.801180e+00 4.563215e+00 
7.836440e+00 4.521903e+00 
7.871110e+00 4.481855e+00 
7.906380e+00 4.441611e+00 
7.941040e+00 4.402543e+00 
7.976310e+00 4.363326e+00 
8.011570e+00 4.324667e+00 
8.046240e+00 4.287109e+00 
8.080900e+00 4.250007e+00 
8.115570e+00 4.213364e+00 
8.150830e+00 4.176665e+00 
8.185500e+00 4.141005e+00 
8.220770e+00 4.105154e+00 
8.255430e+00 4.070334e+00 
8.290100e+00 4.036031e+00 
8.324770e+00 4.002137e+00 
8.359430e+00 3.968640e+00 
8.394700e+00 3.934945e+00 
8.429960e+00 3.901729e+00 
8.464630e+00 3.869522e+00 
8.499890e+00 3.837138e+00 
8.534560e+00 3.805656e+00 
8.569200e+00 3.774553e+00 
