# Parameters:
# omega_b = 0.021610, omega_m = 0.137638, n_s = 0.906693, h = 66.102362, w = -1.000000, sigma_8 = 0.843622
# z = 1.000000
#
# k[1/Mpc] # P(k):
8.694000e-04 8.996391e+03 
2.077466e-03 1.823200e+04 
3.285532e-03 2.507908e+04 
4.493598e-03 3.012477e+04 
5.701664e-03 3.372095e+04 
6.909730e-03 3.614245e+04 
8.117797e-03 3.766902e+04 
9.325863e-03 3.844558e+04 
1.053393e-02 3.861270e+04 
1.174199e-02 3.829697e+04 
1.295006e-02 3.757724e+04 
1.415813e-02 3.655573e+04 
1.536619e-02 3.531854e+04 
1.657426e-02 3.392650e+04 
1.778233e-02 3.244429e+04 
1.899039e-02 3.095266e+04 
2.019846e-02 2.946075e+04 
2.140652e-02 2.798963e+04 
2.261459e-02 2.656592e+04 
2.382266e-02 2.521838e+04 
2.503072e-02 2.396318e+04 
2.623879e-02 2.280469e+04 
2.744685e-02 2.174432e+04 
2.865492e-02 2.078210e+04 
2.986299e-02 1.991326e+04 
3.100100e-02 1.917668e+04 
3.220400e-02 1.847752e+04 
3.288100e-02 1.811842e+04 
3.424300e-02 1.746176e+04 
3.555100e-02 1.690135e+04 
3.686000e-02 1.640033e+04 
3.795000e-02 1.601991e+04 
3.929100e-02 1.559020e+04 
4.039800e-02 1.525847e+04 
4.164000e-02 1.490383e+04 
4.294400e-02 1.454080e+04 
4.415000e-02 1.421213e+04 
4.542900e-02 1.385885e+04 
4.660900e-02 1.353264e+04 
4.782300e-02 1.318278e+04 
4.892900e-02 1.286012e+04 
5.031200e-02 1.244633e+04 
5.155900e-02 1.206293e+04 
5.238100e-02 1.180711e+04 
5.378200e-02 1.136804e+04 
5.513400e-02 1.094204e+04 
5.627600e-02 1.058400e+04 
5.735300e-02 1.025132e+04 
5.870100e-02 9.844787e+03 
5.988700e-02 9.499754e+03 
6.113500e-02 9.151195e+03 
6.225900e-02 8.851991e+03 
6.340100e-02 8.564130e+03 
6.480200e-02 8.233518e+03 
6.601100e-02 7.969910e+03 
6.725500e-02 7.719704e+03 
6.829100e-02 7.528990e+03 
6.958600e-02 7.309043e+03 
7.071100e-02 7.136053e+03 
7.192300e-02 6.966399e+03 
7.307400e-02 6.820051e+03 
7.412300e-02 6.697955e+03 
7.550400e-02 6.552986e+03 
7.663100e-02 6.444599e+03 
7.791200e-02 6.332600e+03 
7.912700e-02 6.234244e+03 
8.027600e-02 6.145825e+03 
8.138400e-02 6.063418e+03 
8.272200e-02 5.966028e+03 
8.406100e-02 5.869051e+03 
8.534100e-02 5.774068e+03 
8.653800e-02 5.681867e+03 
8.759800e-02 5.598142e+03 
8.900300e-02 5.483131e+03 
9.009000e-02 5.390190e+03 
9.113300e-02 5.297277e+03 
9.239600e-02 5.182903e+03 
9.358000e-02 5.072890e+03 
9.496100e-02 4.941337e+03 
9.608400e-02 4.834424e+03 
9.727500e-02 4.721969e+03 
9.852600e-02 4.603723e+03 
9.973800e-02 4.492325e+03 
1.009000e-01 4.388425e+03 
1.020900e-01 4.286158e+03 
1.034000e-01 4.178535e+03 
1.046000e-01 4.084561e+03 
1.057200e-01 4.002856e+03 
1.069100e-01 3.919972e+03 
1.082500e-01 3.833965e+03 
1.093900e-01 3.766063e+03 
1.105400e-01 3.701188e+03 
1.116900e-01 3.642394e+03 
1.129600e-01 3.580673e+03 
1.142000e-01 3.525705e+03 
1.153300e-01 3.478180e+03 
1.166400e-01 3.426505e+03 
1.177800e-01 3.383934e+03 
1.190000e-01 3.340066e+03 
1.201200e-01 3.301122e+03 
1.213400e-01 3.259768e+03 
1.227100e-01 3.213772e+03 
1.238900e-01 3.174780e+03 
1.250700e-01 3.135391e+03 
1.263200e-01 3.093943e+03 
1.275500e-01 3.052558e+03 
1.287500e-01 3.012203e+03 
1.299900e-01 2.970017e+03 
1.311300e-01 2.931198e+03 
1.323500e-01 2.889214e+03 
1.335900e-01 2.846726e+03 
1.347100e-01 2.808141e+03 
1.359800e-01 2.764830e+03 
1.372100e-01 2.722785e+03 
1.384300e-01 2.681746e+03 
1.395700e-01 2.643553e+03 
1.407700e-01 2.604176e+03 
1.420300e-01 2.563331e+03 
1.432800e-01 2.523738e+03 
1.444500e-01 2.487538e+03 
1.456300e-01 2.451798e+03 
1.468900e-01 2.414981e+03 
1.480500e-01 2.381961e+03 
1.491700e-01 2.351104e+03 
1.503800e-01 2.318935e+03 
1.516400e-01 2.286351e+03 
1.528200e-01 2.257384e+03 
1.540200e-01 2.228506e+03 
1.551900e-01 2.201825e+03 
1.564300e-01 2.174323e+03 
1.576600e-01 2.148019e+03 
1.588700e-01 2.123166e+03 
1.600900e-01 2.098617e+03 
1.612700e-01 2.075935e+03 
1.625400e-01 2.051981e+03 
1.637600e-01 2.029567e+03 
1.649500e-01 2.008195e+03 
1.662200e-01 1.985791e+03 
1.674000e-01 1.965269e+03 
1.685000e-01 1.946460e+03 
1.697500e-01 1.925267e+03 
1.710300e-01 1.903777e+03 
1.722200e-01 1.884156e+03 
1.734400e-01 1.863841e+03 
1.746400e-01 1.844184e+03 
1.758700e-01 1.824217e+03 
1.770900e-01 1.804415e+03 
1.782700e-01 1.785589e+03 
1.794600e-01 1.766682e+03 
1.807000e-01 1.747157e+03 
1.819100e-01 1.728430e+03 
1.830100e-01 1.711504e+03 
1.842200e-01 1.693154e+03 
1.855000e-01 1.674073e+03 
1.867000e-01 1.656462e+03 
1.879200e-01 1.638851e+03 
1.890900e-01 1.622257e+03 
1.902800e-01 1.605768e+03 
1.915200e-01 1.588863e+03 
1.926900e-01 1.573227e+03 
1.939000e-01 1.557510e+03 
1.951700e-01 1.541279e+03 
1.963100e-01 1.527004e+03 
1.975100e-01 1.512384e+03 
1.987800e-01 1.497154e+03 
2.000100e-01 1.482717e+03 
2.012500e-01 1.468575e+03 
2.023400e-01 1.456324e+03 
2.036100e-01 1.442295e+03 
2.048900e-01 1.428520e+03 
2.060400e-01 1.416327e+03 
2.072200e-01 1.404000e+03 
2.084200e-01 1.391748e+03 
2.096900e-01 1.378972e+03 
2.109200e-01 1.366783e+03 
2.121100e-01 1.355164e+03 
2.132700e-01 1.343994e+03 
2.145200e-01 1.332127e+03 
2.157200e-01 1.320873e+03 
2.168800e-01 1.310131e+03 
2.180700e-01 1.299261e+03 
2.193400e-01 1.287786e+03 
2.206000e-01 1.276497e+03 
2.217500e-01 1.266335e+03 
2.229500e-01 1.255871e+03 
2.241400e-01 1.245526e+03 
2.253500e-01 1.235145e+03 
2.264900e-01 1.225493e+03 
2.277100e-01 1.215235e+03 
2.289900e-01 1.204552e+03 
2.301500e-01 1.195000e+03 
2.313600e-01 1.185164e+03 
2.325600e-01 1.175425e+03 
2.337700e-01 1.165733e+03 
2.350000e-01 1.156011e+03 
2.362000e-01 1.146616e+03 
2.374100e-01 1.137225e+03 
2.386500e-01 1.127726e+03 
2.399100e-01 1.118202e+03 
2.410400e-01 1.109729e+03 
2.422500e-01 1.100761e+03 
2.435000e-01 1.091617e+03 
2.447300e-01 1.082738e+03 
2.458700e-01 1.074622e+03 
2.470600e-01 1.066253e+03 
2.483300e-01 1.057433e+03 
2.495600e-01 1.049022e+03 
2.507600e-01 1.040946e+03 
2.519600e-01 1.032968e+03 
2.532200e-01 1.024694e+03 
2.543700e-01 1.017291e+03 
2.555500e-01 1.009822e+03 
2.568000e-01 1.002004e+03 
2.580100e-01 9.945281e+02 
2.592400e-01 9.871006e+02 
2.604100e-01 9.801532e+02 
2.616100e-01 9.731092e+02 
2.628400e-01 9.659732e+02 
2.640600e-01 9.590576e+02 
2.652200e-01 9.525879e+02 
2.664300e-01 9.459147e+02 
2.676500e-01 9.392631e+02 
2.688400e-01 9.329126e+02 
2.700700e-01 9.264625e+02 
2.712400e-01 9.203951e+02 
2.724800e-01 9.140359e+02 
2.736700e-01 9.080400e+02 
2.748800e-01 9.020501e+02 
2.761000e-01 8.960770e+02 
2.773200e-01 8.901695e+02 
2.785400e-01 8.843447e+02 
2.797000e-01 8.789027e+02 
2.808900e-01 8.733782e+02 
2.821400e-01 8.676377e+02 
2.833900e-01 8.619616e+02 
2.845500e-01 8.567782e+02 
2.857800e-01 8.513392e+02 
2.870300e-01 8.458713e+02 
2.882100e-01 8.407637e+02 
2.893900e-01 8.357213e+02 
2.906300e-01 8.304846e+02 
2.918900e-01 8.252201e+02 
2.930500e-01 8.204232e+02 
2.942500e-01 8.155123e+02 
2.954200e-01 8.107780e+02 
2.966500e-01 8.058511e+02 
2.978900e-01 8.009353e+02 
2.990400e-01 7.964217e+02 
3.002700e-01 7.916440e+02 
3.015100e-01 7.868777e+02 
3.026800e-01 7.824250e+02 
3.038500e-01 7.780149e+02 
3.050300e-01 7.736098e+02 
3.062600e-01 7.690660e+02 
3.075000e-01 7.645310e+02 
3.087000e-01 7.601855e+02 
3.099100e-01 7.558460e+02 
3.111200e-01 7.515511e+02 
3.123100e-01 7.473721e+02 
3.135300e-01 7.431286e+02 
3.147300e-01 7.389946e+02 
3.159900e-01 7.346958e+02 
3.171800e-01 7.306804e+02 
3.183700e-01 7.267059e+02 
3.196300e-01 7.225377e+02 
3.208400e-01 7.185732e+02 
3.220300e-01 7.147103e+02 
3.232000e-01 7.109529e+02 
3.244300e-01 7.070415e+02 
3.256700e-01 7.031354e+02 
3.269200e-01 6.992350e+02 
3.280800e-01 6.956485e+02 
3.292500e-01 6.920737e+02 
3.304800e-01 6.883529e+02 
3.317100e-01 6.846663e+02 
3.328900e-01 6.811614e+02 
3.340700e-01 6.776871e+02 
3.353600e-01 6.739352e+02 
3.365300e-01 6.705675e+02 
3.377100e-01 6.672003e+02 
3.389200e-01 6.637776e+02 
3.401600e-01 6.603014e+02 
3.413700e-01 6.569519e+02 
3.425300e-01 6.537769e+02 
3.437700e-01 6.504122e+02 
3.449800e-01 6.471578e+02 
3.461800e-01 6.439581e+02 
3.473600e-01 6.408436e+02 
3.485800e-01 6.376635e+02 
3.498100e-01 6.344852e+02 
3.510200e-01 6.313853e+02 
3.522000e-01 6.283878e+02 
3.533900e-01 6.253899e+02 
3.546400e-01 6.222858e+02 
3.558400e-01 6.193322e+02 
3.570600e-01 6.163546e+02 
3.582700e-01 6.134261e+02 
3.595000e-01 6.104742e+02 
3.607100e-01 6.076045e+02 
3.618900e-01 6.048364e+02 
3.631200e-01 6.019746e+02 
3.643200e-01 5.992057e+02 
3.655500e-01 5.963908e+02 
3.667300e-01 5.937122e+02 
3.679500e-01 5.909842e+02 
3.691900e-01 5.882342e+02 
3.703600e-01 5.856602e+02 
3.715700e-01 5.830193e+02 
3.727700e-01 5.804211e+02 
3.739900e-01 5.778071e+02 
3.752000e-01 5.752470e+02 
3.763900e-01 5.727489e+02 
3.775800e-01 5.702703e+02 
3.788200e-01 5.677079e+02 
3.800300e-01 5.652274e+02 
3.812100e-01 5.628345e+02 
3.824200e-01 5.604048e+02 
3.836100e-01 5.580336e+02 
3.848600e-01 5.555623e+02 
3.860400e-01 5.532475e+02 
3.872400e-01 5.509113e+02 
3.884600e-01 5.485642e+02 
3.896500e-01 5.462961e+02 
3.908700e-01 5.439884e+02 
3.920600e-01 5.417544e+02 
3.933100e-01 5.394257e+02 
3.945300e-01 5.371705e+02 
3.957200e-01 5.349980e+02 
3.969300e-01 5.328085e+02 
3.981700e-01 5.305817e+02 
3.993500e-01 5.284784e+02 
4.094840e-01 5.110333e+02 
4.272360e-01 4.831274e+02 
4.454600e-01 4.573662e+02 
4.630560e-01 4.348451e+02 
4.804610e-01 4.145264e+02 
4.980690e-01 3.956979e+02 
5.159230e-01 3.781775e+02 
5.317440e-01 3.638320e+02 
5.489640e-01 3.493654e+02 
5.671990e-01 3.352428e+02 
5.838690e-01 3.232914e+02 
6.018840e-01 3.113110e+02 
6.202330e-01 3.000251e+02 
6.379250e-01 2.899223e+02 
6.545410e-01 2.810963e+02 
6.714560e-01 2.726691e+02 
6.892080e-01 2.644077e+02 
7.066010e-01 2.568241e+02 
7.240540e-01 2.496801e+02 
7.420450e-01 2.427574e+02 
7.593780e-01 2.364691e+02 
7.764720e-01 2.305982e+02 
7.942840e-01 2.248084e+02 
8.116170e-01 2.194598e+02 
8.288310e-01 2.144043e+02 
8.462240e-01 2.095298e+02 
8.631980e-01 2.049785e+02 
8.810700e-01 2.003965e+02 
8.989410e-01 1.960116e+02 
9.166330e-01 1.918449e+02 
9.345640e-01 1.877900e+02 
9.515980e-01 1.840763e+02 
9.688720e-01 1.804427e+02 
9.865640e-01 1.768456e+02 
1.031870e+00 1.681838e+02 
1.063490e+00 1.625418e+02 
1.097920e+00 1.567410e+02 
1.134370e+00 1.509440e+02 
1.167730e+00 1.459249e+02 
1.203830e+00 1.407597e+02 
1.240470e+00 1.357989e+02 
1.275790e+00 1.312404e+02 
1.309140e+00 1.271541e+02 
1.342970e+00 1.231728e+02 
1.378420e+00 1.191996e+02 
1.413200e+00 1.154679e+02 
1.448110e+00 1.118854e+02 
1.484090e+00 1.083588e+02 
1.518820e+00 1.050997e+02 
1.552880e+00 1.020283e+02 
1.588630e+00 9.893987e+01 
1.623230e+00 9.607401e+01 
1.657720e+00 9.333108e+01 
1.692450e+00 9.068145e+01 
1.726400e+00 8.818337e+01 
1.762200e+00 8.564968e+01 
1.797880e+00 8.322785e+01 
1.833270e+00 8.091524e+01 
1.869070e+00 7.866532e+01 
1.903200e+00 7.660247e+01 
1.937740e+00 7.458957e+01 
1.973190e+00 7.259618e+01 
2.007440e+00 7.074116e+01 
2.042160e+00 6.892788e+01 
2.077900e+00 6.712474e+01 
2.112390e+00 6.544895e+01 
2.146220e+00 6.385604e+01 
2.181600e+00 6.224750e+01 
2.216930e+00 6.069753e+01 
2.250760e+00 5.926245e+01 
2.286500e+00 5.779613e+01 
2.321770e+00 5.639788e+01 
2.355950e+00 5.508699e+01 
2.391280e+00 5.377385e+01 
2.426240e+00 5.251695e+01 
2.460670e+00 5.131905e+01 
2.495640e+00 5.014109e+01 
2.531080e+00 4.898138e+01 
2.566220e+00 4.786834e+01 
2.600830e+00 4.680663e+01 
2.635080e+00 4.578829e+01 
2.670340e+00 4.477045e+01 
2.705970e+00 4.377318e+01 
2.740040e+00 4.284779e+01 
2.774520e+00 4.193627e+01 
2.809730e+00 4.103362e+01 
2.844390e+00 4.017185e+01 
2.879960e+00 3.931272e+01 
2.914860e+00 3.849336e+01 
2.949410e+00 3.770558e+01 
2.984440e+00 3.692899e+01 
3.019760e+00 3.616781e+01 
3.054730e+00 3.543560e+01 
3.089030e+00 3.473626e+01 
3.124060e+00 3.404161e+01 
3.159560e+00 3.335650e+01 
3.194710e+00 3.269679e+01 
3.229010e+00 3.207082e+01 
3.263320e+00 3.146061e+01 
3.297930e+00 3.086127e+01 
3.332830e+00 3.027198e+01 
3.368040e+00 2.969311e+01 
3.403300e+00 2.912879e+01 
3.438450e+00 2.858081e+01 
3.473060e+00 2.805547e+01 
3.508440e+00 2.753146e+01 
3.543110e+00 2.703134e+01 
3.577470e+00 2.654778e+01 
3.613040e+00 2.605978e+01 
3.648120e+00 2.559003e+01 
3.682910e+00 2.513584e+01 
3.718050e+00 2.468840e+01 
3.753320e+00 2.425050e+01 
3.787980e+00 2.383072e+01 
3.822290e+00 2.342504e+01 
3.857020e+00 2.302399e+01 
3.891920e+00 2.263052e+01 
3.926650e+00 2.224805e+01 
3.961970e+00 2.186836e+01 
3.997360e+00 2.149701e+01 
4.031670e+00 2.114538e+01 
4.066330e+00 2.079820e+01 
4.101420e+00 2.045480e+01 
4.136200e+00 2.012215e+01 
4.170810e+00 1.979858e+01 
4.206250e+00 1.947456e+01 
4.241580e+00 1.915882e+01 
4.276300e+00 1.885564e+01 
4.310970e+00 1.855963e+01 
4.346120e+00 1.826619e+01 
4.380600e+00 1.798479e+01 
4.414730e+00 1.771213e+01 
4.450350e+00 1.743388e+01 
4.485320e+00 1.716657e+01 
4.519810e+00 1.690864e+01 
4.555430e+00 1.664794e+01 
4.590870e+00 1.639419e+01 
4.625480e+00 1.615180e+01 
4.659910e+00 1.591555e+01 
4.695230e+00 1.567838e+01 
4.729960e+00 1.544994e+01 
4.764450e+00 1.522774e+01 
4.799530e+00 1.500647e+01 
4.834910e+00 1.478776e+01 
4.869700e+00 1.457734e+01 
4.904370e+00 1.437179e+01 
4.939450e+00 1.416797e+01 
4.973940e+00 1.397181e+01 
5.008430e+00 1.377936e+01 
5.043810e+00 1.358591e+01 
5.078840e+00 1.339815e+01 
5.113500e+00 1.321586e+01 
5.148890e+00 1.303377e+01 
5.184210e+00 1.285548e+01 
5.219060e+00 1.268293e+01 
5.253660e+00 1.251506e+01 
5.288570e+00 1.234874e+01 
5.323420e+00 1.218595e+01 
5.358440e+00 1.202557e+01 
5.393590e+00 1.186748e+01 
5.428310e+00 1.171445e+01 
5.462800e+00 1.156527e+01 
5.497640e+00 1.141719e+01 
5.532670e+00 1.127124e+01 
5.567280e+00 1.112964e+01 
5.602000e+00 1.099002e+01 
5.637270e+00 1.085103e+01 
5.672410e+00 1.071503e+01 
5.707020e+00 1.058333e+01 
5.742040e+00 1.045269e+01 
5.777430e+00 1.032296e+01 
5.812210e+00 1.019760e+01 
5.846820e+00 1.007525e+01 
5.881610e+00 9.954361e+00 
5.916510e+00 9.835067e+00 
5.951600e+00 9.717394e+00 
5.986560e+00 9.602199e+00 
6.021830e+00 9.487859e+00 
6.056490e+00 9.377538e+00 
6.091160e+00 9.269133e+00 
6.125830e+00 9.162426e+00 
6.161090e+00 9.055749e+00 
6.195760e+00 8.952797e+00 
6.230420e+00 8.851461e+00 
6.265690e+00 8.749950e+00 
6.300950e+00 8.650424e+00 
6.335620e+00 8.554060e+00 
6.370880e+00 8.457546e+00 
6.405550e+00 8.364379e+00 
6.440220e+00 8.272722e+00 
6.475480e+00 8.180900e+00 
6.510150e+00 8.092061e+00 
6.544810e+00 8.004784e+00 
6.580080e+00 7.917279e+00 
6.614750e+00 7.832524e+00 
6.649410e+00 7.749393e+00 
6.684080e+00 7.667507e+00 
6.719340e+00 7.585428e+00 
6.754010e+00 7.505975e+00 
6.788680e+00 7.427866e+00 
6.823940e+00 7.349556e+00 
6.859800e+00 7.271059e+00 
6.894470e+00 7.196496e+00 
6.929140e+00 7.123059e+00 
6.963800e+00 7.050657e+00 
6.999070e+00 6.978020e+00 
7.033730e+00 6.907878e+00 
7.068400e+00 6.838670e+00 
7.103660e+00 6.769245e+00 
7.138330e+00 6.702026e+00 
7.173600e+00 6.634805e+00 
7.208260e+00 6.569636e+00 
7.243530e+00 6.504208e+00 
7.277600e+00 6.442008e+00 
7.312860e+00 6.378634e+00 
7.348120e+00 6.316103e+00 
7.382790e+00 6.255426e+00 
7.417460e+00 6.195701e+00 
7.452720e+00 6.135836e+00 
7.487390e+00 6.077735e+00 
7.522650e+00 6.019408e+00 
7.557320e+00 5.962975e+00 
7.591990e+00 5.907325e+00 
7.627250e+00 5.851449e+00 
7.662510e+00 5.796287e+00 
7.697180e+00 5.742920e+00 
7.731850e+00 5.690289e+00 
7.766510e+00 5.638326e+00 
7.801180e+00 5.586989e+00 
7.836440e+00 5.535594e+00 
7.871110e+00 5.485786e+00 
7.906380e+00 5.435738e+00 
7.941040e+00 5.387157e+00 
7.976310e+00 5.338410e+00 
8.011570e+00 5.290375e+00 
8.046240e+00 5.243715e+00 
8.080900e+00 5.197623e+00 
8.115570e+00 5.152110e+00 
8.150830e+00 5.106543e+00 
8.185500e+00 5.062269e+00 
8.220770e+00 5.017762e+00 
8.255430e+00 4.974540e+00 
8.290100e+00 4.931986e+00 
8.324770e+00 4.889946e+00 
8.359430e+00 4.848403e+00 
8.394700e+00 4.806618e+00 
8.429960e+00 4.765431e+00 
8.464630e+00 4.725502e+00 
8.499890e+00 4.685356e+00 
8.534560e+00 4.646333e+00 
8.569200e+00 4.607781e+00 
