# Parameters:
# omega_b = 0.021783, omega_m = 0.150039, n_s = 0.875197, h = 58.543307, w = -1.000000, sigma_8 = 0.764331
# z = 1.000000
#
# k[1/Mpc] # P(k):
8.694000e-04 7.131188e+03 
2.077466e-03 1.417335e+04 
3.285532e-03 1.939443e+04 
4.493598e-03 2.328025e+04 
5.701664e-03 2.610051e+04 
6.909730e-03 2.805146e+04 
8.117797e-03 2.933346e+04 
9.325863e-03 3.005106e+04 
1.053393e-02 3.030764e+04 
1.174199e-02 3.019755e+04 
1.295006e-02 2.977761e+04 
1.415813e-02 2.912178e+04 
1.536619e-02 2.829382e+04 
1.657426e-02 2.734255e+04 
1.778233e-02 2.634369e+04 
1.899039e-02 2.537451e+04 
2.019846e-02 2.438503e+04 
2.140652e-02 2.335663e+04 
2.261459e-02 2.232398e+04 
2.382266e-02 2.132288e+04 
2.503072e-02 2.037053e+04 
2.623879e-02 1.947275e+04 
2.744685e-02 1.863063e+04 
2.865492e-02 1.784939e+04 
2.986299e-02 1.712852e+04 
3.100100e-02 1.650297e+04 
3.220400e-02 1.589660e+04 
3.288100e-02 1.557939e+04 
3.424300e-02 1.499051e+04 
3.555100e-02 1.448002e+04 
3.686000e-02 1.401844e+04 
3.795000e-02 1.366631e+04 
3.929100e-02 1.326959e+04 
4.039800e-02 1.296661e+04 
4.164000e-02 1.264754e+04 
4.294400e-02 1.233063e+04 
4.415000e-02 1.205043e+04 
4.542900e-02 1.175961e+04 
4.660900e-02 1.149716e+04 
4.782300e-02 1.122391e+04 
4.892900e-02 1.097562e+04 
5.031200e-02 1.066144e+04 
5.155900e-02 1.037263e+04 
5.238100e-02 1.018011e+04 
5.378200e-02 9.848951e+03 
5.513400e-02 9.524986e+03 
5.627600e-02 9.249549e+03 
5.735300e-02 8.990397e+03 
5.870100e-02 8.668668e+03 
5.988700e-02 8.390787e+03 
6.113500e-02 8.104901e+03 
6.225900e-02 7.854556e+03 
6.340100e-02 7.608971e+03 
6.480200e-02 7.321622e+03 
6.601100e-02 7.086869e+03 
6.725500e-02 6.859433e+03 
6.829100e-02 6.682214e+03 
6.958600e-02 6.474740e+03 
7.071100e-02 6.308403e+03 
7.192300e-02 6.142824e+03 
7.307400e-02 5.998110e+03 
7.412300e-02 5.876212e+03 
7.550400e-02 5.730304e+03 
7.663100e-02 5.621001e+03 
7.791200e-02 5.508560e+03 
7.912700e-02 5.411342e+03 
8.027600e-02 5.325729e+03 
8.138400e-02 5.247784e+03 
8.272200e-02 5.158564e+03 
8.406100e-02 5.072985e+03 
8.534100e-02 4.992837e+03 
8.653800e-02 4.917733e+03 
8.759800e-02 4.850940e+03 
8.900300e-02 4.761046e+03 
9.009000e-02 4.689541e+03 
9.113300e-02 4.618591e+03 
9.239600e-02 4.531453e+03 
9.358000e-02 4.447586e+03 
9.496100e-02 4.346598e+03 
9.608400e-02 4.263814e+03 
9.727500e-02 4.176091e+03 
9.852600e-02 4.081866e+03 
9.973800e-02 3.991928e+03 
1.009000e-01 3.907068e+03 
1.020900e-01 3.820903e+03 
1.034000e-01 3.728838e+03 
1.046000e-01 3.646996e+03 
1.057200e-01 3.573326e+03 
1.069100e-01 3.497673e+03 
1.082500e-01 3.416511e+03 
1.093900e-01 3.350875e+03 
1.105400e-01 3.287246e+03 
1.116900e-01 3.227700e+03 
1.129600e-01 3.164673e+03 
1.142000e-01 3.107372e+03 
1.153300e-01 3.057728e+03 
1.166400e-01 3.003559e+03 
1.177800e-01 2.959470e+03 
1.190000e-01 2.914305e+03 
1.201200e-01 2.875764e+03 
1.213400e-01 2.835126e+03 
1.227100e-01 2.792865e+03 
1.238900e-01 2.757675e+03 
1.250700e-01 2.724164e+03 
1.263200e-01 2.689604e+03 
1.275500e-01 2.656638e+03 
1.287500e-01 2.625044e+03 
1.299900e-01 2.592871e+03 
1.311300e-01 2.563426e+03 
1.323500e-01 2.531814e+03 
1.335900e-01 2.499610e+03 
1.347100e-01 2.470092e+03 
1.359800e-01 2.436544e+03 
1.372100e-01 2.403175e+03 
1.384300e-01 2.370151e+03 
1.395700e-01 2.338372e+03 
1.407700e-01 2.305445e+03 
1.420300e-01 2.269748e+03 
1.432800e-01 2.235142e+03 
1.444500e-01 2.202091e+03 
1.456300e-01 2.169469e+03 
1.468900e-01 2.135071e+03 
1.480500e-01 2.103993e+03 
1.491700e-01 2.074705e+03 
1.503800e-01 2.043853e+03 
1.516400e-01 2.012592e+03 
1.528200e-01 1.984678e+03 
1.540200e-01 1.956867e+03 
1.551900e-01 1.931327e+03 
1.564300e-01 1.905049e+03 
1.576600e-01 1.880116e+03 
1.588700e-01 1.856799e+03 
1.600900e-01 1.833803e+03 
1.612700e-01 1.813092e+03 
1.625400e-01 1.791223e+03 
1.637600e-01 1.771106e+03 
1.649500e-01 1.752129e+03 
1.662200e-01 1.732304e+03 
1.674000e-01 1.714529e+03 
1.685000e-01 1.698237e+03 
1.697500e-01 1.680028e+03 
1.710300e-01 1.661710e+03 
1.722200e-01 1.644983e+03 
1.734400e-01 1.627779e+03 
1.746400e-01 1.611135e+03 
1.758700e-01 1.594211e+03 
1.770900e-01 1.577394e+03 
1.782700e-01 1.561402e+03 
1.794600e-01 1.545250e+03 
1.807000e-01 1.528506e+03 
1.819100e-01 1.512445e+03 
1.830100e-01 1.497754e+03 
1.842200e-01 1.481795e+03 
1.855000e-01 1.465190e+03 
1.867000e-01 1.449632e+03 
1.879200e-01 1.434074e+03 
1.890900e-01 1.419382e+03 
1.902800e-01 1.404606e+03 
1.915200e-01 1.389460e+03 
1.926900e-01 1.375415e+03 
1.939000e-01 1.361174e+03 
1.951700e-01 1.346470e+03 
1.963100e-01 1.333516e+03 
1.975100e-01 1.320189e+03 
1.987800e-01 1.306308e+03 
2.000100e-01 1.293148e+03 
2.012500e-01 1.280247e+03 
2.023400e-01 1.269073e+03 
2.036100e-01 1.256290e+03 
2.048900e-01 1.243782e+03 
2.060400e-01 1.232712e+03 
2.072200e-01 1.221529e+03 
2.084200e-01 1.210500e+03 
2.096900e-01 1.199000e+03 
2.109200e-01 1.188029e+03 
2.121100e-01 1.177676e+03 
2.132700e-01 1.167730e+03 
2.145200e-01 1.157164e+03 
2.157200e-01 1.147211e+03 
2.168800e-01 1.137743e+03 
2.180700e-01 1.128162e+03 
2.193400e-01 1.118078e+03 
2.206000e-01 1.108214e+03 
2.217500e-01 1.099334e+03 
2.229500e-01 1.090190e+03 
2.241400e-01 1.081201e+03 
2.253500e-01 1.072183e+03 
2.264900e-01 1.063798e+03 
2.277100e-01 1.054901e+03 
2.289900e-01 1.045651e+03 
2.301500e-01 1.037380e+03 
2.313600e-01 1.028864e+03 
2.325600e-01 1.020441e+03 
2.337700e-01 1.012058e+03 
2.350000e-01 1.003649e+03 
2.362000e-01 9.955203e+02 
2.374100e-01 9.873933e+02 
2.386500e-01 9.791732e+02 
2.399100e-01 9.709309e+02 
2.410400e-01 9.635867e+02 
2.422500e-01 9.558133e+02 
2.435000e-01 9.478861e+02 
2.447300e-01 9.401857e+02 
2.458700e-01 9.331342e+02 
2.470600e-01 9.258617e+02 
2.483300e-01 9.181980e+02 
2.495600e-01 9.108791e+02 
2.507600e-01 9.038388e+02 
2.519600e-01 8.968837e+02 
2.532200e-01 8.896710e+02 
2.543700e-01 8.832027e+02 
2.555500e-01 8.766665e+02 
2.568000e-01 8.698256e+02 
2.580100e-01 8.632837e+02 
2.592400e-01 8.567657e+02 
2.604100e-01 8.506609e+02 
2.616100e-01 8.444714e+02 
2.628400e-01 8.382013e+02 
2.640600e-01 8.321074e+02 
2.652200e-01 8.263994e+02 
2.664300e-01 8.205122e+02 
2.676500e-01 8.146443e+02 
2.688400e-01 8.090290e+02 
2.700700e-01 8.033176e+02 
2.712400e-01 7.979452e+02 
2.724800e-01 7.923148e+02 
2.736700e-01 7.869987e+02 
2.748800e-01 7.816800e+02 
2.761000e-01 7.763767e+02 
2.773200e-01 7.711319e+02 
2.785400e-01 7.659572e+02 
2.797000e-01 7.611158e+02 
2.808900e-01 7.562011e+02 
2.821400e-01 7.510946e+02 
2.833900e-01 7.460454e+02 
2.845500e-01 7.414279e+02 
2.857800e-01 7.365829e+02 
2.870300e-01 7.317125e+02 
2.882100e-01 7.271633e+02 
2.893900e-01 7.226689e+02 
2.906300e-01 7.179998e+02 
2.918900e-01 7.133061e+02 
2.930500e-01 7.090297e+02 
2.942500e-01 7.046509e+02 
2.954200e-01 7.004267e+02 
2.966500e-01 6.960309e+02 
2.978900e-01 6.916453e+02 
2.990400e-01 6.876187e+02 
3.002700e-01 6.833538e+02 
3.015100e-01 6.790979e+02 
3.026800e-01 6.751223e+02 
3.038500e-01 6.711850e+02 
3.050300e-01 6.672522e+02 
3.062600e-01 6.631912e+02 
3.075000e-01 6.591383e+02 
3.087000e-01 6.552550e+02 
3.099100e-01 6.513774e+02 
3.111200e-01 6.475382e+02 
3.123100e-01 6.438000e+02 
3.135300e-01 6.400045e+02 
3.147300e-01 6.363071e+02 
3.159900e-01 6.324627e+02 
3.171800e-01 6.288691e+02 
3.183700e-01 6.253106e+02 
3.196300e-01 6.215789e+02 
3.208400e-01 6.180298e+02 
3.220300e-01 6.145720e+02 
3.232000e-01 6.112067e+02 
3.244300e-01 6.077030e+02 
3.256700e-01 6.042043e+02 
3.269200e-01 6.007109e+02 
3.280800e-01 5.974989e+02 
3.292500e-01 5.942955e+02 
3.304800e-01 5.909608e+02 
3.317100e-01 5.876570e+02 
3.328900e-01 5.845162e+02 
3.340700e-01 5.814032e+02 
3.353600e-01 5.780409e+02 
3.365300e-01 5.750228e+02 
3.377100e-01 5.720055e+02 
3.389200e-01 5.689386e+02 
3.401600e-01 5.658241e+02 
3.413700e-01 5.628235e+02 
3.425300e-01 5.599796e+02 
3.437700e-01 5.569661e+02 
3.449800e-01 5.540515e+02 
3.461800e-01 5.511862e+02 
3.473600e-01 5.483978e+02 
3.485800e-01 5.455519e+02 
3.498100e-01 5.427078e+02 
3.510200e-01 5.399342e+02 
3.522000e-01 5.372522e+02 
3.533900e-01 5.345701e+02 
3.546400e-01 5.317958e+02 
3.558400e-01 5.291564e+02 
3.570600e-01 5.264956e+02 
3.582700e-01 5.238789e+02 
3.595000e-01 5.212414e+02 
3.607100e-01 5.186794e+02 
3.618900e-01 5.162097e+02 
3.631200e-01 5.136567e+02 
3.643200e-01 5.111865e+02 
3.655500e-01 5.086755e+02 
3.667300e-01 5.062863e+02 
3.679500e-01 5.038570e+02 
3.691900e-01 5.014083e+02 
3.703600e-01 4.991164e+02 
3.715700e-01 4.967651e+02 
3.727700e-01 4.944519e+02 
3.739900e-01 4.921262e+02 
3.752000e-01 4.898511e+02 
3.763900e-01 4.876313e+02 
3.775800e-01 4.854289e+02 
3.788200e-01 4.831521e+02 
3.800300e-01 4.809482e+02 
3.812100e-01 4.788248e+02 
3.824200e-01 4.766704e+02 
3.836100e-01 4.745680e+02 
3.848600e-01 4.723769e+02 
3.860400e-01 4.703247e+02 
3.872400e-01 4.682535e+02 
3.884600e-01 4.661759e+02 
3.896500e-01 4.641693e+02 
3.908700e-01 4.621277e+02 
3.920600e-01 4.601515e+02 
3.933100e-01 4.580916e+02 
3.945300e-01 4.560966e+02 
3.957200e-01 4.541778e+02 
3.969300e-01 4.522449e+02 
3.981700e-01 4.502790e+02 
3.993500e-01 4.484223e+02 
4.094840e-01 4.330409e+02 
4.272360e-01 4.085163e+02 
4.454600e-01 3.859336e+02 
4.630560e-01 3.662243e+02 
4.804610e-01 3.484584e+02 
4.980690e-01 3.320035e+02 
5.159230e-01 3.166974e+02 
5.317440e-01 3.041714e+02 
5.489640e-01 2.915501e+02 
5.671990e-01 2.792397e+02 
5.838690e-01 2.688349e+02 
6.018840e-01 2.584249e+02 
6.202330e-01 2.486403e+02 
6.379250e-01 2.398929e+02 
6.545410e-01 2.322731e+02 
6.714560e-01 2.250136e+02 
6.892080e-01 2.179097e+02 
7.066010e-01 2.114094e+02 
7.240540e-01 2.052942e+02 
7.420450e-01 1.993890e+02 
7.593780e-01 1.940382e+02 
7.764720e-01 1.890528e+02 
7.942840e-01 1.841454e+02 
8.116170e-01 1.796252e+02 
8.288310e-01 1.753634e+02 
8.462240e-01 1.712622e+02 
8.631980e-01 1.674428e+02 
8.810700e-01 1.636033e+02 
8.989410e-01 1.599363e+02 
9.166330e-01 1.564583e+02 
9.345640e-01 1.530793e+02 
9.515980e-01 1.499918e+02 
9.688720e-01 1.469758e+02 
9.865640e-01 1.439955e+02 
1.031870e+00 1.368343e+02 
1.063490e+00 1.321843e+02 
1.097920e+00 1.274135e+02 
1.134370e+00 1.226561e+02 
1.167730e+00 1.185460e+02 
1.203830e+00 1.143228e+02 
1.240470e+00 1.102729e+02 
1.275790e+00 1.065581e+02 
1.309140e+00 1.032298e+02 
1.342970e+00 9.999116e+01 
1.378420e+00 9.676275e+01 
1.413200e+00 9.373303e+01 
1.448110e+00 9.082577e+01 
1.484090e+00 8.796678e+01 
1.518820e+00 8.532544e+01 
1.552880e+00 8.283732e+01 
1.588630e+00 8.033582e+01 
1.623230e+00 7.801655e+01 
1.657720e+00 7.579716e+01 
1.692450e+00 7.365284e+01 
1.726400e+00 7.163238e+01 
1.762200e+00 6.958422e+01 
1.797880e+00 6.762525e+01 
1.833270e+00 6.575611e+01 
1.869070e+00 6.393787e+01 
1.903200e+00 6.226990e+01 
1.937740e+00 6.064267e+01 
1.973190e+00 5.903192e+01 
2.007440e+00 5.753261e+01 
2.042160e+00 5.606636e+01 
2.077900e+00 5.460906e+01 
2.112390e+00 5.325384e+01 
2.146220e+00 5.196655e+01 
2.181600e+00 5.066583e+01 
2.216930e+00 4.941235e+01 
2.250760e+00 4.825183e+01 
2.286500e+00 4.706612e+01 
2.321770e+00 4.593536e+01 
2.355950e+00 4.487467e+01 
2.391280e+00 4.381221e+01 
2.426240e+00 4.279488e+01 
2.460670e+00 4.182515e+01 
2.495640e+00 4.087164e+01 
2.531080e+00 3.993302e+01 
2.566220e+00 3.903178e+01 
2.600830e+00 3.817180e+01 
2.635080e+00 3.734670e+01 
2.670340e+00 3.652160e+01 
2.705970e+00 3.571325e+01 
2.740040e+00 3.496325e+01 
2.774520e+00 3.422467e+01 
2.809730e+00 3.349268e+01 
2.844390e+00 3.279354e+01 
2.879960e+00 3.209633e+01 
2.914860e+00 3.143155e+01 
2.949410e+00 3.079230e+01 
2.984440e+00 3.016163e+01 
3.019760e+00 2.954362e+01 
3.054730e+00 2.894917e+01 
3.089030e+00 2.838090e+01 
3.124060e+00 2.781650e+01 
3.159560e+00 2.725998e+01 
3.194710e+00 2.672375e+01 
3.229010e+00 2.621480e+01 
3.263320e+00 2.571830e+01 
3.297930e+00 2.523069e+01 
3.332830e+00 2.475140e+01 
3.368040e+00 2.428039e+01 
3.403300e+00 2.382107e+01 
3.438450e+00 2.337480e+01 
3.473060e+00 2.294689e+01 
3.508440e+00 2.252005e+01 
3.543110e+00 2.211261e+01 
3.577470e+00 2.171845e+01 
3.613040e+00 2.132067e+01 
3.648120e+00 2.093776e+01 
3.682910e+00 2.056747e+01 
3.718050e+00 2.020253e+01 
3.753320e+00 1.984530e+01 
3.787980e+00 1.950273e+01 
3.822290e+00 1.917162e+01 
3.857020e+00 1.884418e+01 
3.891920e+00 1.852288e+01 
3.926650e+00 1.821046e+01 
3.961970e+00 1.790028e+01 
3.997360e+00 1.759684e+01 
4.031670e+00 1.730947e+01 
4.066330e+00 1.702565e+01 
4.101420e+00 1.674490e+01 
4.136200e+00 1.647287e+01 
4.170810e+00 1.620826e+01 
4.206250e+00 1.594327e+01 
4.241580e+00 1.568505e+01 
4.276300e+00 1.543697e+01 
4.310970e+00 1.519470e+01 
4.346120e+00 1.495452e+01 
4.380600e+00 1.472413e+01 
4.414730e+00 1.450091e+01 
4.450350e+00 1.427302e+01 
4.485320e+00 1.405408e+01 
4.519810e+00 1.384277e+01 
4.555430e+00 1.362916e+01 
4.590870e+00 1.342122e+01 
4.625480e+00 1.322254e+01 
4.659910e+00 1.302890e+01 
4.695230e+00 1.283446e+01 
4.729960e+00 1.264716e+01 
4.764450e+00 1.246495e+01 
4.799530e+00 1.228346e+01 
4.834910e+00 1.210408e+01 
4.869700e+00 1.193145e+01 
4.904370e+00 1.176282e+01 
4.939450e+00 1.159560e+01 
4.973940e+00 1.143461e+01 
5.008430e+00 1.127667e+01 
5.043810e+00 1.111789e+01 
5.078840e+00 1.096376e+01 
5.113500e+00 1.081413e+01 
5.148890e+00 1.066462e+01 
5.184210e+00 1.051822e+01 
5.219060e+00 1.037653e+01 
5.253660e+00 1.023867e+01 
5.288570e+00 1.010209e+01 
5.323420e+00 9.968388e+00 
5.358440e+00 9.836659e+00 
5.393590e+00 9.706817e+00 
5.428310e+00 9.581105e+00 
5.462800e+00 9.458549e+00 
5.497640e+00 9.336908e+00 
5.532670e+00 9.216994e+00 
5.567280e+00 9.100649e+00 
5.602000e+00 8.985933e+00 
5.637270e+00 8.871733e+00 
5.672410e+00 8.759983e+00 
5.707020e+00 8.651783e+00 
5.742040e+00 8.544426e+00 
5.777430e+00 8.437826e+00 
5.812210e+00 8.334817e+00 
5.846820e+00 8.234276e+00 
5.881610e+00 8.134937e+00 
5.916510e+00 8.036911e+00 
5.951600e+00 7.940217e+00 
5.986560e+00 7.845560e+00 
6.021830e+00 7.751609e+00 
6.056490e+00 7.660964e+00 
6.091160e+00 7.571893e+00 
6.125830e+00 7.484223e+00 
6.161090e+00 7.396577e+00 
6.195760e+00 7.311991e+00 
6.230420e+00 7.228735e+00 
6.265690e+00 7.145340e+00 
6.300950e+00 7.063583e+00 
6.335620e+00 6.984427e+00 
6.370880e+00 6.905151e+00 
6.405550e+00 6.828628e+00 
6.440220e+00 6.753349e+00 
6.475480e+00 6.677937e+00 
6.510150e+00 6.604982e+00 
6.544810e+00 6.533316e+00 
6.580080e+00 6.461467e+00 
6.614750e+00 6.391878e+00 
6.649410e+00 6.323633e+00 
6.684080e+00 6.256414e+00 
6.719340e+00 6.189040e+00 
6.754010e+00 6.123827e+00 
6.788680e+00 6.059726e+00 
6.823940e+00 5.995463e+00 
6.859800e+00 5.931049e+00 
6.894470e+00 5.869877e+00 
6.929140e+00 5.809636e+00 
6.963800e+00 5.750246e+00 
6.999070e+00 5.690666e+00 
7.033730e+00 5.633147e+00 
7.068400e+00 5.576396e+00 
7.103660e+00 5.519471e+00 
7.138330e+00 5.464360e+00 
7.173600e+00 5.409264e+00 
7.208260e+00 5.355850e+00 
7.243530e+00 5.302227e+00 
7.277600e+00 5.251257e+00 
7.312860e+00 5.199335e+00 
7.348120e+00 5.148105e+00 
7.382790e+00 5.098396e+00 
7.417460e+00 5.049483e+00 
7.452720e+00 5.000464e+00 
7.487390e+00 4.952891e+00 
7.522650e+00 4.905135e+00 
7.557320e+00 4.858945e+00 
7.591990e+00 4.813402e+00 
7.627250e+00 4.767675e+00 
7.662510e+00 4.722534e+00 
7.697180e+00 4.678877e+00 
7.731850e+00 4.635828e+00 
7.766510e+00 4.593327e+00 
7.801180e+00 4.551339e+00 
7.836440e+00 4.509320e+00 
7.871110e+00 4.468609e+00 
7.906380e+00 4.427702e+00 
7.941040e+00 4.387996e+00 
7.976310e+00 4.348163e+00 
8.011570e+00 4.308925e+00 
8.046240e+00 4.270809e+00 
8.080900e+00 4.233160e+00 
8.115570e+00 4.195988e+00 
8.150830e+00 4.158792e+00 
8.185500e+00 4.122653e+00 
8.220770e+00 4.086323e+00 
8.255430e+00 4.051043e+00 
8.290100e+00 4.016327e+00 
8.324770e+00 3.982031e+00 
8.359430e+00 3.948141e+00 
8.394700e+00 3.914054e+00 
8.429960e+00 3.880469e+00 
8.464630e+00 3.847922e+00 
8.499890e+00 3.815199e+00 
8.534560e+00 3.783390e+00 
8.569200e+00 3.751967e+00 
