# Parameters:
# omega_b = 0.022161, omega_m = 0.130197, n_s = 0.982283, h = 63.740157, w = -1.000000, sigma_8 = 0.714961
# z = 1.000000
#
# k[1/Mpc] # P(k):
8.694000e-04 5.682836e+03 
2.077466e-03 1.223031e+04 
3.285532e-03 1.730438e+04 
4.493598e-03 2.114862e+04 
5.701664e-03 2.395375e+04 
6.909730e-03 2.589082e+04 
8.117797e-03 2.715208e+04 
9.325863e-03 2.783754e+04 
1.053393e-02 2.804876e+04 
1.174199e-02 2.787995e+04 
1.295006e-02 2.739045e+04 
1.415813e-02 2.665905e+04 
1.536619e-02 2.575390e+04 
1.657426e-02 2.472803e+04 
1.778233e-02 2.365863e+04 
1.899039e-02 2.262976e+04 
2.019846e-02 2.160275e+04 
2.140652e-02 2.056058e+04 
2.261459e-02 1.953668e+04 
2.382266e-02 1.856529e+04 
2.503072e-02 1.766135e+04 
2.623879e-02 1.682873e+04 
2.744685e-02 1.606908e+04 
2.865492e-02 1.538181e+04 
2.986299e-02 1.476330e+04 
3.100100e-02 1.424094e+04 
3.220400e-02 1.374682e+04 
3.288100e-02 1.349379e+04 
3.424300e-02 1.303203e+04 
3.555100e-02 1.263841e+04 
3.686000e-02 1.228649e+04 
3.795000e-02 1.201869e+04 
3.929100e-02 1.171477e+04 
4.039800e-02 1.147856e+04 
4.164000e-02 1.122426e+04 
4.294400e-02 1.096077e+04 
4.415000e-02 1.072024e+04 
4.542900e-02 1.045885e+04 
4.660900e-02 1.021585e+04 
4.782300e-02 9.952999e+03 
4.892900e-02 9.709556e+03 
5.031200e-02 9.395988e+03 
5.155900e-02 9.104514e+03 
5.238100e-02 8.909714e+03 
5.378200e-02 8.574998e+03 
5.513400e-02 8.250024e+03 
5.627600e-02 7.976944e+03 
5.735300e-02 7.723368e+03 
5.870100e-02 7.413890e+03 
5.988700e-02 7.151713e+03 
6.113500e-02 6.887489e+03 
6.225900e-02 6.661443e+03 
6.340100e-02 6.444796e+03 
6.480200e-02 6.197062e+03 
6.601100e-02 6.000938e+03 
6.725500e-02 5.816086e+03 
6.829100e-02 5.676483e+03 
6.958600e-02 5.516669e+03 
7.071100e-02 5.392285e+03 
7.192300e-02 5.271462e+03 
7.307400e-02 5.168226e+03 
7.412300e-02 5.082782e+03 
7.550400e-02 4.982159e+03 
7.663100e-02 4.907244e+03 
7.791200e-02 4.829838e+03 
7.912700e-02 4.761285e+03 
8.027600e-02 4.698884e+03 
8.138400e-02 4.639858e+03 
8.272200e-02 4.568673e+03 
8.406100e-02 4.496140e+03 
8.534100e-02 4.423259e+03 
8.653800e-02 4.351175e+03 
8.759800e-02 4.285049e+03 
8.900300e-02 4.193371e+03 
9.009000e-02 4.118817e+03 
9.113300e-02 4.044159e+03 
9.239600e-02 3.952272e+03 
9.358000e-02 3.864041e+03 
9.496100e-02 3.759048e+03 
9.608400e-02 3.674124e+03 
9.727500e-02 3.585145e+03 
9.852600e-02 3.492505e+03 
9.973800e-02 3.405700e+03 
1.009000e-01 3.325124e+03 
1.020900e-01 3.246763e+03 
1.034000e-01 3.164742e+03 
1.046000e-01 3.093584e+03 
1.057200e-01 3.032459e+03 
1.069100e-01 2.970708e+03 
1.082500e-01 2.907371e+03 
1.093900e-01 2.857767e+03 
1.105400e-01 2.810612e+03 
1.116900e-01 2.768346e+03 
1.129600e-01 2.724104e+03 
1.142000e-01 2.684967e+03 
1.153300e-01 2.651137e+03 
1.166400e-01 2.614370e+03 
1.177800e-01 2.583908e+03 
1.190000e-01 2.552436e+03 
1.201200e-01 2.524035e+03 
1.213400e-01 2.493793e+03 
1.227100e-01 2.459312e+03 
1.238900e-01 2.429896e+03 
1.250700e-01 2.399580e+03 
1.263200e-01 2.367462e+03 
1.275500e-01 2.334922e+03 
1.287500e-01 2.302996e+03 
1.299900e-01 2.269320e+03 
1.311300e-01 2.238234e+03 
1.323500e-01 2.204467e+03 
1.335900e-01 2.170289e+03 
1.347100e-01 2.139240e+03 
1.359800e-01 2.104446e+03 
1.372100e-01 2.070770e+03 
1.384300e-01 2.037990e+03 
1.395700e-01 2.007676e+03 
1.407700e-01 1.976465e+03 
1.420300e-01 1.944419e+03 
1.432800e-01 1.913363e+03 
1.444500e-01 1.885329e+03 
1.456300e-01 1.857655e+03 
1.468900e-01 1.829407e+03 
1.480500e-01 1.804151e+03 
1.491700e-01 1.780672e+03 
1.503800e-01 1.756350e+03 
1.516400e-01 1.731755e+03 
1.528200e-01 1.710066e+03 
1.540200e-01 1.688443e+03 
1.551900e-01 1.668571e+03 
1.564300e-01 1.648113e+03 
1.576600e-01 1.628562e+03 
1.588700e-01 1.610112e+03 
1.600900e-01 1.591882e+03 
1.612700e-01 1.574987e+03 
1.625400e-01 1.557142e+03 
1.637600e-01 1.540356e+03 
1.649500e-01 1.524299e+03 
1.662200e-01 1.507434e+03 
1.674000e-01 1.491814e+03 
1.685000e-01 1.477498e+03 
1.697500e-01 1.461258e+03 
1.710300e-01 1.444684e+03 
1.722200e-01 1.429551e+03 
1.734400e-01 1.413695e+03 
1.746400e-01 1.398346e+03 
1.758700e-01 1.382713e+03 
1.770900e-01 1.367124e+03 
1.782700e-01 1.352305e+03 
1.794600e-01 1.337385e+03 
1.807000e-01 1.321955e+03 
1.819100e-01 1.307159e+03 
1.830100e-01 1.293794e+03 
1.842200e-01 1.279308e+03 
1.855000e-01 1.264251e+03 
1.867000e-01 1.250411e+03 
1.879200e-01 1.236574e+03 
1.890900e-01 1.223553e+03 
1.902800e-01 1.210693e+03 
1.915200e-01 1.197511e+03 
1.926900e-01 1.185344e+03 
1.939000e-01 1.173188e+03 
1.951700e-01 1.160637e+03 
1.963100e-01 1.149623e+03 
1.975100e-01 1.138405e+03 
1.987800e-01 1.126720e+03 
2.000100e-01 1.115662e+03 
2.012500e-01 1.104869e+03 
2.023400e-01 1.095519e+03 
2.036100e-01 1.084816e+03 
2.048900e-01 1.074322e+03 
2.060400e-01 1.065034e+03 
2.072200e-01 1.055643e+03 
2.084200e-01 1.046292e+03 
2.096900e-01 1.036542e+03 
2.109200e-01 1.027240e+03 
2.121100e-01 1.018331e+03 
2.132700e-01 1.009765e+03 
2.145200e-01 1.000665e+03 
2.157200e-01 9.919910e+02 
2.168800e-01 9.836922e+02 
2.180700e-01 9.752944e+02 
2.193400e-01 9.664057e+02 
2.206000e-01 9.576163e+02 
2.217500e-01 9.497046e+02 
2.229500e-01 9.415591e+02 
2.241400e-01 9.334365e+02 
2.253500e-01 9.252854e+02 
2.264900e-01 9.177072e+02 
2.277100e-01 9.096272e+02 
2.289900e-01 9.011825e+02 
2.301500e-01 8.936334e+02 
2.313600e-01 8.858612e+02 
2.325600e-01 8.781200e+02 
2.337700e-01 8.704180e+02 
2.350000e-01 8.626934e+02 
2.362000e-01 8.552156e+02 
2.374100e-01 8.477252e+02 
2.386500e-01 8.401511e+02 
2.399100e-01 8.325587e+02 
2.410400e-01 8.257939e+02 
2.422500e-01 8.186356e+02 
2.435000e-01 8.113376e+02 
2.447300e-01 8.042540e+02 
2.458700e-01 7.977828e+02 
2.470600e-01 7.911105e+02 
2.483300e-01 7.840813e+02 
2.495600e-01 7.773851e+02 
2.507600e-01 7.709660e+02 
2.519600e-01 7.646261e+02 
2.532200e-01 7.580532e+02 
2.543700e-01 7.521872e+02 
2.555500e-01 7.462796e+02 
2.568000e-01 7.400980e+02 
2.580100e-01 7.341878e+02 
2.592400e-01 7.283362e+02 
2.604100e-01 7.228726e+02 
2.616100e-01 7.173341e+02 
2.628400e-01 7.117244e+02 
2.640600e-01 7.063092e+02 
2.652200e-01 7.012521e+02 
2.664300e-01 6.960368e+02 
2.676500e-01 6.908393e+02 
2.688400e-01 6.858911e+02 
2.700700e-01 6.808745e+02 
2.712400e-01 6.761562e+02 
2.724800e-01 6.712117e+02 
2.736700e-01 6.665586e+02 
2.748800e-01 6.619190e+02 
2.761000e-01 6.572931e+02 
2.773200e-01 6.527187e+02 
2.785400e-01 6.482118e+02 
2.797000e-01 6.440080e+02 
2.808900e-01 6.397410e+02 
2.821400e-01 6.353077e+02 
2.833900e-01 6.309248e+02 
2.845500e-01 6.269262e+02 
2.857800e-01 6.227309e+02 
2.870300e-01 6.185137e+02 
2.882100e-01 6.145750e+02 
2.893900e-01 6.106868e+02 
2.906300e-01 6.066491e+02 
2.918900e-01 6.025906e+02 
2.930500e-01 5.988929e+02 
2.942500e-01 5.951076e+02 
2.954200e-01 5.914579e+02 
2.966500e-01 5.876601e+02 
2.978900e-01 5.838713e+02 
2.990400e-01 5.803929e+02 
3.002700e-01 5.767099e+02 
3.015100e-01 5.730353e+02 
3.026800e-01 5.696028e+02 
3.038500e-01 5.662036e+02 
3.050300e-01 5.628086e+02 
3.062600e-01 5.593055e+02 
3.075000e-01 5.558097e+02 
3.087000e-01 5.524602e+02 
3.099100e-01 5.491159e+02 
3.111200e-01 5.458061e+02 
3.123100e-01 5.425856e+02 
3.135300e-01 5.393158e+02 
3.147300e-01 5.361308e+02 
3.159900e-01 5.328192e+02 
3.171800e-01 5.297261e+02 
3.183700e-01 5.266646e+02 
3.196300e-01 5.234543e+02 
3.208400e-01 5.204012e+02 
3.220300e-01 5.174267e+02 
3.232000e-01 5.145350e+02 
3.244300e-01 5.115256e+02 
3.256700e-01 5.085206e+02 
3.269200e-01 5.055204e+02 
3.280800e-01 5.027620e+02 
3.292500e-01 5.000137e+02 
3.304800e-01 4.971537e+02 
3.317100e-01 4.943203e+02 
3.328900e-01 4.916269e+02 
3.340700e-01 4.889573e+02 
3.353600e-01 4.860764e+02 
3.365300e-01 4.834915e+02 
3.377100e-01 4.809073e+02 
3.389200e-01 4.782808e+02 
3.401600e-01 4.756135e+02 
3.413700e-01 4.730454e+02 
3.425300e-01 4.706126e+02 
3.437700e-01 4.680348e+02 
3.449800e-01 4.655417e+02 
3.461800e-01 4.630908e+02 
3.473600e-01 4.607061e+02 
3.485800e-01 4.582735e+02 
3.498100e-01 4.558424e+02 
3.510200e-01 4.534716e+02 
3.522000e-01 4.511792e+02 
3.533900e-01 4.488868e+02 
3.546400e-01 4.465164e+02 
3.558400e-01 4.442614e+02 
3.570600e-01 4.419881e+02 
3.582700e-01 4.397527e+02 
3.595000e-01 4.374995e+02 
3.607100e-01 4.353107e+02 
3.618900e-01 4.332010e+02 
3.631200e-01 4.310200e+02 
3.643200e-01 4.289100e+02 
3.655500e-01 4.267651e+02 
3.667300e-01 4.247243e+02 
3.679500e-01 4.226486e+02 
3.691900e-01 4.205564e+02 
3.703600e-01 4.185984e+02 
3.715700e-01 4.165895e+02 
3.727700e-01 4.146133e+02 
3.739900e-01 4.126261e+02 
3.752000e-01 4.106815e+02 
3.763900e-01 4.087843e+02 
3.775800e-01 4.069019e+02 
3.788200e-01 4.049561e+02 
3.800300e-01 4.030725e+02 
3.812100e-01 4.012570e+02 
3.824200e-01 3.994145e+02 
3.836100e-01 3.976166e+02 
3.848600e-01 3.957428e+02 
3.860400e-01 3.939878e+02 
3.872400e-01 3.922167e+02 
3.884600e-01 3.904393e+02 
3.896500e-01 3.887223e+02 
3.908700e-01 3.869756e+02 
3.920600e-01 3.852848e+02 
3.933100e-01 3.835223e+02 
3.945300e-01 3.818156e+02 
3.957200e-01 3.801726e+02 
3.969300e-01 3.785172e+02 
3.981700e-01 3.768337e+02 
3.993500e-01 3.752436e+02 
4.094840e-01 3.620702e+02 
4.272360e-01 3.410459e+02 
4.454600e-01 3.216880e+02 
4.630560e-01 3.048072e+02 
4.804610e-01 2.896109e+02 
4.980690e-01 2.755566e+02 
5.159230e-01 2.625008e+02 
5.317440e-01 2.518274e+02 
5.489640e-01 2.410817e+02 
5.671990e-01 2.306033e+02 
5.838690e-01 2.217481e+02 
6.018840e-01 2.128903e+02 
6.202330e-01 2.045633e+02 
6.379250e-01 1.971161e+02 
6.545410e-01 1.906281e+02 
6.714560e-01 1.844494e+02 
6.892080e-01 1.784009e+02 
7.066010e-01 1.728717e+02 
7.240540e-01 1.676710e+02 
7.420450e-01 1.626564e+02 
7.593780e-01 1.581190e+02 
7.764720e-01 1.538977e+02 
7.942840e-01 1.497485e+02 
8.116170e-01 1.459368e+02 
8.288310e-01 1.423525e+02 
8.462240e-01 1.389119e+02 
8.631980e-01 1.357177e+02 
8.810700e-01 1.325149e+02 
8.989410e-01 1.294654e+02 
9.166330e-01 1.265824e+02 
9.345640e-01 1.237904e+02 
9.515980e-01 1.212489e+02 
9.688720e-01 1.187743e+02 
9.865640e-01 1.163383e+02 
1.031870e+00 1.105136e+02 
1.063490e+00 1.067585e+02 
1.097920e+00 1.029272e+02 
1.134370e+00 9.912558e+01 
1.167730e+00 9.585826e+01 
1.203830e+00 9.251627e+01 
1.240470e+00 8.932268e+01 
1.275790e+00 8.640590e+01 
1.309140e+00 8.379771e+01 
1.342970e+00 8.126783e+01 
1.378420e+00 7.875071e+01 
1.413200e+00 7.639315e+01 
1.448110e+00 7.413366e+01 
1.484090e+00 7.191451e+01 
1.518820e+00 6.986569e+01 
1.552880e+00 6.793702e+01 
1.588630e+00 6.599802e+01 
1.623230e+00 6.420110e+01 
1.657720e+00 6.248142e+01 
1.692450e+00 6.081891e+01 
1.726400e+00 5.925232e+01 
1.762200e+00 5.766379e+01 
1.797880e+00 5.614255e+01 
1.833270e+00 5.469087e+01 
1.869070e+00 5.327728e+01 
1.903200e+00 5.197863e+01 
1.937740e+00 5.071080e+01 
1.973190e+00 4.945467e+01 
2.007440e+00 4.828383e+01 
2.042160e+00 4.713694e+01 
2.077900e+00 4.599603e+01 
2.112390e+00 4.493336e+01 
2.146220e+00 4.392297e+01 
2.181600e+00 4.290015e+01 
2.216930e+00 4.191298e+01 
2.250760e+00 4.099780e+01 
2.286500e+00 4.006149e+01 
2.321770e+00 3.916722e+01 
2.355950e+00 3.832683e+01 
2.391280e+00 3.748358e+01 
2.426240e+00 3.667470e+01 
2.460670e+00 3.590251e+01 
2.495640e+00 3.514224e+01 
2.531080e+00 3.439247e+01 
2.566220e+00 3.367126e+01 
2.600830e+00 3.298188e+01 
2.635080e+00 3.231936e+01 
2.670340e+00 3.165532e+01 
2.705970e+00 3.100383e+01 
2.740040e+00 3.039857e+01 
2.774520e+00 2.980165e+01 
2.809730e+00 2.920868e+01 
2.844390e+00 2.864136e+01 
2.879960e+00 2.807455e+01 
2.914860e+00 2.753324e+01 
2.949410e+00 2.701197e+01 
2.984440e+00 2.649649e+01 
3.019760e+00 2.599066e+01 
3.054730e+00 2.550355e+01 
3.089030e+00 2.503654e+01 
3.124060e+00 2.457219e+01 
3.159560e+00 2.411370e+01 
3.194710e+00 2.367092e+01 
3.229010e+00 2.325012e+01 
3.263320e+00 2.283852e+01 
3.297930e+00 2.243388e+01 
3.332830e+00 2.203558e+01 
3.368040e+00 2.164342e+01 
3.403300e+00 2.126039e+01 
3.438450e+00 2.088738e+01 
3.473060e+00 2.052935e+01 
3.508440e+00 2.017141e+01 
3.543110e+00 1.982942e+01 
3.577470e+00 1.949774e+01 
3.613040e+00 1.916269e+01 
3.648120e+00 1.883961e+01 
3.682910e+00 1.852677e+01 
3.718050e+00 1.821784e+01 
3.753320e+00 1.791502e+01 
3.787980e+00 1.762411e+01 
3.822290e+00 1.734253e+01 
3.857020e+00 1.706356e+01 
3.891920e+00 1.678948e+01 
3.926650e+00 1.652250e+01 
3.961970e+00 1.625713e+01 
3.997360e+00 1.599702e+01 
4.031670e+00 1.575046e+01 
4.066330e+00 1.550640e+01 
4.101420e+00 1.526485e+01 
4.136200e+00 1.503026e+01 
4.170810e+00 1.480195e+01 
4.206250e+00 1.457285e+01 
4.241580e+00 1.434943e+01 
4.276300e+00 1.413437e+01 
4.310970e+00 1.392407e+01 
4.346120e+00 1.371534e+01 
4.380600e+00 1.351479e+01 
4.414730e+00 1.332038e+01 
4.450350e+00 1.312140e+01 
4.485320e+00 1.293016e+01 
4.519810e+00 1.274524e+01 
4.555430e+00 1.255811e+01 
4.590870e+00 1.237575e+01 
4.625480e+00 1.220122e+01 
4.659910e+00 1.203104e+01 
4.695230e+00 1.185979e+01 
4.729960e+00 1.169471e+01 
4.764450e+00 1.153394e+01 
4.799530e+00 1.137354e+01 
4.834910e+00 1.121494e+01 
4.869700e+00 1.106202e+01 
4.904370e+00 1.091253e+01 
4.939450e+00 1.076416e+01 
4.973940e+00 1.062107e+01 
5.008430e+00 1.048063e+01 
5.043810e+00 1.033924e+01 
5.078840e+00 1.020184e+01 
5.113500e+00 1.006841e+01 
5.148890e+00 9.934786e+00 
5.184210e+00 9.803896e+00 
5.219060e+00 9.677115e+00 
5.253660e+00 9.553545e+00 
5.288570e+00 9.431089e+00 
5.323420e+00 9.311080e+00 
5.358440e+00 9.192691e+00 
5.393590e+00 9.075960e+00 
5.428310e+00 8.962774e+00 
5.462800e+00 8.852324e+00 
5.497640e+00 8.742667e+00 
5.532670e+00 8.634394e+00 
5.567280e+00 8.529269e+00 
5.602000e+00 8.425586e+00 
5.637270e+00 8.322204e+00 
5.672410e+00 8.220981e+00 
5.707020e+00 8.122945e+00 
5.742040e+00 8.025509e+00 
5.777430e+00 7.928705e+00 
5.812210e+00 7.835137e+00 
5.846820e+00 7.743671e+00 
5.881610e+00 7.653245e+00 
5.916510e+00 7.563994e+00 
5.951600e+00 7.475835e+00 
5.986560e+00 7.389470e+00 
6.021830e+00 7.303729e+00 
6.056490e+00 7.220918e+00 
6.091160e+00 7.139472e+00 
6.125830e+00 7.059288e+00 
6.161090e+00 6.979071e+00 
6.195760e+00 6.901554e+00 
6.230420e+00 6.825241e+00 
6.265690e+00 6.748779e+00 
6.300950e+00 6.673696e+00 
6.335620e+00 6.600986e+00 
6.370880e+00 6.528152e+00 
6.405550e+00 6.457764e+00 
6.440220e+00 6.388479e+00 
6.475480e+00 6.319058e+00 
6.510150e+00 6.251856e+00 
6.544810e+00 6.185763e+00 
6.580080e+00 6.119487e+00 
6.614750e+00 6.055286e+00 
6.649410e+00 5.992245e+00 
6.684080e+00 5.930129e+00 
6.719340e+00 5.867858e+00 
6.754010e+00 5.807550e+00 
6.788680e+00 5.748203e+00 
6.823940e+00 5.688697e+00 
6.859800e+00 5.629041e+00 
6.894470e+00 5.572328e+00 
6.929140e+00 5.516452e+00 
6.963800e+00 5.461357e+00 
6.999070e+00 5.406072e+00 
7.033730e+00 5.352629e+00 
7.068400e+00 5.299891e+00 
7.103660e+00 5.246983e+00 
7.138330e+00 5.195736e+00 
7.173600e+00 5.144453e+00 
7.208260e+00 5.094731e+00 
7.243530e+00 5.044806e+00 
7.277600e+00 4.997316e+00 
7.312860e+00 4.948903e+00 
7.348120e+00 4.901130e+00 
7.382790e+00 4.854769e+00 
7.417460e+00 4.809114e+00 
7.452720e+00 4.763339e+00 
7.487390e+00 4.718909e+00 
7.522650e+00 4.674302e+00 
7.557320e+00 4.631118e+00 
7.591990e+00 4.588521e+00 
7.627250e+00 4.545747e+00 
7.662510e+00 4.503516e+00 
7.697180e+00 4.462638e+00 
7.731850e+00 4.422313e+00 
7.766510e+00 4.382496e+00 
7.801180e+00 4.343157e+00 
7.836440e+00 4.303760e+00 
7.871110e+00 4.265571e+00 
7.906380e+00 4.227196e+00 
7.941040e+00 4.189942e+00 
7.976310e+00 4.152551e+00 
8.011570e+00 4.115694e+00 
8.046240e+00 4.079889e+00 
8.080900e+00 4.044518e+00 
8.115570e+00 4.009587e+00 
8.150830e+00 3.974603e+00 
8.185500e+00 3.940609e+00 
8.220770e+00 3.906434e+00 
8.255430e+00 3.873243e+00 
8.290100e+00 3.840552e+00 
8.324770e+00 3.808251e+00 
8.359430e+00 3.776330e+00 
8.394700e+00 3.744221e+00 
8.429960e+00 3.712569e+00 
8.464630e+00 3.681880e+00 
8.499890e+00 3.651023e+00 
8.534560e+00 3.621026e+00 
8.569200e+00 3.591390e+00 
