# Parameters:
# omega_b = 0.022713, omega_m = 0.155000, n_s = 0.850000, h = 70.118110, w = -1.000000, sigma_8 = 0.806220
# z = 1.000000
#
# k[1/Mpc] # P(k):
8.694000e-04 7.275324e+03 
2.077466e-03 1.418129e+04 
3.285532e-03 1.921931e+04 
4.493598e-03 2.294607e+04 
5.701664e-03 2.562552e+04 
6.909730e-03 2.746546e+04 
8.117797e-03 2.867074e+04 
9.325863e-03 2.934544e+04 
1.053393e-02 2.958686e+04 
1.174199e-02 2.948019e+04 
1.295006e-02 2.907993e+04 
1.415813e-02 2.845625e+04 
1.536619e-02 2.766577e+04 
1.657426e-02 2.674161e+04 
1.778233e-02 2.568200e+04 
1.899039e-02 2.451582e+04 
2.019846e-02 2.333660e+04 
2.140652e-02 2.221302e+04 
2.261459e-02 2.113876e+04 
2.382266e-02 2.011547e+04 
2.503072e-02 1.915253e+04 
2.623879e-02 1.825424e+04 
2.744685e-02 1.742188e+04 
2.865492e-02 1.665843e+04 
2.986299e-02 1.596213e+04 
3.100100e-02 1.536586e+04 
3.220400e-02 1.479529e+04 
3.288100e-02 1.450056e+04 
3.424300e-02 1.395980e+04 
3.555100e-02 1.349784e+04 
3.686000e-02 1.308607e+04 
3.795000e-02 1.277534e+04 
3.929100e-02 1.242879e+04 
4.039800e-02 1.216520e+04 
4.164000e-02 1.188742e+04 
4.294400e-02 1.160900e+04 
4.415000e-02 1.135995e+04 
4.542900e-02 1.109568e+04 
4.660900e-02 1.085287e+04 
4.782300e-02 1.059278e+04 
4.892900e-02 1.035215e+04 
5.031200e-02 1.004146e+04 
5.155900e-02 9.750591e+03 
5.238100e-02 9.554748e+03 
5.378200e-02 9.215363e+03 
5.513400e-02 8.881696e+03 
5.627600e-02 8.598021e+03 
5.735300e-02 8.332028e+03 
5.870100e-02 8.004020e+03 
5.988700e-02 7.723423e+03 
6.113500e-02 7.438025e+03 
6.225900e-02 7.191564e+03 
6.340100e-02 6.953309e+03 
6.480200e-02 6.678664e+03 
6.601100e-02 6.458819e+03 
6.725500e-02 6.249565e+03 
6.829100e-02 6.089651e+03 
6.958600e-02 5.904974e+03 
7.071100e-02 5.759435e+03 
7.192300e-02 5.616501e+03 
7.307400e-02 5.493060e+03 
7.412300e-02 5.390002e+03 
7.550400e-02 5.267619e+03 
7.663100e-02 5.176218e+03 
7.791200e-02 5.082094e+03 
7.912700e-02 5.000021e+03 
8.027600e-02 4.926901e+03 
8.138400e-02 4.859443e+03 
8.272200e-02 4.780820e+03 
8.406100e-02 4.703811e+03 
8.534100e-02 4.629915e+03 
8.653800e-02 4.559355e+03 
8.759800e-02 4.495903e+03 
8.900300e-02 4.409557e+03 
9.009000e-02 4.340257e+03 
9.113300e-02 4.271125e+03 
9.239600e-02 4.185977e+03 
9.358000e-02 4.103820e+03 
9.496100e-02 4.004741e+03 
9.608400e-02 3.923515e+03 
9.727500e-02 3.837471e+03 
9.852600e-02 3.745156e+03 
9.973800e-02 3.657221e+03 
1.009000e-01 3.574410e+03 
1.020900e-01 3.490845e+03 
1.034000e-01 3.401960e+03 
1.046000e-01 3.323362e+03 
1.057200e-01 3.253503e+03 
1.069100e-01 3.182158e+03 
1.082500e-01 3.106776e+03 
1.093900e-01 3.046639e+03 
1.105400e-01 2.988822e+03 
1.116900e-01 2.935896e+03 
1.129600e-01 2.880273e+03 
1.142000e-01 2.830729e+03 
1.153300e-01 2.788136e+03 
1.166400e-01 2.742191e+03 
1.177800e-01 2.705080e+03 
1.190000e-01 2.667195e+03 
1.201200e-01 2.634808e+03 
1.213400e-01 2.600641e+03 
1.227100e-01 2.564522e+03 
1.238900e-01 2.534247e+03 
1.250700e-01 2.504745e+03 
1.263200e-01 2.473994e+03 
1.275500e-01 2.443935e+03 
1.287500e-01 2.414738e+03 
1.299900e-01 2.384394e+03 
1.311300e-01 2.356317e+03 
1.323500e-01 2.325723e+03 
1.335900e-01 2.294371e+03 
1.347100e-01 2.265396e+03 
1.359800e-01 2.232428e+03 
1.372100e-01 2.199559e+03 
1.384300e-01 2.167083e+03 
1.395700e-01 2.135943e+03 
1.407700e-01 2.103724e+03 
1.420300e-01 2.069125e+03 
1.432800e-01 2.035601e+03 
1.444500e-01 2.004039e+03 
1.456300e-01 1.972899e+03 
1.468900e-01 1.940462e+03 
1.480500e-01 1.911277e+03 
1.491700e-01 1.883993e+03 
1.503800e-01 1.855529e+03 
1.516400e-01 1.826779e+03 
1.528200e-01 1.801495e+03 
1.540200e-01 1.776305e+03 
1.551900e-01 1.753490e+03 
1.564300e-01 1.730094e+03 
1.576600e-01 1.708021e+03 
1.588700e-01 1.687532e+03 
1.600900e-01 1.667328e+03 
1.612700e-01 1.649250e+03 
1.625400e-01 1.630158e+03 
1.637600e-01 1.612556e+03 
1.649500e-01 1.595927e+03 
1.662200e-01 1.578521e+03 
1.674000e-01 1.562731e+03 
1.685000e-01 1.548258e+03 
1.697500e-01 1.531920e+03 
1.710300e-01 1.515324e+03 
1.722200e-01 1.500169e+03 
1.734400e-01 1.484255e+03 
1.746400e-01 1.468847e+03 
1.758700e-01 1.453094e+03 
1.770900e-01 1.437269e+03 
1.782700e-01 1.422223e+03 
1.794600e-01 1.406935e+03 
1.807000e-01 1.391029e+03 
1.819100e-01 1.375776e+03 
1.830100e-01 1.361802e+03 
1.842200e-01 1.346621e+03 
1.855000e-01 1.330833e+03 
1.867000e-01 1.316110e+03 
1.879200e-01 1.301391e+03 
1.890900e-01 1.287515e+03 
1.902800e-01 1.273672e+03 
1.915200e-01 1.259484e+03 
1.926900e-01 1.246365e+03 
1.939000e-01 1.233181e+03 
1.951700e-01 1.219569e+03 
1.963100e-01 1.207615e+03 
1.975100e-01 1.195414e+03 
1.987800e-01 1.182707e+03 
2.000100e-01 1.170688e+03 
2.012500e-01 1.158972e+03 
2.023400e-01 1.148825e+03 
2.036100e-01 1.137226e+03 
2.048900e-01 1.125912e+03 
2.060400e-01 1.115899e+03 
2.072200e-01 1.105784e+03 
2.084200e-01 1.095808e+03 
2.096900e-01 1.085407e+03 
2.109200e-01 1.075483e+03 
2.121100e-01 1.066098e+03 
2.132700e-01 1.057080e+03 
2.145200e-01 1.047500e+03 
2.157200e-01 1.038461e+03 
2.168800e-01 1.029857e+03 
2.180700e-01 1.021149e+03 
2.193400e-01 1.011987e+03 
2.206000e-01 1.003026e+03 
2.217500e-01 9.949594e+02 
2.229500e-01 9.866536e+02 
2.241400e-01 9.785252e+02 
2.253500e-01 9.703708e+02 
2.264900e-01 9.627884e+02 
2.277100e-01 9.547821e+02 
2.289900e-01 9.465000e+02 
2.301500e-01 9.390944e+02 
2.313600e-01 9.314694e+02 
2.325600e-01 9.240305e+02 
2.337700e-01 9.166268e+02 
2.350000e-01 9.091990e+02 
2.362000e-01 9.020697e+02 
2.374100e-01 8.950006e+02 
2.386500e-01 8.878495e+02 
2.399100e-01 8.806781e+02 
2.410400e-01 8.743658e+02 
2.422500e-01 8.676934e+02 
2.435000e-01 8.608876e+02 
2.447300e-01 8.542870e+02 
2.458700e-01 8.482879e+02 
2.470600e-01 8.420996e+02 
2.483300e-01 8.355771e+02 
2.495600e-01 8.293531e+02 
2.507600e-01 8.233736e+02 
2.519600e-01 8.174653e+02 
2.532200e-01 8.113370e+02 
2.543700e-01 8.058241e+02 
2.555500e-01 8.002416e+02 
2.568000e-01 7.943978e+02 
2.580100e-01 7.888083e+02 
2.592400e-01 7.831975e+02 
2.604100e-01 7.779238e+02 
2.616100e-01 7.725759e+02 
2.628400e-01 7.671577e+02 
2.640600e-01 7.618367e+02 
2.652200e-01 7.568306e+02 
2.664300e-01 7.516667e+02 
2.676500e-01 7.465192e+02 
2.688400e-01 7.415464e+02 
2.700700e-01 7.364589e+02 
2.712400e-01 7.316731e+02 
2.724800e-01 7.266571e+02 
2.736700e-01 7.218884e+02 
2.748800e-01 7.170839e+02 
2.761000e-01 7.122929e+02 
2.773200e-01 7.075547e+02 
2.785400e-01 7.028639e+02 
2.797000e-01 6.984415e+02 
2.808900e-01 6.939522e+02 
2.821400e-01 6.892877e+02 
2.833900e-01 6.846740e+02 
2.845500e-01 6.804228e+02 
2.857800e-01 6.759622e+02 
2.870300e-01 6.714783e+02 
2.882100e-01 6.672901e+02 
2.893900e-01 6.631387e+02 
2.906300e-01 6.588185e+02 
2.918900e-01 6.544757e+02 
2.930500e-01 6.505190e+02 
2.942500e-01 6.464651e+02 
2.954200e-01 6.425461e+02 
2.966500e-01 6.384680e+02 
2.978900e-01 6.343994e+02 
2.990400e-01 6.306640e+02 
3.002700e-01 6.267043e+02 
3.015100e-01 6.227514e+02 
3.026800e-01 6.190589e+02 
3.038500e-01 6.154021e+02 
3.050300e-01 6.117497e+02 
3.062600e-01 6.079776e+02 
3.075000e-01 6.042132e+02 
3.087000e-01 6.006063e+02 
3.099100e-01 5.970049e+02 
3.111200e-01 5.934399e+02 
3.123100e-01 5.899698e+02 
3.135300e-01 5.864465e+02 
3.147300e-01 5.830144e+02 
3.159900e-01 5.794459e+02 
3.171800e-01 5.761119e+02 
3.183700e-01 5.728115e+02 
3.196300e-01 5.693506e+02 
3.208400e-01 5.660592e+02 
3.220300e-01 5.628524e+02 
3.232000e-01 5.597337e+02 
3.244300e-01 5.564876e+02 
3.256700e-01 5.532462e+02 
3.269200e-01 5.500099e+02 
3.280800e-01 5.470343e+02 
3.292500e-01 5.440687e+02 
3.304800e-01 5.409823e+02 
3.317100e-01 5.379245e+02 
3.328900e-01 5.350177e+02 
3.340700e-01 5.321366e+02 
3.353600e-01 5.290267e+02 
3.365300e-01 5.262359e+02 
3.377100e-01 5.234457e+02 
3.389200e-01 5.206099e+02 
3.401600e-01 5.177300e+02 
3.413700e-01 5.149565e+02 
3.425300e-01 5.123287e+02 
3.437700e-01 5.095441e+02 
3.449800e-01 5.068511e+02 
3.461800e-01 5.042035e+02 
3.473600e-01 5.016274e+02 
3.485800e-01 4.989989e+02 
3.498100e-01 4.963720e+02 
3.510200e-01 4.938103e+02 
3.522000e-01 4.913333e+02 
3.533900e-01 4.888562e+02 
3.546400e-01 4.862944e+02 
3.558400e-01 4.838571e+02 
3.570600e-01 4.814002e+02 
3.582700e-01 4.789841e+02 
3.595000e-01 4.765488e+02 
3.607100e-01 4.741830e+02 
3.618900e-01 4.719025e+02 
3.631200e-01 4.695451e+02 
3.643200e-01 4.672642e+02 
3.655500e-01 4.649457e+02 
3.667300e-01 4.627396e+02 
3.679500e-01 4.604959e+02 
3.691900e-01 4.582343e+02 
3.703600e-01 4.561176e+02 
3.715700e-01 4.539460e+02 
3.727700e-01 4.518097e+02 
3.739900e-01 4.496615e+02 
3.752000e-01 4.475595e+02 
3.763900e-01 4.455086e+02 
3.775800e-01 4.434738e+02 
3.788200e-01 4.413704e+02 
3.800300e-01 4.393343e+02 
3.812100e-01 4.373718e+02 
3.824200e-01 4.353804e+02 
3.836100e-01 4.334371e+02 
3.848600e-01 4.314118e+02 
3.860400e-01 4.295149e+02 
3.872400e-01 4.276005e+02 
3.884600e-01 4.256794e+02 
3.896500e-01 4.238238e+02 
3.908700e-01 4.219358e+02 
3.920600e-01 4.201084e+02 
3.933100e-01 4.182035e+02 
3.945300e-01 4.163587e+02 
3.957200e-01 4.145834e+02 
3.969300e-01 4.127947e+02 
3.981700e-01 4.109755e+02 
3.993500e-01 4.092574e+02 
4.094840e-01 3.950226e+02 
4.272360e-01 3.723098e+02 
4.454600e-01 3.513959e+02 
4.630560e-01 3.331529e+02 
4.804610e-01 3.167236e+02 
4.980690e-01 3.015223e+02 
5.159230e-01 2.873959e+02 
5.317440e-01 2.758439e+02 
5.489640e-01 2.642109e+02 
5.671990e-01 2.528672e+02 
5.838690e-01 2.432805e+02 
6.018840e-01 2.336896e+02 
6.202330e-01 2.246734e+02 
6.379250e-01 2.166109e+02 
6.545410e-01 2.095860e+02 
6.714560e-01 2.028939e+02 
6.892080e-01 1.963431e+02 
7.066010e-01 1.903508e+02 
7.240540e-01 1.847138e+02 
7.420450e-01 1.792736e+02 
7.593780e-01 1.743472e+02 
7.764720e-01 1.697605e+02 
7.942840e-01 1.652489e+02 
8.116170e-01 1.610987e+02 
8.288310e-01 1.571910e+02 
8.462240e-01 1.534357e+02 
8.631980e-01 1.499439e+02 
8.810700e-01 1.464388e+02 
8.989410e-01 1.430967e+02 
9.166330e-01 1.399325e+02 
9.345640e-01 1.368638e+02 
9.515980e-01 1.340655e+02 
9.688720e-01 1.313369e+02 
9.865640e-01 1.286464e+02 
1.031870e+00 1.221995e+02 
1.063490e+00 1.180302e+02 
1.097920e+00 1.137661e+02 
1.134370e+00 1.095263e+02 
1.167730e+00 1.058741e+02 
1.203830e+00 1.021315e+02 
1.240470e+00 9.854987e+01 
1.275790e+00 9.527290e+01 
1.309140e+00 9.234046e+01 
1.342970e+00 8.949263e+01 
1.378420e+00 8.665692e+01 
1.413200e+00 8.399908e+01 
1.448110e+00 8.145091e+01 
1.484090e+00 7.894699e+01 
1.518820e+00 7.663501e+01 
1.552880e+00 7.445830e+01 
1.588630e+00 7.227031e+01 
1.623230e+00 7.024236e+01 
1.657720e+00 6.830191e+01 
1.692450e+00 6.642686e+01 
1.726400e+00 6.466024e+01 
1.762200e+00 6.286927e+01 
1.797880e+00 6.115551e+01 
1.833270e+00 5.952026e+01 
1.869070e+00 5.792888e+01 
1.903200e+00 5.646812e+01 
1.937740e+00 5.504259e+01 
1.973190e+00 5.363091e+01 
2.007440e+00 5.231609e+01 
2.042160e+00 5.102932e+01 
2.077900e+00 4.974983e+01 
2.112390e+00 4.855913e+01 
2.146220e+00 4.742752e+01 
2.181600e+00 4.628314e+01 
2.216930e+00 4.517953e+01 
2.250760e+00 4.415708e+01 
2.286500e+00 4.311174e+01 
2.321770e+00 4.211410e+01 
2.355950e+00 4.117747e+01 
2.391280e+00 4.023847e+01 
2.426240e+00 3.933856e+01 
2.460670e+00 3.848012e+01 
2.495640e+00 3.763547e+01 
2.531080e+00 3.680323e+01 
2.566220e+00 3.600343e+01 
2.600830e+00 3.523960e+01 
2.635080e+00 3.450613e+01 
2.670340e+00 3.377185e+01 
2.705970e+00 3.305194e+01 
2.740040e+00 3.238352e+01 
2.774520e+00 3.172477e+01 
2.809730e+00 3.107115e+01 
2.844390e+00 3.044635e+01 
2.879960e+00 2.982269e+01 
2.914860e+00 2.922751e+01 
2.949410e+00 2.865478e+01 
2.984440e+00 2.808908e+01 
3.019760e+00 2.753433e+01 
3.054730e+00 2.700038e+01 
3.089030e+00 2.648923e+01 
3.124060e+00 2.598125e+01 
3.159560e+00 2.547999e+01 
3.194710e+00 2.499646e+01 
3.229010e+00 2.453722e+01 
3.263320e+00 2.408862e+01 
3.297930e+00 2.364781e+01 
3.332830e+00 2.321419e+01 
3.368040e+00 2.278764e+01 
3.403300e+00 2.237134e+01 
3.438450e+00 2.196639e+01 
3.473060e+00 2.157790e+01 
3.508440e+00 2.118992e+01 
3.543110e+00 2.081939e+01 
3.577470e+00 2.046048e+01 
3.613040e+00 2.009808e+01 
3.648120e+00 1.974891e+01 
3.682910e+00 1.941102e+01 
3.718050e+00 1.907766e+01 
3.753320e+00 1.875112e+01 
3.787980e+00 1.843770e+01 
3.822290e+00 1.813453e+01 
3.857020e+00 1.783443e+01 
3.891920e+00 1.753976e+01 
3.926650e+00 1.725298e+01 
3.961970e+00 1.696807e+01 
3.997360e+00 1.668907e+01 
4.031670e+00 1.642472e+01 
4.066330e+00 1.616334e+01 
4.101420e+00 1.590471e+01 
4.136200e+00 1.565380e+01 
4.170810e+00 1.540967e+01 
4.206250e+00 1.516491e+01 
4.241580e+00 1.492631e+01 
4.276300e+00 1.469686e+01 
4.310970e+00 1.447263e+01 
4.346120e+00 1.425019e+01 
4.380600e+00 1.403664e+01 
4.414730e+00 1.382967e+01 
4.450350e+00 1.361809e+01 
4.485320e+00 1.341477e+01 
4.519810e+00 1.321835e+01 
4.555430e+00 1.301969e+01 
4.590870e+00 1.282618e+01 
4.625480e+00 1.264113e+01 
4.659910e+00 1.246073e+01 
4.695230e+00 1.227937e+01 
4.729960e+00 1.210461e+01 
4.764450e+00 1.193450e+01 
4.799530e+00 1.176492e+01 
4.834910e+00 1.159726e+01 
4.869700e+00 1.143576e+01 
4.904370e+00 1.127793e+01 
4.939450e+00 1.112135e+01 
4.973940e+00 1.097047e+01 
5.008430e+00 1.082241e+01 
5.043810e+00 1.067344e+01 
5.078840e+00 1.052876e+01 
5.113500e+00 1.038827e+01 
5.148890e+00 1.024774e+01 
5.184210e+00 1.011010e+01 
5.219060e+00 9.976830e+00 
5.253660e+00 9.847037e+00 
5.288570e+00 9.718433e+00 
5.323420e+00 9.592467e+00 
5.358440e+00 9.468273e+00 
5.393590e+00 9.345837e+00 
5.428310e+00 9.227201e+00 
5.462800e+00 9.111486e+00 
5.497640e+00 8.996616e+00 
5.532670e+00 8.883281e+00 
5.567280e+00 8.773278e+00 
5.602000e+00 8.664798e+00 
5.637270e+00 8.556712e+00 
5.672410e+00 8.450912e+00 
5.707020e+00 8.348458e+00 
5.742040e+00 8.246710e+00 
5.777430e+00 8.145649e+00 
5.812210e+00 8.047978e+00 
5.846820e+00 7.952571e+00 
5.881610e+00 7.858274e+00 
5.916510e+00 7.765212e+00 
5.951600e+00 7.673348e+00 
5.986560e+00 7.583382e+00 
6.021830e+00 7.494076e+00 
6.056490e+00 7.407864e+00 
6.091160e+00 7.323108e+00 
6.125830e+00 7.239674e+00 
6.161090e+00 7.156233e+00 
6.195760e+00 7.075651e+00 
6.230420e+00 6.996327e+00 
6.265690e+00 6.916858e+00 
6.300950e+00 6.838881e+00 
6.335620e+00 6.763376e+00 
6.370880e+00 6.687748e+00 
6.405550e+00 6.614702e+00 
6.440220e+00 6.542820e+00 
6.475480e+00 6.470804e+00 
6.510150e+00 6.401109e+00 
6.544810e+00 6.332603e+00 
6.580080e+00 6.263913e+00 
6.614750e+00 6.197379e+00 
6.649410e+00 6.132086e+00 
6.684080e+00 6.067761e+00 
6.719340e+00 6.003282e+00 
6.754010e+00 5.940852e+00 
6.788680e+00 5.879450e+00 
6.823940e+00 5.817888e+00 
6.859800e+00 5.756175e+00 
6.894470e+00 5.697536e+00 
6.929140e+00 5.639774e+00 
6.963800e+00 5.582823e+00 
6.999070e+00 5.525683e+00 
7.033730e+00 5.470479e+00 
7.068400e+00 5.416009e+00 
7.103660e+00 5.361366e+00 
7.138330e+00 5.308451e+00 
7.173600e+00 5.255524e+00 
7.208260e+00 5.204209e+00 
7.243530e+00 5.152689e+00 
7.277600e+00 5.103700e+00 
7.312860e+00 5.053775e+00 
7.348120e+00 5.004514e+00 
7.382790e+00 4.956711e+00 
7.417460e+00 4.909653e+00 
7.452720e+00 4.862482e+00 
7.487390e+00 4.816699e+00 
7.522650e+00 4.770736e+00 
7.557320e+00 4.726259e+00 
7.591990e+00 4.682396e+00 
7.627250e+00 4.638353e+00 
7.662510e+00 4.594871e+00 
7.697180e+00 4.552799e+00 
7.731850e+00 4.511305e+00 
7.766510e+00 4.470336e+00 
7.801180e+00 4.429859e+00 
7.836440e+00 4.389337e+00 
7.871110e+00 4.350066e+00 
7.906380e+00 4.310605e+00 
7.941040e+00 4.272300e+00 
7.976310e+00 4.233862e+00 
8.011570e+00 4.195985e+00 
8.046240e+00 4.159191e+00 
8.080900e+00 4.122845e+00 
8.115570e+00 4.086954e+00 
8.150830e+00 4.051024e+00 
8.185500e+00 4.016112e+00 
8.220770e+00 3.981016e+00 
8.255430e+00 3.946931e+00 
8.290100e+00 3.913375e+00 
8.324770e+00 3.880223e+00 
8.359430e+00 3.847461e+00 
8.394700e+00 3.814508e+00 
8.429960e+00 3.782031e+00 
8.464630e+00 3.750550e+00 
8.499890e+00 3.718897e+00 
8.534560e+00 3.688128e+00 
8.569200e+00 3.657730e+00 
