# Parameters:
# omega_b = 0.022933, omega_m = 0.138189, n_s = 1.031102, h = 59.488189, w = -1.000000, sigma_8 = 0.870551
# z = 1.000000
#
# k[1/Mpc] # P(k):
8.694000e-04 5.822685e+03 
2.077466e-03 1.314294e+04 
3.285532e-03 1.913303e+04 
4.493598e-03 2.391413e+04 
5.701664e-03 2.758398e+04 
6.909730e-03 3.028503e+04 
8.117797e-03 3.220823e+04 
9.325863e-03 3.344897e+04 
1.053393e-02 3.410827e+04 
1.174199e-02 3.428336e+04 
1.295006e-02 3.403693e+04 
1.415813e-02 3.345889e+04 
1.536619e-02 3.262887e+04 
1.657426e-02 3.160925e+04 
1.778233e-02 3.049327e+04 
1.899039e-02 2.940077e+04 
2.019846e-02 2.829407e+04 
2.140652e-02 2.714233e+04 
2.261459e-02 2.598187e+04 
2.382266e-02 2.485835e+04 
2.503072e-02 2.379489e+04 
2.623879e-02 2.279981e+04 
2.744685e-02 2.187701e+04 
2.865492e-02 2.103057e+04 
2.986299e-02 2.025894e+04 
3.100100e-02 1.959872e+04 
3.220400e-02 1.896699e+04 
3.288100e-02 1.864014e+04 
3.424300e-02 1.803870e+04 
3.555100e-02 1.752120e+04 
3.686000e-02 1.705500e+04 
3.795000e-02 1.669877e+04 
3.929100e-02 1.629381e+04 
4.039800e-02 1.597984e+04 
4.164000e-02 1.564322e+04 
4.294400e-02 1.529812e+04 
4.415000e-02 1.498587e+04 
4.542900e-02 1.465088e+04 
4.660900e-02 1.434204e+04 
4.782300e-02 1.401192e+04 
4.892900e-02 1.370793e+04 
5.031200e-02 1.331849e+04 
5.155900e-02 1.295757e+04 
5.238100e-02 1.271641e+04 
5.378200e-02 1.230142e+04 
5.513400e-02 1.189657e+04 
5.627600e-02 1.155402e+04 
5.735300e-02 1.123346e+04 
5.870100e-02 1.083814e+04 
5.988700e-02 1.049904e+04 
6.113500e-02 1.015262e+04 
6.225900e-02 9.851544e+03 
6.340100e-02 9.558344e+03 
6.480200e-02 9.217523e+03 
6.601100e-02 8.941532e+03 
6.725500e-02 8.676232e+03 
6.829100e-02 8.471374e+03 
6.958600e-02 8.233010e+03 
7.071100e-02 8.043655e+03 
7.192300e-02 7.856666e+03 
7.307400e-02 7.694561e+03 
7.412300e-02 7.559002e+03 
7.550400e-02 7.398109e+03 
7.663100e-02 7.278199e+03 
7.791200e-02 7.155455e+03 
7.912700e-02 7.049161e+03 
8.027600e-02 6.954889e+03 
8.138400e-02 6.868132e+03 
8.272200e-02 6.767055e+03 
8.406100e-02 6.667689e+03 
8.534100e-02 6.571344e+03 
8.653800e-02 6.478089e+03 
8.759800e-02 6.393339e+03 
8.900300e-02 6.276569e+03 
9.009000e-02 6.181662e+03 
9.113300e-02 6.086104e+03 
9.239600e-02 5.967824e+03 
9.358000e-02 5.853227e+03 
9.496100e-02 5.715033e+03 
9.608400e-02 5.602063e+03 
9.727500e-02 5.482701e+03 
9.852600e-02 5.356215e+03 
9.973800e-02 5.236576e+03 
1.009000e-01 5.124587e+03 
1.020900e-01 5.013578e+03 
1.034000e-01 4.896314e+03 
1.046000e-01 4.793482e+03 
1.057200e-01 4.703356e+03 
1.069100e-01 4.611609e+03 
1.082500e-01 4.515575e+03 
1.093900e-01 4.439195e+03 
1.105400e-01 4.365876e+03 
1.116900e-01 4.298681e+03 
1.129600e-01 4.227882e+03 
1.142000e-01 4.164227e+03 
1.153300e-01 4.109036e+03 
1.166400e-01 4.048782e+03 
1.177800e-01 3.999140e+03 
1.190000e-01 3.947983e+03 
1.201200e-01 3.902879e+03 
1.213400e-01 3.855038e+03 
1.227100e-01 3.802629e+03 
1.238900e-01 3.758397e+03 
1.250700e-01 3.714355e+03 
1.263200e-01 3.668256e+03 
1.275500e-01 3.622772e+03 
1.287500e-01 3.578658e+03 
1.299900e-01 3.532912e+03 
1.311300e-01 3.490944e+03 
1.323500e-01 3.445740e+03 
1.335900e-01 3.400011e+03 
1.347100e-01 3.358507e+03 
1.359800e-01 3.311852e+03 
1.372100e-01 3.266445e+03 
1.384300e-01 3.222006e+03 
1.395700e-01 3.180410e+03 
1.407700e-01 3.137459e+03 
1.420300e-01 3.092488e+03 
1.432800e-01 3.048866e+03 
1.444500e-01 3.008510e+03 
1.456300e-01 2.968646e+03 
1.468900e-01 2.927210e+03 
1.480500e-01 2.889923e+03 
1.491700e-01 2.854896e+03 
1.503800e-01 2.818147e+03 
1.516400e-01 2.780846e+03 
1.528200e-01 2.747395e+03 
1.540200e-01 2.714039e+03 
1.551900e-01 2.683019e+03 
1.564300e-01 2.650988e+03 
1.576600e-01 2.620287e+03 
1.588700e-01 2.591202e+03 
1.600900e-01 2.562469e+03 
1.612700e-01 2.535903e+03 
1.625400e-01 2.507844e+03 
1.637600e-01 2.481643e+03 
1.649500e-01 2.456691e+03 
1.662200e-01 2.430559e+03 
1.674000e-01 2.406781e+03 
1.685000e-01 2.384984e+03 
1.697500e-01 2.360527e+03 
1.710300e-01 2.335828e+03 
1.722200e-01 2.313272e+03 
1.734400e-01 2.290112e+03 
1.746400e-01 2.267705e+03 
1.758700e-01 2.244983e+03 
1.770900e-01 2.222533e+03 
1.782700e-01 2.201181e+03 
1.794600e-01 2.179772e+03 
1.807000e-01 2.157683e+03 
1.819100e-01 2.136489e+03 
1.830100e-01 2.117312e+03 
1.842200e-01 2.096512e+03 
1.855000e-01 2.074872e+03 
1.867000e-01 2.054820e+03 
1.879200e-01 2.034762e+03 
1.890900e-01 2.015839e+03 
1.902800e-01 1.996935e+03 
1.915200e-01 1.977549e+03 
1.926900e-01 1.959586e+03 
1.939000e-01 1.941435e+03 
1.951700e-01 1.922686e+03 
1.963100e-01 1.906164e+03 
1.975100e-01 1.889163e+03 
1.987800e-01 1.871448e+03 
2.000100e-01 1.854631e+03 
2.012500e-01 1.838109e+03 
2.023400e-01 1.823792e+03 
2.036100e-01 1.807387e+03 
2.048900e-01 1.791242e+03 
2.060400e-01 1.776949e+03 
2.072200e-01 1.762495e+03 
2.084200e-01 1.748109e+03 
2.096900e-01 1.733106e+03 
2.109200e-01 1.718788e+03 
2.121100e-01 1.705117e+03 
2.132700e-01 1.691972e+03 
2.145200e-01 1.678003e+03 
2.157200e-01 1.664725e+03 
2.168800e-01 1.652035e+03 
2.180700e-01 1.639191e+03 
2.193400e-01 1.625595e+03 
2.206000e-01 1.612150e+03 
2.217500e-01 1.600045e+03 
2.229500e-01 1.587579e+03 
2.241400e-01 1.575114e+03 
2.253500e-01 1.562601e+03 
2.264900e-01 1.550965e+03 
2.277100e-01 1.538500e+03 
2.289900e-01 1.525410e+03 
2.301500e-01 1.513704e+03 
2.313600e-01 1.501647e+03 
2.325600e-01 1.489488e+03 
2.337700e-01 1.477386e+03 
2.350000e-01 1.465245e+03 
2.362000e-01 1.453413e+03 
2.374100e-01 1.441468e+03 
2.386500e-01 1.429386e+03 
2.399100e-01 1.417272e+03 
2.410400e-01 1.406347e+03 
2.422500e-01 1.394767e+03 
2.435000e-01 1.382959e+03 
2.447300e-01 1.371473e+03 
2.458700e-01 1.360891e+03 
2.470600e-01 1.349979e+03 
2.483300e-01 1.338481e+03 
2.495600e-01 1.327504e+03 
2.507600e-01 1.316950e+03 
2.519600e-01 1.306524e+03 
2.532200e-01 1.295714e+03 
2.543700e-01 1.286073e+03 
2.555500e-01 1.276368e+03 
2.568000e-01 1.266212e+03 
2.580100e-01 1.256499e+03 
2.592400e-01 1.246927e+03 
2.604100e-01 1.238008e+03 
2.616100e-01 1.228966e+03 
2.628400e-01 1.219805e+03 
2.640600e-01 1.211033e+03 
2.652200e-01 1.202868e+03 
2.664300e-01 1.194446e+03 
2.676500e-01 1.186052e+03 
2.688400e-01 1.178129e+03 
2.700700e-01 1.170138e+03 
2.712400e-01 1.162622e+03 
2.724800e-01 1.154743e+03 
2.736700e-01 1.147380e+03 
2.748800e-01 1.140089e+03 
2.761000e-01 1.132819e+03 
2.773200e-01 1.125628e+03 
2.785400e-01 1.118570e+03 
2.797000e-01 1.112045e+03 
2.808900e-01 1.105420e+03 
2.821400e-01 1.098536e+03 
2.833900e-01 1.091731e+03 
2.845500e-01 1.085584e+03 
2.857800e-01 1.079133e+03 
2.870300e-01 1.072648e+03 
2.882100e-01 1.066589e+03 
2.893900e-01 1.060637e+03 
2.906300e-01 1.054471e+03 
2.918900e-01 1.048272e+03 
2.930500e-01 1.042623e+03 
2.942500e-01 1.036844e+03 
2.954200e-01 1.031292e+03 
2.966500e-01 1.025513e+03 
2.978900e-01 1.019746e+03 
2.990400e-01 1.014450e+03 
3.002700e-01 1.008853e+03 
3.015100e-01 1.003272e+03 
3.026800e-01 9.980584e+02 
3.038500e-01 9.928937e+02 
3.050300e-01 9.877344e+02 
3.062600e-01 9.824155e+02 
3.075000e-01 9.771063e+02 
3.087000e-01 9.720182e+02 
3.099100e-01 9.669368e+02 
3.111200e-01 9.619063e+02 
3.123100e-01 9.570096e+02 
3.135300e-01 9.520370e+02 
3.147300e-01 9.471920e+02 
3.159900e-01 9.421534e+02 
3.171800e-01 9.374429e+02 
3.183700e-01 9.327777e+02 
3.196300e-01 9.278846e+02 
3.208400e-01 9.232300e+02 
3.220300e-01 9.186943e+02 
3.232000e-01 9.142772e+02 
3.244300e-01 9.096767e+02 
3.256700e-01 9.050821e+02 
3.269200e-01 9.004936e+02 
3.280800e-01 8.962740e+02 
3.292500e-01 8.920629e+02 
3.304800e-01 8.876780e+02 
3.317100e-01 8.833329e+02 
3.328900e-01 8.792015e+02 
3.340700e-01 8.751060e+02 
3.353600e-01 8.706763e+02 
3.365300e-01 8.666974e+02 
3.377100e-01 8.627188e+02 
3.389200e-01 8.586744e+02 
3.401600e-01 8.545663e+02 
3.413700e-01 8.506035e+02 
3.425300e-01 8.468442e+02 
3.437700e-01 8.428601e+02 
3.449800e-01 8.390061e+02 
3.461800e-01 8.352167e+02 
3.473600e-01 8.315258e+02 
3.485800e-01 8.277522e+02 
3.498100e-01 8.239803e+02 
3.510200e-01 8.203014e+02 
3.522000e-01 8.167435e+02 
3.533900e-01 8.131850e+02 
3.546400e-01 8.094943e+02 
3.558400e-01 8.059821e+02 
3.570600e-01 8.024410e+02 
3.582700e-01 7.989581e+02 
3.595000e-01 7.954471e+02 
3.607100e-01 7.920305e+02 
3.618900e-01 7.887323e+02 
3.631200e-01 7.853224e+02 
3.643200e-01 7.820229e+02 
3.655500e-01 7.786684e+02 
3.667300e-01 7.754761e+02 
3.679500e-01 7.722201e+02 
3.691900e-01 7.689377e+02 
3.703600e-01 7.658653e+02 
3.715700e-01 7.627128e+02 
3.727700e-01 7.596110e+02 
3.739900e-01 7.564890e+02 
3.752000e-01 7.534289e+02 
3.763900e-01 7.504428e+02 
3.775800e-01 7.474797e+02 
3.788200e-01 7.444164e+02 
3.800300e-01 7.414508e+02 
3.812100e-01 7.385876e+02 
3.824200e-01 7.356787e+02 
3.836100e-01 7.328397e+02 
3.848600e-01 7.298807e+02 
3.860400e-01 7.271090e+02 
3.872400e-01 7.243115e+02 
3.884600e-01 7.214985e+02 
3.896500e-01 7.187789e+02 
3.908700e-01 7.160118e+02 
3.920600e-01 7.133330e+02 
3.933100e-01 7.105406e+02 
3.945300e-01 7.078360e+02 
3.957200e-01 7.052287e+02 
3.969300e-01 7.026004e+02 
3.981700e-01 6.999272e+02 
3.993500e-01 6.974022e+02 
4.094840e-01 6.764316e+02 
4.272360e-01 6.427957e+02 
4.454600e-01 6.116243e+02 
4.630560e-01 5.842636e+02 
4.804610e-01 5.594779e+02 
4.980690e-01 5.364211e+02 
5.159230e-01 5.148836e+02 
5.317440e-01 4.971923e+02 
5.489640e-01 4.792958e+02 
5.671990e-01 4.617771e+02 
5.838690e-01 4.469173e+02 
6.018840e-01 4.319802e+02 
6.202330e-01 4.178722e+02 
6.379250e-01 4.052263e+02 
6.545410e-01 3.941493e+02 
6.714560e-01 3.835468e+02 
6.892080e-01 3.731390e+02 
7.066010e-01 3.635535e+02 
7.240540e-01 3.545106e+02 
7.420450e-01 3.457129e+02 
7.593780e-01 3.376957e+02 
7.764720e-01 3.301891e+02 
7.942840e-01 3.227648e+02 
8.116170e-01 3.158745e+02 
8.288310e-01 3.093337e+02 
8.462240e-01 3.030011e+02 
8.631980e-01 2.970610e+02 
8.810700e-01 2.910578e+02 
8.989410e-01 2.852861e+02 
9.166330e-01 2.797761e+02 
9.345640e-01 2.743897e+02 
9.515980e-01 2.694293e+02 
9.688720e-01 2.645530e+02 
9.865640e-01 2.596997e+02 
1.031870e+00 2.479261e+02 
1.063490e+00 2.401774e+02 
1.097920e+00 2.321475e+02 
1.134370e+00 2.240575e+02 
1.167730e+00 2.169984e+02 
1.203830e+00 2.096779e+02 
1.240470e+00 2.026044e+02 
1.275790e+00 1.960555e+02 
1.309140e+00 1.901623e+02 
1.342970e+00 1.843820e+02 
1.378420e+00 1.785908e+02 
1.413200e+00 1.731258e+02 
1.448110e+00 1.678581e+02 
1.484090e+00 1.626543e+02 
1.518820e+00 1.578285e+02 
1.552880e+00 1.532661e+02 
1.588630e+00 1.486668e+02 
1.623230e+00 1.443869e+02 
1.657720e+00 1.402825e+02 
1.692450e+00 1.363104e+02 
1.726400e+00 1.325561e+02 
1.762200e+00 1.287408e+02 
1.797880e+00 1.250902e+02 
1.833270e+00 1.215977e+02 
1.869070e+00 1.181947e+02 
1.903200e+00 1.150733e+02 
1.937740e+00 1.120238e+02 
1.973190e+00 1.089997e+02 
2.007440e+00 1.061839e+02 
2.042160e+00 1.034303e+02 
2.077900e+00 1.006890e+02 
2.112390e+00 9.814138e+01 
2.146220e+00 9.571675e+01 
2.181600e+00 9.326856e+01 
2.216930e+00 9.090842e+01 
2.250760e+00 8.872242e+01 
2.286500e+00 8.648819e+01 
2.321770e+00 8.435723e+01 
2.355950e+00 8.235975e+01 
2.391280e+00 8.035822e+01 
2.426240e+00 7.844298e+01 
2.460670e+00 7.661770e+01 
2.495640e+00 7.482246e+01 
2.531080e+00 7.305488e+01 
2.566220e+00 7.135890e+01 
2.600830e+00 6.974166e+01 
2.635080e+00 6.819106e+01 
2.670340e+00 6.664173e+01 
2.705970e+00 6.512376e+01 
2.740040e+00 6.371533e+01 
2.774520e+00 6.232809e+01 
2.809730e+00 6.095539e+01 
2.844390e+00 5.964552e+01 
2.879960e+00 5.834021e+01 
2.914860e+00 5.709551e+01 
2.949410e+00 5.589922e+01 
2.984440e+00 5.472099e+01 
3.019760e+00 5.356627e+01 
3.054730e+00 5.245576e+01 
3.089030e+00 5.139624e+01 
3.124060e+00 5.034400e+01 
3.159560e+00 4.930638e+01 
3.194710e+00 4.830817e+01 
3.229010e+00 4.736153e+01 
3.263320e+00 4.643974e+01 
3.297930e+00 4.553447e+01 
3.332830e+00 4.464440e+01 
3.368040e+00 4.377089e+01 
3.403300e+00 4.291999e+01 
3.438450e+00 4.209449e+01 
3.473060e+00 4.130342e+01 
3.508440e+00 4.051478e+01 
3.543110e+00 3.976239e+01 
3.577470e+00 3.903570e+01 
3.613040e+00 3.830258e+01 
3.648120e+00 3.759725e+01 
3.682910e+00 3.691567e+01 
3.718050e+00 3.624477e+01 
3.753320e+00 3.558857e+01 
3.787980e+00 3.495998e+01 
3.822290e+00 3.435290e+01 
3.857020e+00 3.375324e+01 
3.891920e+00 3.316522e+01 
3.926650e+00 3.259408e+01 
3.961970e+00 3.202737e+01 
3.997360e+00 3.147368e+01 
4.031670e+00 3.094954e+01 
4.066330e+00 3.043244e+01 
4.101420e+00 2.992106e+01 
4.136200e+00 2.942630e+01 
4.170810e+00 2.894513e+01 
4.206250e+00 2.846371e+01 
4.241580e+00 2.799474e+01 
4.276300e+00 2.754481e+01 
4.310970e+00 2.710577e+01 
4.346120e+00 2.667079e+01 
4.380600e+00 2.625398e+01 
4.414730e+00 2.585021e+01 
4.450350e+00 2.543868e+01 
4.485320e+00 2.504338e+01 
4.519810e+00 2.466228e+01 
4.555430e+00 2.427724e+01 
4.590870e+00 2.390264e+01 
4.625480e+00 2.354514e+01 
4.659910e+00 2.319674e+01 
4.695230e+00 2.284734e+01 
4.729960e+00 2.251088e+01 
4.764450e+00 2.218378e+01 
4.799530e+00 2.185833e+01 
4.834910e+00 2.153667e+01 
4.869700e+00 2.122750e+01 
4.904370e+00 2.092555e+01 
4.939450e+00 2.062627e+01 
4.973940e+00 2.033849e+01 
5.008430e+00 2.005616e+01 
5.043810e+00 1.977260e+01 
5.078840e+00 1.949752e+01 
5.113500e+00 1.923047e+01 
5.148890e+00 1.896397e+01 
5.184210e+00 1.870304e+01 
5.219060e+00 1.845061e+01 
5.253660e+00 1.820524e+01 
5.288570e+00 1.796216e+01 
5.323420e+00 1.772434e+01 
5.358440e+00 1.749017e+01 
5.393590e+00 1.725935e+01 
5.428310e+00 1.703606e+01 
5.462800e+00 1.681849e+01 
5.497640e+00 1.660253e+01 
5.532670e+00 1.638983e+01 
5.567280e+00 1.618352e+01 
5.602000e+00 1.598009e+01 
5.637270e+00 1.577772e+01 
5.672410e+00 1.557974e+01 
5.707020e+00 1.538803e+01 
5.742040e+00 1.519799e+01 
5.777430e+00 1.500932e+01 
5.812210e+00 1.482700e+01 
5.846820e+00 1.464916e+01 
5.881610e+00 1.447347e+01 
5.916510e+00 1.430008e+01 
5.951600e+00 1.412915e+01 
5.986560e+00 1.396186e+01 
6.021830e+00 1.379581e+01 
6.056490e+00 1.363566e+01 
6.091160e+00 1.347833e+01 
6.125830e+00 1.332347e+01 
6.161090e+00 1.316868e+01 
6.195760e+00 1.301933e+01 
6.230420e+00 1.287233e+01 
6.265690e+00 1.272507e+01 
6.300950e+00 1.258078e+01 
6.335620e+00 1.244107e+01 
6.370880e+00 1.230114e+01 
6.405550e+00 1.216609e+01 
6.440220e+00 1.203324e+01 
6.475480e+00 1.190014e+01 
6.510150e+00 1.177139e+01 
6.544810e+00 1.164493e+01 
6.580080e+00 1.151815e+01 
6.614750e+00 1.139534e+01 
6.649410e+00 1.127490e+01 
6.684080e+00 1.115627e+01 
6.719340e+00 1.103735e+01 
6.754010e+00 1.092224e+01 
6.788680e+00 1.080908e+01 
6.823940e+00 1.069562e+01 
6.859800e+00 1.058189e+01 
6.894470e+00 1.047387e+01 
6.929140e+00 1.036747e+01 
6.963800e+00 1.026257e+01 
6.999070e+00 1.015733e+01 
7.033730e+00 1.005571e+01 
7.068400e+00 9.955446e+00 
7.103660e+00 9.854863e+00 
7.138330e+00 9.757462e+00 
7.173600e+00 9.660039e+00 
7.208260e+00 9.565586e+00 
7.243530e+00 9.470757e+00 
7.277600e+00 9.380591e+00 
7.312860e+00 9.288712e+00 
7.348120e+00 9.198052e+00 
7.382790e+00 9.110080e+00 
7.417460e+00 9.023470e+00 
7.452720e+00 8.936646e+00 
7.487390e+00 8.852380e+00 
7.522650e+00 8.767784e+00 
7.557320e+00 8.685902e+00 
7.591990e+00 8.605144e+00 
7.627250e+00 8.524055e+00 
7.662510e+00 8.444000e+00 
7.697180e+00 8.366528e+00 
7.731850e+00 8.290116e+00 
7.766510e+00 8.214671e+00 
7.801180e+00 8.140134e+00 
7.836440e+00 8.065481e+00 
7.871110e+00 7.993113e+00 
7.906380e+00 7.920396e+00 
7.941040e+00 7.849810e+00 
7.976310e+00 7.778955e+00 
8.011570e+00 7.709106e+00 
8.046240e+00 7.641253e+00 
8.080900e+00 7.574228e+00 
8.115570e+00 7.508034e+00 
8.150830e+00 7.441723e+00 
8.185500e+00 7.377295e+00 
8.220770e+00 7.312526e+00 
8.255430e+00 7.249626e+00 
8.290100e+00 7.187648e+00 
8.324770e+00 7.126411e+00 
8.359430e+00 7.065897e+00 
8.394700e+00 7.005030e+00 
8.429960e+00 6.945008e+00 
8.464630e+00 6.886789e+00 
8.499890e+00 6.828256e+00 
8.534560e+00 6.771358e+00 
8.569200e+00 6.715148e+00 
