# Parameters:
# omega_b = 0.021579, omega_m = 0.148110, n_s = 0.872047, h = 67.519685, w = -1.000000, sigma_8 = 0.845118
# z = 1.000000
#
# k[1/Mpc] # P(k):
8.694000e-04 8.298401e+03 
2.077466e-03 1.642067e+04 
3.285532e-03 2.238884e+04 
4.493598e-03 2.679750e+04 
5.701664e-03 2.996618e+04 
6.909730e-03 3.213378e+04 
8.117797e-03 3.353890e+04 
9.325863e-03 3.430496e+04 
1.053393e-02 3.455064e+04 
1.174199e-02 3.438210e+04 
1.295006e-02 3.386520e+04 
1.415813e-02 3.308473e+04 
1.536619e-02 3.211106e+04 
1.657426e-02 3.098992e+04 
1.778233e-02 2.974989e+04 
1.899039e-02 2.843884e+04 
2.019846e-02 2.710969e+04 
2.140652e-02 2.581445e+04 
2.261459e-02 2.456407e+04 
2.382266e-02 2.337312e+04 
2.503072e-02 2.225477e+04 
2.623879e-02 2.121393e+04 
2.744685e-02 2.025206e+04 
2.865492e-02 1.937181e+04 
2.986299e-02 1.857051e+04 
3.100100e-02 1.788546e+04 
3.220400e-02 1.723056e+04 
3.288100e-02 1.689225e+04 
3.424300e-02 1.627107e+04 
3.555100e-02 1.573920e+04 
3.686000e-02 1.526326e+04 
3.795000e-02 1.490247e+04 
3.929100e-02 1.449719e+04 
4.039800e-02 1.418676e+04 
4.164000e-02 1.385764e+04 
4.294400e-02 1.352529e+04 
4.415000e-02 1.322703e+04 
4.542900e-02 1.290992e+04 
4.660900e-02 1.261879e+04 
4.782300e-02 1.230822e+04 
4.892900e-02 1.202213e+04 
5.031200e-02 1.165506e+04 
5.155900e-02 1.131399e+04 
5.238100e-02 1.108564e+04 
5.378200e-02 1.069209e+04 
5.513400e-02 1.030773e+04 
5.627600e-02 9.982588e+03 
5.735300e-02 9.678736e+03 
5.870100e-02 9.305062e+03 
5.988700e-02 8.985914e+03 
6.113500e-02 8.661541e+03 
6.225900e-02 8.381370e+03 
6.340100e-02 8.110275e+03 
6.480200e-02 7.797277e+03 
6.601100e-02 7.546031e+03 
6.725500e-02 7.306216e+03 
6.829100e-02 7.122309e+03 
6.958600e-02 6.909329e+03 
7.071100e-02 6.740900e+03 
7.192300e-02 6.575002e+03 
7.307400e-02 6.431336e+03 
7.412300e-02 6.311135e+03 
7.550400e-02 6.168085e+03 
7.663100e-02 6.061099e+03 
7.791200e-02 5.950804e+03 
7.912700e-02 5.854582e+03 
8.027600e-02 5.768817e+03 
8.138400e-02 5.689649e+03 
8.272200e-02 5.597299e+03 
8.406100e-02 5.506719e+03 
8.534100e-02 5.419571e+03 
8.653800e-02 5.336136e+03 
8.759800e-02 5.260969e+03 
8.900300e-02 5.158488e+03 
9.009000e-02 5.076121e+03 
9.113300e-02 4.993930e+03 
9.239600e-02 4.892744e+03 
9.358000e-02 4.795253e+03 
9.496100e-02 4.678089e+03 
9.608400e-02 4.582369e+03 
9.727500e-02 4.481248e+03 
9.852600e-02 4.373634e+03 
9.973800e-02 4.271549e+03 
1.009000e-01 4.175755e+03 
1.020900e-01 4.079963e+03 
1.034000e-01 3.978420e+03 
1.046000e-01 3.888989e+03 
1.057200e-01 3.809993e+03 
1.069100e-01 3.729430e+03 
1.082500e-01 3.644623e+03 
1.093900e-01 3.577027e+03 
1.105400e-01 3.512066e+03 
1.116900e-01 3.452508e+03 
1.129600e-01 3.389826e+03 
1.142000e-01 3.333703e+03 
1.153300e-01 3.285247e+03 
1.166400e-01 3.232657e+03 
1.177800e-01 3.189763e+03 
1.190000e-01 3.145771e+03 
1.201200e-01 3.107611e+03 
1.213400e-01 3.067251e+03 
1.227100e-01 3.023864e+03 
1.238900e-01 2.987385e+03 
1.250700e-01 2.951489e+03 
1.263200e-01 2.914014e+03 
1.275500e-01 2.877249e+03 
1.287500e-01 2.841587e+03 
1.299900e-01 2.804599e+03 
1.311300e-01 2.770544e+03 
1.323500e-01 2.733683e+03 
1.335900e-01 2.696171e+03 
1.347100e-01 2.661837e+03 
1.359800e-01 2.623017e+03 
1.372100e-01 2.584788e+03 
1.384300e-01 2.547201e+03 
1.395700e-01 2.511591e+03 
1.407700e-01 2.474790e+03 
1.420300e-01 2.435756e+03 
1.432800e-01 2.397919e+03 
1.444500e-01 2.362599e+03 
1.456300e-01 2.327736e+03 
1.468900e-01 2.291468e+03 
1.480500e-01 2.258841e+03 
1.491700e-01 2.228276e+03 
1.503800e-01 2.196313e+03 
1.516400e-01 2.163961e+03 
1.528200e-01 2.135264e+03 
1.540200e-01 2.106663e+03 
1.551900e-01 2.080448e+03 
1.564300e-01 2.053482e+03 
1.576600e-01 2.027858e+03 
1.588700e-01 2.003848e+03 
1.600900e-01 1.980154e+03 
1.612700e-01 1.958629e+03 
1.625400e-01 1.935897e+03 
1.637600e-01 1.914821e+03 
1.649500e-01 1.894839e+03 
1.662200e-01 1.873922e+03 
1.674000e-01 1.854930e+03 
1.685000e-01 1.837523e+03 
1.697500e-01 1.817942e+03 
1.710300e-01 1.798118e+03 
1.722200e-01 1.780016e+03 
1.734400e-01 1.761228e+03 
1.746400e-01 1.743046e+03 
1.758700e-01 1.724535e+03 
1.770900e-01 1.706094e+03 
1.782700e-01 1.688560e+03 
1.794600e-01 1.670860e+03 
1.807000e-01 1.652520e+03 
1.819100e-01 1.634929e+03 
1.830100e-01 1.618910e+03 
1.842200e-01 1.601522e+03 
1.855000e-01 1.583436e+03 
1.867000e-01 1.566620e+03 
1.879200e-01 1.549805e+03 
1.890900e-01 1.533948e+03 
1.902800e-01 1.518117e+03 
1.915200e-01 1.501888e+03 
1.926900e-01 1.486868e+03 
1.939000e-01 1.471732e+03 
1.951700e-01 1.456103e+03 
1.963100e-01 1.442356e+03 
1.975100e-01 1.428272e+03 
1.987800e-01 1.413601e+03 
2.000100e-01 1.399702e+03 
2.012500e-01 1.386104e+03 
2.023400e-01 1.374325e+03 
2.036100e-01 1.360847e+03 
2.048900e-01 1.347652e+03 
2.060400e-01 1.335974e+03 
2.072200e-01 1.324172e+03 
2.084200e-01 1.312497e+03 
2.096900e-01 1.300323e+03 
2.109200e-01 1.288707e+03 
2.121100e-01 1.277696e+03 
2.132700e-01 1.267115e+03 
2.145200e-01 1.255873e+03 
2.157200e-01 1.245255e+03 
2.168800e-01 1.235140e+03 
2.180700e-01 1.224904e+03 
2.193400e-01 1.214122e+03 
2.206000e-01 1.203560e+03 
2.217500e-01 1.194051e+03 
2.229500e-01 1.184259e+03 
2.241400e-01 1.174643e+03 
2.253500e-01 1.164994e+03 
2.264900e-01 1.156022e+03 
2.277100e-01 1.146521e+03 
2.289900e-01 1.136662e+03 
2.301500e-01 1.127846e+03 
2.313600e-01 1.118769e+03 
2.325600e-01 1.109846e+03 
2.337700e-01 1.100966e+03 
2.350000e-01 1.092057e+03 
2.362000e-01 1.083475e+03 
2.374100e-01 1.074928e+03 
2.386500e-01 1.066282e+03 
2.399100e-01 1.057612e+03 
2.410400e-01 1.049933e+03 
2.422500e-01 1.041809e+03 
2.435000e-01 1.033524e+03 
2.447300e-01 1.025482e+03 
2.458700e-01 1.018147e+03 
2.470600e-01 1.010580e+03 
2.483300e-01 1.002605e+03 
2.495600e-01 9.949942e+02 
2.507600e-01 9.876808e+02 
2.519600e-01 9.804548e+02 
2.532200e-01 9.729601e+02 
2.543700e-01 9.662336e+02 
2.555500e-01 9.594326e+02 
2.568000e-01 9.523136e+02 
2.580100e-01 9.455047e+02 
2.592400e-01 9.387030e+02 
2.604100e-01 9.323244e+02 
2.616100e-01 9.258564e+02 
2.628400e-01 9.193034e+02 
2.640600e-01 9.129093e+02 
2.652200e-01 9.069097e+02 
2.664300e-01 9.007211e+02 
2.676500e-01 8.945521e+02 
2.688400e-01 8.886270e+02 
2.700700e-01 8.825868e+02 
2.712400e-01 8.769046e+02 
2.724800e-01 8.709490e+02 
2.736700e-01 8.653100e+02 
2.748800e-01 8.596524e+02 
2.761000e-01 8.540105e+02 
2.773200e-01 8.484306e+02 
2.785400e-01 8.429175e+02 
2.797000e-01 8.377435e+02 
2.808900e-01 8.324910e+02 
2.821400e-01 8.270332e+02 
2.833900e-01 8.216355e+02 
2.845500e-01 8.166849e+02 
2.857800e-01 8.114901e+02 
2.870300e-01 8.062678e+02 
2.882100e-01 8.013896e+02 
2.893900e-01 7.965645e+02 
2.906300e-01 7.915485e+02 
2.918900e-01 7.865059e+02 
2.930500e-01 7.819113e+02 
2.942500e-01 7.772056e+02 
2.954200e-01 7.726632e+02 
2.966500e-01 7.679360e+02 
2.978900e-01 7.632195e+02 
2.990400e-01 7.588889e+02 
3.002700e-01 7.543018e+02 
3.015100e-01 7.497241e+02 
3.026800e-01 7.454476e+02 
3.038500e-01 7.412122e+02 
3.050300e-01 7.369815e+02 
3.062600e-01 7.326147e+02 
3.075000e-01 7.282565e+02 
3.087000e-01 7.240803e+02 
3.099100e-01 7.199101e+02 
3.111200e-01 7.157821e+02 
3.123100e-01 7.117642e+02 
3.135300e-01 7.076845e+02 
3.147300e-01 7.037100e+02 
3.159900e-01 6.995772e+02 
3.171800e-01 6.957159e+02 
3.183700e-01 6.918933e+02 
3.196300e-01 6.878845e+02 
3.208400e-01 6.840716e+02 
3.220300e-01 6.803565e+02 
3.232000e-01 6.767422e+02 
3.244300e-01 6.729796e+02 
3.256700e-01 6.692223e+02 
3.269200e-01 6.654705e+02 
3.280800e-01 6.620206e+02 
3.292500e-01 6.585814e+02 
3.304800e-01 6.550016e+02 
3.317100e-01 6.514547e+02 
3.328900e-01 6.480827e+02 
3.340700e-01 6.447402e+02 
3.353600e-01 6.411304e+02 
3.365300e-01 6.378903e+02 
3.377100e-01 6.346506e+02 
3.389200e-01 6.313577e+02 
3.401600e-01 6.280134e+02 
3.413700e-01 6.247910e+02 
3.425300e-01 6.217367e+02 
3.437700e-01 6.185000e+02 
3.449800e-01 6.153694e+02 
3.461800e-01 6.122915e+02 
3.473600e-01 6.092958e+02 
3.485800e-01 6.062373e+02 
3.498100e-01 6.031805e+02 
3.510200e-01 6.001993e+02 
3.522000e-01 5.973164e+02 
3.533900e-01 5.944333e+02 
3.546400e-01 5.914489e+02 
3.558400e-01 5.886094e+02 
3.570600e-01 5.857467e+02 
3.582700e-01 5.829314e+02 
3.595000e-01 5.800935e+02 
3.607100e-01 5.773352e+02 
3.618900e-01 5.746751e+02 
3.631200e-01 5.719250e+02 
3.643200e-01 5.692642e+02 
3.655500e-01 5.665592e+02 
3.667300e-01 5.639853e+02 
3.679500e-01 5.613650e+02 
3.691900e-01 5.587236e+02 
3.703600e-01 5.562514e+02 
3.715700e-01 5.537149e+02 
3.727700e-01 5.512195e+02 
3.739900e-01 5.487093e+02 
3.752000e-01 5.462517e+02 
3.763900e-01 5.438537e+02 
3.775800e-01 5.414743e+02 
3.788200e-01 5.390146e+02 
3.800300e-01 5.366335e+02 
3.812100e-01 5.343373e+02 
3.824200e-01 5.320061e+02 
3.836100e-01 5.297313e+02 
3.848600e-01 5.273603e+02 
3.860400e-01 5.251395e+02 
3.872400e-01 5.228982e+02 
3.884600e-01 5.206475e+02 
3.896500e-01 5.184727e+02 
3.908700e-01 5.162600e+02 
3.920600e-01 5.141181e+02 
3.933100e-01 5.118853e+02 
3.945300e-01 5.097230e+02 
3.957200e-01 5.076408e+02 
3.969300e-01 5.055426e+02 
3.981700e-01 5.034086e+02 
3.993500e-01 5.013931e+02 
4.094840e-01 4.846807e+02 
4.272360e-01 4.579688e+02 
4.454600e-01 4.333246e+02 
4.630560e-01 4.117881e+02 
4.804610e-01 3.923608e+02 
4.980690e-01 3.743592e+02 
5.159230e-01 3.576082e+02 
5.317440e-01 3.438933e+02 
5.489640e-01 3.300647e+02 
5.671990e-01 3.165667e+02 
5.838690e-01 3.051468e+02 
6.018840e-01 2.937047e+02 
6.202330e-01 2.829318e+02 
6.379250e-01 2.732911e+02 
6.545410e-01 2.648753e+02 
6.714560e-01 2.568448e+02 
6.892080e-01 2.489758e+02 
7.066010e-01 2.417593e+02 
7.240540e-01 2.349636e+02 
7.420450e-01 2.283854e+02 
7.593780e-01 2.224145e+02 
7.764720e-01 2.168436e+02 
7.942840e-01 2.113528e+02 
8.116170e-01 2.062852e+02 
8.288310e-01 2.014994e+02 
8.462240e-01 1.968878e+02 
8.631980e-01 1.925859e+02 
8.810700e-01 1.882570e+02 
8.989410e-01 1.841173e+02 
9.166330e-01 1.801861e+02 
9.345640e-01 1.763627e+02 
9.515980e-01 1.728637e+02 
9.688720e-01 1.694423e+02 
9.865640e-01 1.660574e+02 
1.031870e+00 1.579124e+02 
1.063490e+00 1.526128e+02 
1.097920e+00 1.471681e+02 
1.134370e+00 1.417308e+02 
1.167730e+00 1.370265e+02 
1.203830e+00 1.321875e+02 
1.240470e+00 1.275422e+02 
1.275790e+00 1.232758e+02 
1.309140e+00 1.194519e+02 
1.342970e+00 1.157273e+02 
1.378420e+00 1.120113e+02 
1.413200e+00 1.085218e+02 
1.448110e+00 1.051719e+02 
1.484090e+00 1.018751e+02 
1.518820e+00 9.882809e+01 
1.552880e+00 9.595668e+01 
1.588630e+00 9.306906e+01 
1.623230e+00 9.038992e+01 
1.657720e+00 8.782552e+01 
1.692450e+00 8.534781e+01 
1.726400e+00 8.301189e+01 
1.762200e+00 8.064275e+01 
1.797880e+00 7.837737e+01 
1.833270e+00 7.621444e+01 
1.869070e+00 7.410984e+01 
1.903200e+00 7.217961e+01 
1.937740e+00 7.029600e+01 
1.973190e+00 6.843060e+01 
2.007440e+00 6.669429e+01 
2.042160e+00 6.499653e+01 
2.077900e+00 6.330828e+01 
2.112390e+00 6.173876e+01 
2.146220e+00 6.024695e+01 
2.181600e+00 5.873998e+01 
2.216930e+00 5.728761e+01 
2.250760e+00 5.594273e+01 
2.286500e+00 5.456841e+01 
2.321770e+00 5.325768e+01 
2.355950e+00 5.202845e+01 
2.391280e+00 5.079691e+01 
2.426240e+00 4.961784e+01 
2.460670e+00 4.849390e+01 
2.495640e+00 4.738857e+01 
2.531080e+00 4.630022e+01 
2.566220e+00 4.525540e+01 
2.600830e+00 4.425852e+01 
2.635080e+00 4.330215e+01 
2.670340e+00 4.234593e+01 
2.705970e+00 4.140896e+01 
2.740040e+00 4.053946e+01 
2.774520e+00 3.968295e+01 
2.809730e+00 3.883443e+01 
2.844390e+00 3.802414e+01 
2.879960e+00 3.721614e+01 
2.914860e+00 3.644551e+01 
2.949410e+00 3.570446e+01 
2.984440e+00 3.497366e+01 
3.019760e+00 3.425733e+01 
3.054730e+00 3.356822e+01 
3.089030e+00 3.290974e+01 
3.124060e+00 3.225564e+01 
3.159560e+00 3.161051e+01 
3.194710e+00 3.098908e+01 
3.229010e+00 3.039934e+01 
3.263320e+00 2.982422e+01 
3.297930e+00 2.925931e+01 
3.332830e+00 2.870386e+01 
3.368040e+00 2.815811e+01 
3.403300e+00 2.762598e+01 
3.438450e+00 2.710909e+01 
3.473060e+00 2.661349e+01 
3.508440e+00 2.611907e+01 
3.543110e+00 2.564714e+01 
3.577470e+00 2.519069e+01 
3.613040e+00 2.473002e+01 
3.648120e+00 2.428653e+01 
3.682910e+00 2.385767e+01 
3.718050e+00 2.343507e+01 
3.753320e+00 2.302143e+01 
3.787980e+00 2.262482e+01 
3.822290e+00 2.224149e+01 
3.857020e+00 2.186244e+01 
3.891920e+00 2.149051e+01 
3.926650e+00 2.112891e+01 
3.961970e+00 2.076990e+01 
3.997360e+00 2.041871e+01 
4.031670e+00 2.008614e+01 
4.066330e+00 1.975770e+01 
4.101420e+00 1.943281e+01 
4.136200e+00 1.911803e+01 
4.170810e+00 1.881183e+01 
4.206250e+00 1.850516e+01 
4.241580e+00 1.820632e+01 
4.276300e+00 1.791928e+01 
4.310970e+00 1.763899e+01 
4.346120e+00 1.736111e+01 
4.380600e+00 1.709458e+01 
4.414730e+00 1.683633e+01 
4.450350e+00 1.657271e+01 
4.485320e+00 1.631945e+01 
4.519810e+00 1.607503e+01 
4.555430e+00 1.582796e+01 
4.590870e+00 1.558744e+01 
4.625480e+00 1.535766e+01 
4.659910e+00 1.513370e+01 
4.695230e+00 1.490881e+01 
4.729960e+00 1.469219e+01 
4.764450e+00 1.448147e+01 
4.799530e+00 1.427159e+01 
4.834910e+00 1.406414e+01 
4.869700e+00 1.386451e+01 
4.904370e+00 1.366949e+01 
4.939450e+00 1.347611e+01 
4.973940e+00 1.328995e+01 
5.008430e+00 1.310731e+01 
5.043810e+00 1.292370e+01 
5.078840e+00 1.274547e+01 
5.113500e+00 1.257243e+01 
5.148890e+00 1.239955e+01 
5.184210e+00 1.223026e+01 
5.219060e+00 1.206642e+01 
5.253660e+00 1.190699e+01 
5.288570e+00 1.174905e+01 
5.323420e+00 1.159443e+01 
5.358440e+00 1.144209e+01 
5.393590e+00 1.129193e+01 
5.428310e+00 1.114654e+01 
5.462800e+00 1.100481e+01 
5.497640e+00 1.086412e+01 
5.532670e+00 1.072544e+01 
5.567280e+00 1.059088e+01 
5.602000e+00 1.045819e+01 
5.637270e+00 1.032610e+01 
5.672410e+00 1.019683e+01 
5.707020e+00 1.007167e+01 
5.742040e+00 9.947476e+00 
5.777430e+00 9.824156e+00 
5.812210e+00 9.704984e+00 
5.846820e+00 9.588662e+00 
5.881610e+00 9.473724e+00 
5.916510e+00 9.360301e+00 
5.951600e+00 9.248410e+00 
5.986560e+00 9.138871e+00 
6.021830e+00 9.030143e+00 
6.056490e+00 8.925231e+00 
6.091160e+00 8.822136e+00 
6.125830e+00 8.720655e+00 
6.161090e+00 8.619198e+00 
6.195760e+00 8.521275e+00 
6.230420e+00 8.424887e+00 
6.265690e+00 8.328333e+00 
6.300950e+00 8.233660e+00 
6.335620e+00 8.141994e+00 
6.370880e+00 8.050185e+00 
6.405550e+00 7.961553e+00 
6.440220e+00 7.874356e+00 
6.475480e+00 7.787001e+00 
6.510150e+00 7.702482e+00 
6.544810e+00 7.619446e+00 
6.580080e+00 7.536192e+00 
6.614750e+00 7.455554e+00 
6.649410e+00 7.376457e+00 
6.684080e+00 7.298544e+00 
6.719340e+00 7.220448e+00 
6.754010e+00 7.144848e+00 
6.788680e+00 7.070523e+00 
6.823940e+00 6.996008e+00 
6.859800e+00 6.921313e+00 
6.894470e+00 6.850362e+00 
6.929140e+00 6.780483e+00 
6.963800e+00 6.711587e+00 
6.999070e+00 6.642468e+00 
7.033730e+00 6.575721e+00 
7.068400e+00 6.509862e+00 
7.103660e+00 6.443799e+00 
7.138330e+00 6.379832e+00 
7.173600e+00 6.315864e+00 
7.208260e+00 6.253849e+00 
7.243530e+00 6.191587e+00 
7.277600e+00 6.132396e+00 
7.312860e+00 6.072086e+00 
7.348120e+00 6.012579e+00 
7.382790e+00 5.954837e+00 
7.417460e+00 5.898002e+00 
7.452720e+00 5.841034e+00 
7.487390e+00 5.785745e+00 
7.522650e+00 5.730242e+00 
7.557320e+00 5.676541e+00 
7.591990e+00 5.623585e+00 
7.627250e+00 5.570413e+00 
7.662510e+00 5.517921e+00 
7.697180e+00 5.467138e+00 
7.731850e+00 5.417056e+00 
7.766510e+00 5.367609e+00 
7.801180e+00 5.318759e+00 
7.836440e+00 5.269855e+00 
7.871110e+00 5.222462e+00 
7.906380e+00 5.174841e+00 
7.941040e+00 5.128616e+00 
7.976310e+00 5.082234e+00 
8.011570e+00 5.036530e+00 
8.046240e+00 4.992133e+00 
8.080900e+00 4.948278e+00 
8.115570e+00 4.904974e+00 
8.150830e+00 4.861622e+00 
8.185500e+00 4.819500e+00 
8.220770e+00 4.777156e+00 
8.255430e+00 4.736034e+00 
8.290100e+00 4.695550e+00 
8.324770e+00 4.655555e+00 
8.359430e+00 4.616032e+00 
8.394700e+00 4.576278e+00 
8.429960e+00 4.537097e+00 
8.464630e+00 4.499113e+00 
8.499890e+00 4.460925e+00 
8.534560e+00 4.423803e+00 
8.569200e+00 4.387130e+00 
