# Parameters:
# omega_b = 0.022020, omega_m = 0.147835, n_s = 0.942913, h = 76.259843, w = -1.000000, sigma_8 = 0.807717
# z = 1.000000
#
# k[1/Mpc] # P(k):
8.694000e-04 5.047999e+03 
2.077466e-03 1.062511e+04 
3.285532e-03 1.497477e+04 
4.493598e-03 1.833753e+04 
5.701664e-03 2.085936e+04 
6.909730e-03 2.267517e+04 
8.117797e-03 2.393767e+04 
9.325863e-03 2.472509e+04 
1.053393e-02 2.511567e+04 
1.174199e-02 2.518126e+04 
1.295006e-02 2.496836e+04 
1.415813e-02 2.453918e+04 
1.536619e-02 2.394480e+04 
1.657426e-02 2.321409e+04 
1.778233e-02 2.233457e+04 
1.899039e-02 2.132156e+04 
2.019846e-02 2.028329e+04 
2.140652e-02 1.930265e+04 
2.261459e-02 1.837117e+04 
2.382266e-02 1.748624e+04 
2.503072e-02 1.665603e+04 
2.623879e-02 1.588497e+04 
2.744685e-02 1.517552e+04 
2.865492e-02 1.452971e+04 
2.986299e-02 1.394589e+04 
3.100100e-02 1.345159e+04 
3.220400e-02 1.298435e+04 
3.288100e-02 1.274605e+04 
3.424300e-02 1.231436e+04 
3.555100e-02 1.195154e+04 
3.686000e-02 1.163367e+04 
3.795000e-02 1.139699e+04 
3.929100e-02 1.113645e+04 
4.039800e-02 1.093923e+04 
4.164000e-02 1.073095e+04 
4.294400e-02 1.051897e+04 
4.415000e-02 1.032595e+04 
4.542900e-02 1.011430e+04 
4.660900e-02 9.914731e+03 
4.782300e-02 9.692495e+03 
4.892900e-02 9.481887e+03 
5.031200e-02 9.202691e+03 
5.155900e-02 8.934975e+03 
5.238100e-02 8.752219e+03 
5.378200e-02 8.431998e+03 
5.513400e-02 8.114051e+03 
5.627600e-02 7.842529e+03 
5.735300e-02 7.587788e+03 
5.870100e-02 7.274340e+03 
5.988700e-02 7.007519e+03 
6.113500e-02 6.738019e+03 
6.225900e-02 6.507523e+03 
6.340100e-02 6.287162e+03 
6.480200e-02 6.036175e+03 
6.601100e-02 5.838836e+03 
6.725500e-02 5.654160e+03 
6.829100e-02 5.515883e+03 
6.958600e-02 5.358628e+03 
7.071100e-02 5.237310e+03 
7.192300e-02 5.120342e+03 
7.307400e-02 5.021136e+03 
7.412300e-02 4.939561e+03 
7.550400e-02 4.844239e+03 
7.663100e-02 4.773697e+03 
7.791200e-02 4.701452e+03 
7.912700e-02 4.638063e+03 
8.027600e-02 4.580856e+03 
8.138400e-02 4.527203e+03 
8.272200e-02 4.463159e+03 
8.406100e-02 4.398600e+03 
8.534100e-02 4.334485e+03 
8.653800e-02 4.271534e+03 
8.759800e-02 4.213952e+03 
8.900300e-02 4.134206e+03 
9.009000e-02 4.069210e+03 
9.113300e-02 4.003682e+03 
9.239600e-02 3.922472e+03 
9.358000e-02 3.843618e+03 
9.496100e-02 3.748034e+03 
9.608400e-02 3.669507e+03 
9.727500e-02 3.586224e+03 
9.852600e-02 3.496804e+03 
9.973800e-02 3.411736e+03 
1.009000e-01 3.331725e+03 
1.020900e-01 3.251437e+03 
1.034000e-01 3.166396e+03 
1.046000e-01 3.091578e+03 
1.057200e-01 3.025936e+03 
1.069100e-01 2.959265e+03 
1.082500e-01 2.889964e+03 
1.093900e-01 2.835492e+03 
1.105400e-01 2.783598e+03 
1.116900e-01 2.737303e+03 
1.129600e-01 2.689058e+03 
1.142000e-01 2.647168e+03 
1.153300e-01 2.611511e+03 
1.166400e-01 2.573631e+03 
1.177800e-01 2.543350e+03 
1.190000e-01 2.512594e+03 
1.201200e-01 2.486218e+03 
1.213400e-01 2.458378e+03 
1.227100e-01 2.428261e+03 
1.238900e-01 2.402793e+03 
1.250700e-01 2.377208e+03 
1.263200e-01 2.350179e+03 
1.275500e-01 2.322954e+03 
1.287500e-01 2.296092e+03 
1.299900e-01 2.267523e+03 
1.311300e-01 2.240769e+03 
1.323500e-01 2.211148e+03 
1.335900e-01 2.180602e+03 
1.347100e-01 2.152129e+03 
1.359800e-01 2.119691e+03 
1.372100e-01 2.087264e+03 
1.384300e-01 2.055272e+03 
1.395700e-01 2.024688e+03 
1.407700e-01 1.993082e+03 
1.420300e-01 1.959439e+03 
1.432800e-01 1.926850e+03 
1.444500e-01 1.896587e+03 
1.456300e-01 1.866733e+03 
1.468900e-01 1.835995e+03 
1.480500e-01 1.808446e+03 
1.491700e-01 1.782891e+03 
1.503800e-01 1.756485e+03 
1.516400e-01 1.729892e+03 
1.528200e-01 1.706863e+03 
1.540200e-01 1.683912e+03 
1.551900e-01 1.663425e+03 
1.564300e-01 1.642488e+03 
1.576600e-01 1.622848e+03 
1.588700e-01 1.604761e+03 
1.600900e-01 1.586926e+03 
1.612700e-01 1.571069e+03 
1.625400e-01 1.554319e+03 
1.637600e-01 1.538822e+03 
1.649500e-01 1.524147e+03 
1.662200e-01 1.508749e+03 
1.674000e-01 1.494578e+03 
1.685000e-01 1.481587e+03 
1.697500e-01 1.466747e+03 
1.710300e-01 1.451501e+03 
1.722200e-01 1.437578e+03 
1.734400e-01 1.422615e+03 
1.746400e-01 1.408113e+03 
1.758700e-01 1.393196e+03 
1.770900e-01 1.378031e+03 
1.782700e-01 1.363612e+03 
1.794600e-01 1.348867e+03 
1.807000e-01 1.333464e+03 
1.819100e-01 1.318693e+03 
1.830100e-01 1.305128e+03 
1.842200e-01 1.290388e+03 
1.855000e-01 1.275060e+03 
1.867000e-01 1.260821e+03 
1.879200e-01 1.246588e+03 
1.890900e-01 1.233189e+03 
1.902800e-01 1.219920e+03 
1.915200e-01 1.206320e+03 
1.926900e-01 1.193779e+03 
1.939000e-01 1.181281e+03 
1.951700e-01 1.168379e+03 
1.963100e-01 1.157081e+03 
1.975100e-01 1.145642e+03 
1.987800e-01 1.133727e+03 
2.000100e-01 1.122484e+03 
2.012500e-01 1.111591e+03 
2.023400e-01 1.102154e+03 
2.036100e-01 1.091376e+03 
2.048900e-01 1.080897e+03 
2.060400e-01 1.071622e+03 
2.072200e-01 1.062252e+03 
2.084200e-01 1.053008e+03 
2.096900e-01 1.043369e+03 
2.109200e-01 1.034172e+03 
2.121100e-01 1.025442e+03 
2.132700e-01 1.017052e+03 
2.145200e-01 1.008138e+03 
2.157200e-01 9.997022e+02 
2.168800e-01 9.916586e+02 
2.180700e-01 9.835180e+02 
2.193400e-01 9.749411e+02 
2.206000e-01 9.665338e+02 
2.217500e-01 9.589648e+02 
2.229500e-01 9.511708e+02 
2.241400e-01 9.435403e+02 
2.253500e-01 9.358848e+02 
2.264900e-01 9.287658e+02 
2.277100e-01 9.212619e+02 
2.289900e-01 9.135141e+02 
2.301500e-01 9.065856e+02 
2.313600e-01 8.994516e+02 
2.325600e-01 8.925416e+02 
2.337700e-01 8.856636e+02 
2.350000e-01 8.787625e+02 
2.362000e-01 8.721661e+02 
2.374100e-01 8.656582e+02 
2.386500e-01 8.590739e+02 
2.399100e-01 8.524702e+02 
2.410400e-01 8.467041e+02 
2.422500e-01 8.406144e+02 
2.435000e-01 8.344020e+02 
2.447300e-01 8.283836e+02 
2.458700e-01 8.229428e+02 
2.470600e-01 8.173295e+02 
2.483300e-01 8.114123e+02 
2.495600e-01 8.057697e+02 
2.507600e-01 8.003541e+02 
2.519600e-01 7.950022e+02 
2.532200e-01 7.894501e+02 
2.543700e-01 7.844463e+02 
2.555500e-01 7.793726e+02 
2.568000e-01 7.740607e+02 
2.580100e-01 7.689793e+02 
2.592400e-01 7.638526e+02 
2.604100e-01 7.590220e+02 
2.616100e-01 7.541231e+02 
2.628400e-01 7.491590e+02 
2.640600e-01 7.442502e+02 
2.652200e-01 7.396182e+02 
2.664300e-01 7.348397e+02 
2.676500e-01 7.300759e+02 
2.688400e-01 7.254447e+02 
2.700700e-01 7.206884e+02 
2.712400e-01 7.162138e+02 
2.724800e-01 7.115235e+02 
2.736700e-01 7.070442e+02 
2.748800e-01 7.025106e+02 
2.761000e-01 6.979896e+02 
2.773200e-01 6.935179e+02 
2.785400e-01 6.890811e+02 
2.797000e-01 6.848781e+02 
2.808900e-01 6.806113e+02 
2.821400e-01 6.761776e+02 
2.833900e-01 6.717910e+02 
2.845500e-01 6.677300e+02 
2.857800e-01 6.634688e+02 
2.870300e-01 6.591849e+02 
2.882100e-01 6.551835e+02 
2.893900e-01 6.512088e+02 
2.906300e-01 6.470679e+02 
2.918900e-01 6.429052e+02 
2.930500e-01 6.391124e+02 
2.942500e-01 6.352246e+02 
2.954200e-01 6.314609e+02 
2.966500e-01 6.275443e+02 
2.978900e-01 6.236366e+02 
2.990400e-01 6.200487e+02 
3.002700e-01 6.162432e+02 
3.015100e-01 6.124430e+02 
3.026800e-01 6.088930e+02 
3.038500e-01 6.053771e+02 
3.050300e-01 6.018653e+02 
3.062600e-01 5.982378e+02 
3.075000e-01 5.946176e+02 
3.087000e-01 5.911487e+02 
3.099100e-01 5.876849e+02 
3.111200e-01 5.842562e+02 
3.123100e-01 5.809191e+02 
3.135300e-01 5.775306e+02 
3.147300e-01 5.742298e+02 
3.159900e-01 5.707976e+02 
3.171800e-01 5.675911e+02 
3.183700e-01 5.644171e+02 
3.196300e-01 5.610886e+02 
3.208400e-01 5.579229e+02 
3.220300e-01 5.548384e+02 
3.232000e-01 5.518395e+02 
3.244300e-01 5.487184e+02 
3.256700e-01 5.456016e+02 
3.269200e-01 5.424896e+02 
3.280800e-01 5.396281e+02 
3.292500e-01 5.367769e+02 
3.304800e-01 5.338096e+02 
3.317100e-01 5.308698e+02 
3.328900e-01 5.280749e+02 
3.340700e-01 5.253047e+02 
3.353600e-01 5.223143e+02 
3.365300e-01 5.196307e+02 
3.377100e-01 5.169477e+02 
3.389200e-01 5.142206e+02 
3.401600e-01 5.114509e+02 
3.413700e-01 5.087837e+02 
3.425300e-01 5.062566e+02 
3.437700e-01 5.035786e+02 
3.449800e-01 5.009885e+02 
3.461800e-01 4.984420e+02 
3.473600e-01 4.959639e+02 
3.485800e-01 4.934349e+02 
3.498100e-01 4.909073e+02 
3.510200e-01 4.884423e+02 
3.522000e-01 4.860586e+02 
3.533900e-01 4.836748e+02 
3.546400e-01 4.812084e+02 
3.558400e-01 4.788618e+02 
3.570600e-01 4.764961e+02 
3.582700e-01 4.741696e+02 
3.595000e-01 4.718246e+02 
3.607100e-01 4.695456e+02 
3.618900e-01 4.673480e+02 
3.631200e-01 4.650761e+02 
3.643200e-01 4.628779e+02 
3.655500e-01 4.606433e+02 
3.667300e-01 4.585171e+02 
3.679500e-01 4.563527e+02 
3.691900e-01 4.541710e+02 
3.703600e-01 4.521290e+02 
3.715700e-01 4.500340e+02 
3.727700e-01 4.479729e+02 
3.739900e-01 4.458997e+02 
3.752000e-01 4.438699e+02 
3.763900e-01 4.418893e+02 
3.775800e-01 4.399242e+02 
3.788200e-01 4.378927e+02 
3.800300e-01 4.359262e+02 
3.812100e-01 4.340296e+02 
3.824200e-01 4.321040e+02 
3.836100e-01 4.302248e+02 
3.848600e-01 4.282663e+02 
3.860400e-01 4.264319e+02 
3.872400e-01 4.245806e+02 
3.884600e-01 4.227214e+02 
3.896500e-01 4.209249e+02 
3.908700e-01 4.190972e+02 
3.920600e-01 4.173279e+02 
3.933100e-01 4.154837e+02 
3.945300e-01 4.136976e+02 
3.957200e-01 4.119770e+02 
3.969300e-01 4.102429e+02 
3.981700e-01 4.084793e+02 
3.993500e-01 4.068136e+02 
4.094840e-01 3.930025e+02 
4.272360e-01 3.709163e+02 
4.454600e-01 3.505385e+02 
4.630560e-01 3.327370e+02 
4.804610e-01 3.166878e+02 
4.980690e-01 3.018250e+02 
5.159230e-01 2.879995e+02 
5.317440e-01 2.766830e+02 
5.489640e-01 2.652755e+02 
5.671990e-01 2.541366e+02 
5.838690e-01 2.447111e+02 
6.018840e-01 2.352690e+02 
6.202330e-01 2.263789e+02 
6.379250e-01 2.184193e+02 
6.545410e-01 2.114739e+02 
6.714560e-01 2.048514e+02 
6.892080e-01 1.983612e+02 
7.066010e-01 1.924200e+02 
7.240540e-01 1.868267e+02 
7.420450e-01 1.814258e+02 
7.593780e-01 1.765333e+02 
7.764720e-01 1.719775e+02 
7.942840e-01 1.674955e+02 
8.116170e-01 1.633731e+02 
8.288310e-01 1.594927e+02 
8.462240e-01 1.557644e+02 
8.631980e-01 1.522997e+02 
8.810700e-01 1.488230e+02 
8.989410e-01 1.455098e+02 
9.166330e-01 1.423746e+02 
9.345640e-01 1.393360e+02 
9.515980e-01 1.365672e+02 
9.688720e-01 1.338688e+02 
9.865640e-01 1.312103e+02 
1.031870e+00 1.248441e+02 
1.063490e+00 1.207323e+02 
1.097920e+00 1.165309e+02 
1.134370e+00 1.123549e+02 
1.167730e+00 1.087602e+02 
1.203830e+00 1.050770e+02 
1.240470e+00 1.015523e+02 
1.275790e+00 9.832721e+01 
1.309140e+00 9.544053e+01 
1.342970e+00 9.263522e+01 
1.378420e+00 8.984094e+01 
1.413200e+00 8.722000e+01 
1.448110e+00 8.470466e+01 
1.484090e+00 8.223125e+01 
1.518820e+00 7.994472e+01 
1.552880e+00 7.778962e+01 
1.588630e+00 7.562056e+01 
1.623230e+00 7.360804e+01 
1.657720e+00 7.168024e+01 
1.692450e+00 6.981470e+01 
1.726400e+00 6.805460e+01 
1.762200e+00 6.626796e+01 
1.797880e+00 6.455567e+01 
1.833270e+00 6.292000e+01 
1.869070e+00 6.132555e+01 
1.903200e+00 5.985984e+01 
1.937740e+00 5.842773e+01 
1.973190e+00 5.700741e+01 
2.007440e+00 5.568257e+01 
2.042160e+00 5.438396e+01 
2.077900e+00 5.309094e+01 
2.112390e+00 5.188604e+01 
2.146220e+00 5.073924e+01 
2.181600e+00 4.957775e+01 
2.216930e+00 4.845592e+01 
2.250760e+00 4.741524e+01 
2.286500e+00 4.634987e+01 
2.321770e+00 4.533169e+01 
2.355950e+00 4.437441e+01 
2.391280e+00 4.341315e+01 
2.426240e+00 4.249067e+01 
2.460670e+00 4.160959e+01 
2.495640e+00 4.074161e+01 
2.531080e+00 3.988504e+01 
2.566220e+00 3.906072e+01 
2.600830e+00 3.827248e+01 
2.635080e+00 3.751467e+01 
2.670340e+00 3.675468e+01 
2.705970e+00 3.600869e+01 
2.740040e+00 3.531533e+01 
2.774520e+00 3.463116e+01 
2.809730e+00 3.395129e+01 
2.844390e+00 3.330064e+01 
2.879960e+00 3.265031e+01 
2.914860e+00 3.202889e+01 
2.949410e+00 3.143033e+01 
2.984440e+00 3.083822e+01 
3.019760e+00 3.025695e+01 
3.054730e+00 2.969700e+01 
3.089030e+00 2.915996e+01 
3.124060e+00 2.862580e+01 
3.159560e+00 2.809815e+01 
3.194710e+00 2.758846e+01 
3.229010e+00 2.710399e+01 
3.263320e+00 2.662997e+01 
3.297930e+00 2.616382e+01 
3.332830e+00 2.570472e+01 
3.368040e+00 2.525263e+01 
3.403300e+00 2.481101e+01 
3.438450e+00 2.438082e+01 
3.473060e+00 2.396785e+01 
3.508440e+00 2.355476e+01 
3.543110e+00 2.316003e+01 
3.577470e+00 2.277710e+01 
3.613040e+00 2.239020e+01 
3.648120e+00 2.201700e+01 
3.682910e+00 2.165556e+01 
3.718050e+00 2.129855e+01 
3.753320e+00 2.094854e+01 
3.787980e+00 2.061223e+01 
3.822290e+00 2.028665e+01 
3.857020e+00 1.996402e+01 
3.891920e+00 1.964700e+01 
3.926650e+00 1.933811e+01 
3.961970e+00 1.903104e+01 
3.997360e+00 1.873001e+01 
4.031670e+00 1.844462e+01 
4.066330e+00 1.816203e+01 
4.101420e+00 1.788231e+01 
4.136200e+00 1.761059e+01 
4.170810e+00 1.734613e+01 
4.206250e+00 1.708068e+01 
4.241580e+00 1.682177e+01 
4.276300e+00 1.657251e+01 
4.310970e+00 1.632873e+01 
4.346120e+00 1.608673e+01 
4.380600e+00 1.585418e+01 
4.414730e+00 1.562872e+01 
4.450350e+00 1.539792e+01 
4.485320e+00 1.517607e+01 
4.519810e+00 1.496151e+01 
4.555430e+00 1.474436e+01 
4.590870e+00 1.453272e+01 
4.625480e+00 1.433013e+01 
4.659910e+00 1.413258e+01 
4.695230e+00 1.393373e+01 
4.729960e+00 1.374203e+01 
4.764450e+00 1.355531e+01 
4.799530e+00 1.336899e+01 
4.834910e+00 1.318475e+01 
4.869700e+00 1.300706e+01 
4.904370e+00 1.283334e+01 
4.939450e+00 1.266091e+01 
4.973940e+00 1.249457e+01 
5.008430e+00 1.233132e+01 
5.043810e+00 1.216692e+01 
5.078840e+00 1.200716e+01 
5.113500e+00 1.185198e+01 
5.148890e+00 1.169654e+01 
5.184210e+00 1.154427e+01 
5.219060e+00 1.139677e+01 
5.253660e+00 1.125297e+01 
5.288570e+00 1.111046e+01 
5.323420e+00 1.097077e+01 
5.358440e+00 1.083295e+01 
5.393590e+00 1.069704e+01 
5.428310e+00 1.056524e+01 
5.462800e+00 1.043660e+01 
5.497640e+00 1.030888e+01 
5.532670e+00 1.018274e+01 
5.567280e+00 1.006026e+01 
5.602000e+00 9.939443e+00 
5.637270e+00 9.818949e+00 
5.672410e+00 9.700958e+00 
5.707020e+00 9.586672e+00 
5.742040e+00 9.473060e+00 
5.777430e+00 9.360171e+00 
5.812210e+00 9.251046e+00 
5.846820e+00 9.144342e+00 
5.881610e+00 9.038838e+00 
5.916510e+00 8.934694e+00 
5.951600e+00 8.831803e+00 
5.986560e+00 8.730990e+00 
6.021830e+00 8.630897e+00 
6.056490e+00 8.534206e+00 
6.091160e+00 8.439093e+00 
6.125830e+00 8.345445e+00 
6.161090e+00 8.251742e+00 
6.195760e+00 8.161165e+00 
6.230420e+00 8.071987e+00 
6.265690e+00 7.982627e+00 
6.300950e+00 7.894851e+00 
6.335620e+00 7.809843e+00 
6.370880e+00 7.724682e+00 
6.405550e+00 7.642356e+00 
6.440220e+00 7.561305e+00 
6.475480e+00 7.480089e+00 
6.510150e+00 7.401455e+00 
6.544810e+00 7.324094e+00 
6.580080e+00 7.246514e+00 
6.614750e+00 7.171356e+00 
6.649410e+00 7.097530e+00 
6.684080e+00 7.024775e+00 
6.719340e+00 6.951835e+00 
6.754010e+00 6.881178e+00 
6.788680e+00 6.811620e+00 
6.823940e+00 6.741870e+00 
6.859800e+00 6.671939e+00 
6.894470e+00 6.605435e+00 
6.929140e+00 6.539899e+00 
6.963800e+00 6.475275e+00 
6.999070e+00 6.410423e+00 
7.033730e+00 6.347702e+00 
7.068400e+00 6.285806e+00 
7.103660e+00 6.223705e+00 
7.138330e+00 6.163539e+00 
7.173600e+00 6.103304e+00 
7.208260e+00 6.044898e+00 
7.243530e+00 5.986251e+00 
7.277600e+00 5.930445e+00 
7.312860e+00 5.873536e+00 
7.348120e+00 5.817376e+00 
7.382790e+00 5.762873e+00 
7.417460e+00 5.709178e+00 
7.452720e+00 5.655328e+00 
7.487390e+00 5.603058e+00 
7.522650e+00 5.550577e+00 
7.557320e+00 5.499744e+00 
7.591990e+00 5.449590e+00 
7.627250e+00 5.399225e+00 
7.662510e+00 5.349497e+00 
7.697180e+00 5.301339e+00 
7.731850e+00 5.253823e+00 
7.766510e+00 5.206904e+00 
7.801180e+00 5.160544e+00 
7.836440e+00 5.114095e+00 
7.871110e+00 5.069056e+00 
7.906380e+00 5.023795e+00 
7.941040e+00 4.979855e+00 
7.976310e+00 4.935736e+00 
8.011570e+00 4.892229e+00 
8.046240e+00 4.849962e+00 
8.080900e+00 4.808206e+00 
8.115570e+00 4.766960e+00 
8.150830e+00 4.725628e+00 
8.185500e+00 4.685465e+00 
8.220770e+00 4.645086e+00 
8.255430e+00 4.605868e+00 
8.290100e+00 4.567212e+00 
8.324770e+00 4.529013e+00 
8.359430e+00 4.491261e+00 
8.394700e+00 4.453286e+00 
8.429960e+00 4.415836e+00 
8.464630e+00 4.379510e+00 
8.499890e+00 4.342984e+00 
8.534560e+00 4.307476e+00 
8.569200e+00 4.272393e+00 
