# Parameters:
# omega_b = 0.021831, omega_m = 0.151969, n_s = 1.023228, h = 55.944882, w = -1.000000, sigma_8 = 0.836142
# z = 1.000000
#
# k[1/Mpc] # P(k):
8.694000e-04 4.139709e+03 
2.077466e-03 9.372008e+03 
3.285532e-03 1.375702e+04 
4.493598e-03 1.733903e+04 
5.701664e-03 2.018287e+04 
6.909730e-03 2.236202e+04 
8.117797e-03 2.398962e+04 
9.325863e-03 2.512353e+04 
1.053393e-02 2.583230e+04 
1.174199e-02 2.618598e+04 
1.295006e-02 2.622624e+04 
1.415813e-02 2.601381e+04 
1.536619e-02 2.560454e+04 
1.657426e-02 2.504426e+04 
1.778233e-02 2.441650e+04 
1.899039e-02 2.380492e+04 
2.019846e-02 2.314097e+04 
2.140652e-02 2.239271e+04 
2.261459e-02 2.160088e+04 
2.382266e-02 2.080820e+04 
2.503072e-02 2.003602e+04 
2.623879e-02 1.929325e+04 
2.744685e-02 1.858325e+04 
2.865492e-02 1.791496e+04 
2.986299e-02 1.729092e+04 
3.100100e-02 1.674392e+04 
3.220400e-02 1.620993e+04 
3.288100e-02 1.592927e+04 
3.424300e-02 1.540716e+04 
3.555100e-02 1.495408e+04 
3.686000e-02 1.454521e+04 
3.795000e-02 1.423435e+04 
3.929100e-02 1.388653e+04 
4.039800e-02 1.362275e+04 
4.164000e-02 1.334642e+04 
4.294400e-02 1.307387e+04 
4.415000e-02 1.283353e+04 
4.542900e-02 1.258386e+04 
4.660900e-02 1.235760e+04 
4.782300e-02 1.211959e+04 
4.892900e-02 1.190111e+04 
5.031200e-02 1.162053e+04 
5.155900e-02 1.135777e+04 
5.238100e-02 1.118005e+04 
5.378200e-02 1.086973e+04 
5.513400e-02 1.055991e+04 
5.627600e-02 1.029180e+04 
5.735300e-02 1.003596e+04 
5.870100e-02 9.713602e+03 
5.988700e-02 9.431284e+03 
6.113500e-02 9.137152e+03 
6.225900e-02 8.876497e+03 
6.340100e-02 8.618214e+03 
6.480200e-02 8.313306e+03 
6.601100e-02 8.061684e+03 
6.725500e-02 7.816167e+03 
6.829100e-02 7.623662e+03 
6.958600e-02 7.397422e+03 
7.071100e-02 7.215447e+03 
7.192300e-02 7.034056e+03 
7.307400e-02 6.875567e+03 
7.412300e-02 6.742327e+03 
7.550400e-02 6.583641e+03 
7.663100e-02 6.465485e+03 
7.791200e-02 6.345491e+03 
7.912700e-02 6.243461e+03 
8.027600e-02 6.155040e+03 
8.138400e-02 6.075791e+03 
8.272200e-02 5.986791e+03 
8.406100e-02 5.903039e+03 
8.534100e-02 5.826037e+03 
8.653800e-02 5.754493e+03 
8.759800e-02 5.690959e+03 
8.900300e-02 5.605246e+03 
9.009000e-02 5.536481e+03 
9.113300e-02 5.467293e+03 
9.239600e-02 5.381338e+03 
9.358000e-02 5.297209e+03 
9.496100e-02 5.193552e+03 
9.608400e-02 5.107131e+03 
9.727500e-02 5.014383e+03 
9.852600e-02 4.911979e+03 
9.973800e-02 4.812989e+03 
1.009000e-01 4.718565e+03 
1.020900e-01 4.620466e+03 
1.034000e-01 4.514718e+03 
1.046000e-01 4.419773e+03 
1.057200e-01 4.333077e+03 
1.069100e-01 4.243661e+03 
1.082500e-01 4.146840e+03 
1.093900e-01 4.068218e+03 
1.105400e-01 3.991809e+03 
1.116900e-01 3.920218e+03 
1.129600e-01 3.844485e+03 
1.142000e-01 3.775939e+03 
1.153300e-01 3.716845e+03 
1.166400e-01 3.652825e+03 
1.177800e-01 3.601416e+03 
1.190000e-01 3.549086e+03 
1.201200e-01 3.505453e+03 
1.213400e-01 3.459631e+03 
1.227100e-01 3.413522e+03 
1.238900e-01 3.375420e+03 
1.250700e-01 3.340072e+03 
1.263200e-01 3.303888e+03 
1.275500e-01 3.269975e+03 
1.287500e-01 3.237611e+03 
1.299900e-01 3.204867e+03 
1.311300e-01 3.174773e+03 
1.323500e-01 3.142272e+03 
1.335900e-01 3.108801e+03 
1.347100e-01 3.077651e+03 
1.359800e-01 3.041832e+03 
1.372100e-01 3.005396e+03 
1.384300e-01 2.968953e+03 
1.395700e-01 2.933008e+03 
1.407700e-01 2.895639e+03 
1.420300e-01 2.854014e+03 
1.432800e-01 2.813639e+03 
1.444500e-01 2.774202e+03 
1.456300e-01 2.735261e+03 
1.468900e-01 2.693782e+03 
1.480500e-01 2.656176e+03 
1.491700e-01 2.620647e+03 
1.503800e-01 2.583109e+03 
1.516400e-01 2.545078e+03 
1.528200e-01 2.511182e+03 
1.540200e-01 2.477402e+03 
1.551900e-01 2.446608e+03 
1.564300e-01 2.414975e+03 
1.576600e-01 2.385135e+03 
1.588700e-01 2.357444e+03 
1.600900e-01 2.330149e+03 
1.612700e-01 2.305962e+03 
1.625400e-01 2.280415e+03 
1.637600e-01 2.257111e+03 
1.649500e-01 2.235243e+03 
1.662200e-01 2.212426e+03 
1.674000e-01 2.192150e+03 
1.685000e-01 2.173561e+03 
1.697500e-01 2.152798e+03 
1.710300e-01 2.131923e+03 
1.722200e-01 2.112857e+03 
1.734400e-01 2.093154e+03 
1.746400e-01 2.074083e+03 
1.758700e-01 2.054625e+03 
1.770900e-01 2.035162e+03 
1.782700e-01 2.016648e+03 
1.794600e-01 1.997822e+03 
1.807000e-01 1.978220e+03 
1.819100e-01 1.959412e+03 
1.830100e-01 1.942042e+03 
1.842200e-01 1.923141e+03 
1.855000e-01 1.903460e+03 
1.867000e-01 1.884867e+03 
1.879200e-01 1.866268e+03 
1.890900e-01 1.848682e+03 
1.902800e-01 1.830902e+03 
1.915200e-01 1.812671e+03 
1.926900e-01 1.795748e+03 
1.939000e-01 1.778544e+03 
1.951700e-01 1.760775e+03 
1.963100e-01 1.745113e+03 
1.975100e-01 1.728983e+03 
1.987800e-01 1.712178e+03 
2.000100e-01 1.696247e+03 
2.012500e-01 1.680644e+03 
2.023400e-01 1.667124e+03 
2.036100e-01 1.651661e+03 
2.048900e-01 1.636554e+03 
2.060400e-01 1.623180e+03 
2.072200e-01 1.609669e+03 
2.084200e-01 1.596369e+03 
2.096900e-01 1.582499e+03 
2.109200e-01 1.569262e+03 
2.121100e-01 1.556782e+03 
2.132700e-01 1.544789e+03 
2.145200e-01 1.532046e+03 
2.157200e-01 1.520036e+03 
2.168800e-01 1.508606e+03 
2.180700e-01 1.497037e+03 
2.193400e-01 1.484841e+03 
2.206000e-01 1.472875e+03 
2.217500e-01 1.462100e+03 
2.229500e-01 1.451003e+03 
2.241400e-01 1.440030e+03 
2.253500e-01 1.429016e+03 
2.264900e-01 1.418773e+03 
2.277100e-01 1.407856e+03 
2.289900e-01 1.396451e+03 
2.301500e-01 1.386251e+03 
2.313600e-01 1.375745e+03 
2.325600e-01 1.365249e+03 
2.337700e-01 1.354801e+03 
2.350000e-01 1.344317e+03 
2.362000e-01 1.334135e+03 
2.374100e-01 1.323897e+03 
2.386500e-01 1.313540e+03 
2.399100e-01 1.303153e+03 
2.410400e-01 1.293822e+03 
2.422500e-01 1.283935e+03 
2.435000e-01 1.273851e+03 
2.447300e-01 1.264042e+03 
2.458700e-01 1.255009e+03 
2.470600e-01 1.245692e+03 
2.483300e-01 1.235873e+03 
2.495600e-01 1.226480e+03 
2.507600e-01 1.217426e+03 
2.519600e-01 1.208480e+03 
2.532200e-01 1.199201e+03 
2.543700e-01 1.190883e+03 
2.555500e-01 1.182478e+03 
2.568000e-01 1.173681e+03 
2.580100e-01 1.165268e+03 
2.592400e-01 1.156906e+03 
2.604100e-01 1.149083e+03 
2.616100e-01 1.141150e+03 
2.628400e-01 1.133113e+03 
2.640600e-01 1.125340e+03 
2.652200e-01 1.118075e+03 
2.664300e-01 1.110580e+03 
2.676500e-01 1.103108e+03 
2.688400e-01 1.095996e+03 
2.700700e-01 1.088786e+03 
2.712400e-01 1.082002e+03 
2.724800e-01 1.074891e+03 
2.736700e-01 1.068206e+03 
2.748800e-01 1.061547e+03 
2.761000e-01 1.054905e+03 
2.773200e-01 1.048336e+03 
2.785400e-01 1.041871e+03 
2.797000e-01 1.035855e+03 
2.808900e-01 1.029748e+03 
2.821400e-01 1.023401e+03 
2.833900e-01 1.017125e+03 
2.845500e-01 1.011422e+03 
2.857800e-01 1.005437e+03 
2.870300e-01 9.994195e+02 
2.882100e-01 9.937979e+02 
2.893900e-01 9.882606e+02 
2.906300e-01 9.825163e+02 
2.918900e-01 9.767409e+02 
2.930500e-01 9.714779e+02 
2.942500e-01 9.660914e+02 
2.954200e-01 9.609050e+02 
2.966500e-01 9.555069e+02 
2.978900e-01 9.501204e+02 
2.990400e-01 9.451740e+02 
3.002700e-01 9.399394e+02 
3.015100e-01 9.347175e+02 
3.026800e-01 9.298386e+02 
3.038500e-01 9.250059e+02 
3.050300e-01 9.201781e+02 
3.062600e-01 9.151938e+02 
3.075000e-01 9.102186e+02 
3.087000e-01 9.054507e+02 
3.099100e-01 9.006891e+02 
3.111200e-01 8.959729e+02 
3.123100e-01 8.913786e+02 
3.135300e-01 8.867129e+02 
3.147300e-01 8.821670e+02 
3.159900e-01 8.774396e+02 
3.171800e-01 8.730162e+02 
3.183700e-01 8.686328e+02 
3.196300e-01 8.640354e+02 
3.208400e-01 8.596621e+02 
3.220300e-01 8.554005e+02 
3.232000e-01 8.512475e+02 
3.244300e-01 8.469210e+02 
3.256700e-01 8.426000e+02 
3.269200e-01 8.382849e+02 
3.280800e-01 8.343166e+02 
3.292500e-01 8.303535e+02 
3.304800e-01 8.262257e+02 
3.317100e-01 8.221355e+02 
3.328900e-01 8.182465e+02 
3.340700e-01 8.143913e+02 
3.353600e-01 8.102197e+02 
3.365300e-01 8.064719e+02 
3.377100e-01 8.027244e+02 
3.389200e-01 7.989149e+02 
3.401600e-01 7.950455e+02 
3.413700e-01 7.913127e+02 
3.425300e-01 7.877714e+02 
3.437700e-01 7.840182e+02 
3.449800e-01 7.803878e+02 
3.461800e-01 7.768181e+02 
3.473600e-01 7.733414e+02 
3.485800e-01 7.697869e+02 
3.498100e-01 7.662341e+02 
3.510200e-01 7.627689e+02 
3.522000e-01 7.594177e+02 
3.533900e-01 7.560660e+02 
3.546400e-01 7.525913e+02 
3.558400e-01 7.492847e+02 
3.570600e-01 7.459510e+02 
3.582700e-01 7.426721e+02 
3.595000e-01 7.393667e+02 
3.607100e-01 7.361515e+02 
3.618900e-01 7.330488e+02 
3.631200e-01 7.298409e+02 
3.643200e-01 7.267368e+02 
3.655500e-01 7.235811e+02 
3.667300e-01 7.205780e+02 
3.679500e-01 7.175179e+02 
3.691900e-01 7.144331e+02 
3.703600e-01 7.115456e+02 
3.715700e-01 7.085828e+02 
3.727700e-01 7.056677e+02 
3.739900e-01 7.027348e+02 
3.752000e-01 6.998620e+02 
3.763900e-01 6.970588e+02 
3.775800e-01 6.942772e+02 
3.788200e-01 6.914016e+02 
3.800300e-01 6.886176e+02 
3.812100e-01 6.859317e+02 
3.824200e-01 6.832043e+02 
3.836100e-01 6.805424e+02 
3.848600e-01 6.777680e+02 
3.860400e-01 6.751692e+02 
3.872400e-01 6.725462e+02 
3.884600e-01 6.699111e+02 
3.896500e-01 6.673645e+02 
3.908700e-01 6.647733e+02 
3.920600e-01 6.622649e+02 
3.933100e-01 6.596500e+02 
3.945300e-01 6.571174e+02 
3.957200e-01 6.546782e+02 
3.969300e-01 6.522198e+02 
3.981700e-01 6.497195e+02 
3.993500e-01 6.473578e+02 
4.094840e-01 6.277547e+02 
4.272360e-01 5.963627e+02 
4.454600e-01 5.672921e+02 
4.630560e-01 5.417776e+02 
4.804610e-01 5.186528e+02 
4.980690e-01 4.971238e+02 
5.159230e-01 4.769951e+02 
5.317440e-01 4.604503e+02 
5.489640e-01 4.437078e+02 
5.671990e-01 4.273130e+02 
5.838690e-01 4.134084e+02 
6.018840e-01 3.994403e+02 
6.202330e-01 3.862590e+02 
6.379250e-01 3.744487e+02 
6.545410e-01 3.641194e+02 
6.714560e-01 3.542434e+02 
6.892080e-01 3.445576e+02 
7.066010e-01 3.356539e+02 
7.240540e-01 3.272596e+02 
7.420450e-01 3.191098e+02 
7.593780e-01 3.116935e+02 
7.764720e-01 3.047574e+02 
7.942840e-01 2.979042e+02 
8.116170e-01 2.915544e+02 
8.288310e-01 2.855351e+02 
8.462240e-01 2.797128e+02 
8.631980e-01 2.742591e+02 
8.810700e-01 2.687509e+02 
8.989410e-01 2.634597e+02 
9.166330e-01 2.584125e+02 
9.345640e-01 2.534818e+02 
9.515980e-01 2.489459e+02 
9.688720e-01 2.444891e+02 
9.865640e-01 2.400561e+02 
1.031870e+00 2.293064e+02 
1.063490e+00 2.222367e+02 
1.097920e+00 2.149126e+02 
1.134370e+00 2.075342e+02 
1.167730e+00 2.010978e+02 
1.203830e+00 1.944202e+02 
1.240470e+00 1.879673e+02 
1.275790e+00 1.819913e+02 
1.309140e+00 1.766108e+02 
1.342970e+00 1.713301e+02 
1.378420e+00 1.660390e+02 
1.413200e+00 1.610429e+02 
1.448110e+00 1.562231e+02 
1.484090e+00 1.514609e+02 
1.518820e+00 1.470410e+02 
1.552880e+00 1.428595e+02 
1.588630e+00 1.386409e+02 
1.623230e+00 1.347143e+02 
1.657720e+00 1.309465e+02 
1.692450e+00 1.272967e+02 
1.726400e+00 1.238455e+02 
1.762200e+00 1.203370e+02 
1.797880e+00 1.169762e+02 
1.833270e+00 1.137606e+02 
1.869070e+00 1.106254e+02 
1.903200e+00 1.077469e+02 
1.937740e+00 1.049336e+02 
1.973190e+00 1.021428e+02 
2.007440e+00 9.954246e+01 
2.042160e+00 9.699740e+01 
2.077900e+00 9.446326e+01 
2.112390e+00 9.210613e+01 
2.146220e+00 8.986258e+01 
2.181600e+00 8.759538e+01 
2.216930e+00 8.540847e+01 
2.250760e+00 8.338216e+01 
2.286500e+00 8.131042e+01 
2.321770e+00 7.933352e+01 
2.355950e+00 7.747910e+01 
2.391280e+00 7.562011e+01 
2.426240e+00 7.384027e+01 
2.460670e+00 7.214331e+01 
2.495640e+00 7.047381e+01 
2.531080e+00 6.882951e+01 
2.566220e+00 6.725084e+01 
2.600830e+00 6.574471e+01 
2.635080e+00 6.429999e+01 
2.670340e+00 6.285539e+01 
2.705970e+00 6.143975e+01 
2.740040e+00 6.012603e+01 
2.774520e+00 5.883196e+01 
2.809730e+00 5.755039e+01 
2.844390e+00 5.632686e+01 
2.879960e+00 5.510702e+01 
2.914860e+00 5.394370e+01 
2.949410e+00 5.282533e+01 
2.984440e+00 5.172299e+01 
3.019760e+00 5.064259e+01 
3.054730e+00 4.960341e+01 
3.089030e+00 4.861107e+01 
3.124060e+00 4.762547e+01 
3.159560e+00 4.665351e+01 
3.194710e+00 4.571791e+01 
3.229010e+00 4.483035e+01 
3.263320e+00 4.396549e+01 
3.297930e+00 4.311606e+01 
3.332830e+00 4.228083e+01 
3.368040e+00 4.146084e+01 
3.403300e+00 4.066184e+01 
3.438450e+00 3.988625e+01 
3.473060e+00 3.914285e+01 
3.508440e+00 3.840152e+01 
3.543110e+00 3.769414e+01 
3.577470e+00 3.701057e+01 
3.613040e+00 3.632089e+01 
3.648120e+00 3.565724e+01 
3.682910e+00 3.501578e+01 
3.718050e+00 3.438413e+01 
3.753320e+00 3.376617e+01 
3.787980e+00 3.317401e+01 
3.822290e+00 3.260199e+01 
3.857020e+00 3.203680e+01 
3.891920e+00 3.148245e+01 
3.926650e+00 3.094383e+01 
3.961970e+00 3.040933e+01 
3.997360e+00 2.988698e+01 
4.031670e+00 2.939242e+01 
4.066330e+00 2.890430e+01 
4.101420e+00 2.842154e+01 
4.136200e+00 2.795434e+01 
4.170810e+00 2.749995e+01 
4.206250e+00 2.704527e+01 
4.241580e+00 2.660232e+01 
4.276300e+00 2.617717e+01 
4.310970e+00 2.576219e+01 
4.346120e+00 2.535100e+01 
4.380600e+00 2.495690e+01 
4.414730e+00 2.457511e+01 
4.450350e+00 2.418585e+01 
4.485320e+00 2.381192e+01 
4.519810e+00 2.345131e+01 
4.555430e+00 2.308693e+01 
4.590870e+00 2.273237e+01 
4.625480e+00 2.239392e+01 
4.659910e+00 2.206406e+01 
4.695230e+00 2.173318e+01 
4.729960e+00 2.141453e+01 
4.764450e+00 2.110470e+01 
4.799530e+00 2.079634e+01 
4.834910e+00 2.049158e+01 
4.869700e+00 2.019858e+01 
4.904370e+00 1.991240e+01 
4.939450e+00 1.962872e+01 
4.973940e+00 1.935587e+01 
5.008430e+00 1.908818e+01 
5.043810e+00 1.881929e+01 
5.078840e+00 1.855841e+01 
5.113500e+00 1.830513e+01 
5.148890e+00 1.805229e+01 
5.184210e+00 1.780473e+01 
5.219060e+00 1.756521e+01 
5.253660e+00 1.733235e+01 
5.288570e+00 1.710166e+01 
5.323420e+00 1.687594e+01 
5.358440e+00 1.665365e+01 
5.393590e+00 1.643454e+01 
5.428310e+00 1.622254e+01 
5.462800e+00 1.601594e+01 
5.497640e+00 1.581087e+01 
5.532670e+00 1.560885e+01 
5.567280e+00 1.541289e+01 
5.602000e+00 1.521966e+01 
5.637270e+00 1.502742e+01 
5.672410e+00 1.483933e+01 
5.707020e+00 1.465720e+01 
5.742040e+00 1.447662e+01 
5.777430e+00 1.429734e+01 
5.812210e+00 1.412408e+01 
5.846820e+00 1.395505e+01 
5.881610e+00 1.378805e+01 
5.916510e+00 1.362324e+01 
5.951600e+00 1.346075e+01 
5.986560e+00 1.330171e+01 
6.021830e+00 1.314385e+01 
6.056490e+00 1.299158e+01 
6.091160e+00 1.284200e+01 
6.125830e+00 1.269476e+01 
6.161090e+00 1.254757e+01 
6.195760e+00 1.240553e+01 
6.230420e+00 1.226572e+01 
6.265690e+00 1.212566e+01 
6.300950e+00 1.198842e+01 
6.335620e+00 1.185554e+01 
6.370880e+00 1.172244e+01 
6.405550e+00 1.159398e+01 
6.440220e+00 1.146759e+01 
6.475480e+00 1.134098e+01 
6.510150e+00 1.121849e+01 
6.544810e+00 1.109817e+01 
6.580080e+00 1.097754e+01 
6.614750e+00 1.086070e+01 
6.649410e+00 1.074610e+01 
6.684080e+00 1.063322e+01 
6.719340e+00 1.052007e+01 
6.754010e+00 1.041053e+01 
6.788680e+00 1.030284e+01 
6.823940e+00 1.019486e+01 
6.859800e+00 1.008662e+01 
6.894470e+00 9.983815e+00 
6.929140e+00 9.882557e+00 
6.963800e+00 9.782722e+00 
6.999070e+00 9.682559e+00 
7.033730e+00 9.585844e+00 
7.068400e+00 9.490413e+00 
7.103660e+00 9.394680e+00 
7.138330e+00 9.301973e+00 
7.173600e+00 9.209240e+00 
7.208260e+00 9.119334e+00 
7.243530e+00 9.029068e+00 
7.277600e+00 8.943237e+00 
7.312860e+00 8.855770e+00 
7.348120e+00 8.769463e+00 
7.382790e+00 8.685714e+00 
7.417460e+00 8.603266e+00 
7.452720e+00 8.520616e+00 
7.487390e+00 8.440400e+00 
7.522650e+00 8.359869e+00 
7.557320e+00 8.281918e+00 
7.591990e+00 8.205035e+00 
7.627250e+00 8.127835e+00 
7.662510e+00 8.051621e+00 
7.697180e+00 7.977865e+00 
7.731850e+00 7.905118e+00 
7.766510e+00 7.833292e+00 
7.801180e+00 7.762329e+00 
7.836440e+00 7.691258e+00 
7.871110e+00 7.622364e+00 
7.906380e+00 7.553137e+00 
7.941040e+00 7.485937e+00 
7.976310e+00 7.418481e+00 
8.011570e+00 7.351980e+00 
8.046240e+00 7.287379e+00 
8.080900e+00 7.223565e+00 
8.115570e+00 7.160544e+00 
8.150830e+00 7.097416e+00 
8.185500e+00 7.036080e+00 
8.220770e+00 6.974418e+00 
8.255430e+00 6.914536e+00 
8.290100e+00 6.855527e+00 
8.324770e+00 6.797223e+00 
8.359430e+00 6.739607e+00 
8.394700e+00 6.681655e+00 
8.429960e+00 6.624511e+00 
8.464630e+00 6.569086e+00 
8.499890e+00 6.513361e+00 
8.534560e+00 6.459192e+00 
8.569200e+00 6.405679e+00 
