# Parameters:
# omega_b = 0.022524, omega_m = 0.144528, n_s = 0.890945, h = 72.244094, w = -1.000000, sigma_8 = 0.765827
# z = 1.000000
#
# k[1/Mpc] # P(k):
8.694000e-04 6.599218e+03 
2.077466e-03 1.324985e+04 
3.285532e-03 1.819014e+04 
4.493598e-03 2.186281e+04 
5.701664e-03 2.450365e+04 
6.909730e-03 2.630902e+04 
8.117797e-03 2.747911e+04 
9.325863e-03 2.811596e+04 
1.053393e-02 2.831654e+04 
1.174199e-02 2.816682e+04 
1.295006e-02 2.772225e+04 
1.415813e-02 2.705487e+04 
1.536619e-02 2.622338e+04 
1.657426e-02 2.526395e+04 
1.778233e-02 2.418377e+04 
1.899039e-02 2.301880e+04 
2.019846e-02 2.185016e+04 
2.140652e-02 2.073715e+04 
2.261459e-02 1.967740e+04 
2.382266e-02 1.867532e+04 
2.503072e-02 1.773989e+04 
2.623879e-02 1.687458e+04 
2.744685e-02 1.608071e+04 
2.865492e-02 1.535922e+04 
2.986299e-02 1.470727e+04 
3.100100e-02 1.415470e+04 
3.220400e-02 1.363116e+04 
3.288100e-02 1.336321e+04 
3.424300e-02 1.287567e+04 
3.555100e-02 1.246324e+04 
3.686000e-02 1.209891e+04 
3.795000e-02 1.182563e+04 
3.929100e-02 1.152215e+04 
4.039800e-02 1.129120e+04 
4.164000e-02 1.104688e+04 
4.294400e-02 1.079910e+04 
4.415000e-02 1.057497e+04 
4.542900e-02 1.033270e+04 
4.660900e-02 1.010709e+04 
4.782300e-02 9.860744e+03 
4.892900e-02 9.630319e+03 
5.031200e-02 9.329410e+03 
5.155900e-02 9.045099e+03 
5.238100e-02 8.852822e+03 
5.378200e-02 8.518710e+03 
5.513400e-02 8.189968e+03 
5.627600e-02 7.910974e+03 
5.735300e-02 7.650234e+03 
5.870100e-02 7.330372e+03 
5.988700e-02 7.058586e+03 
6.113500e-02 6.784281e+03 
6.225900e-02 6.549598e+03 
6.340100e-02 6.324945e+03 
6.480200e-02 6.068598e+03 
6.601100e-02 5.866316e+03 
6.725500e-02 5.676252e+03 
6.829100e-02 5.533159e+03 
6.958600e-02 5.369716e+03 
7.071100e-02 5.242782e+03 
7.192300e-02 5.119628e+03 
7.307400e-02 5.014474e+03 
7.412300e-02 4.927467e+03 
7.550400e-02 4.825024e+03 
7.663100e-02 4.748801e+03 
7.791200e-02 4.670265e+03 
7.912700e-02 4.601176e+03 
8.027600e-02 4.538847e+03 
8.138400e-02 4.480509e+03 
8.272200e-02 4.411170e+03 
8.406100e-02 4.341719e+03 
8.534100e-02 4.273351e+03 
8.653800e-02 4.206795e+03 
8.759800e-02 4.146277e+03 
8.900300e-02 4.063040e+03 
9.009000e-02 3.995683e+03 
9.113300e-02 3.928215e+03 
9.239600e-02 3.844983e+03 
9.358000e-02 3.764623e+03 
9.496100e-02 3.667866e+03 
9.608400e-02 3.588743e+03 
9.727500e-02 3.505115e+03 
9.852600e-02 3.415947e+03 
9.973800e-02 3.331371e+03 
1.009000e-01 3.252029e+03 
1.020900e-01 3.172787e+03 
1.034000e-01 3.088977e+03 
1.046000e-01 3.015360e+03 
1.057200e-01 2.950834e+03 
1.069100e-01 2.885294e+03 
1.082500e-01 2.817089e+03 
1.093900e-01 2.763350e+03 
1.105400e-01 2.712078e+03 
1.116900e-01 2.666050e+03 
1.129600e-01 2.617966e+03 
1.142000e-01 2.575853e+03 
1.153300e-01 2.539838e+03 
1.166400e-01 2.501297e+03 
1.177800e-01 2.470224e+03 
1.190000e-01 2.438529e+03 
1.201200e-01 2.411121e+03 
1.213400e-01 2.382149e+03 
1.227100e-01 2.350655e+03 
1.238900e-01 2.324030e+03 
1.250700e-01 2.297326e+03 
1.263200e-01 2.269184e+03 
1.275500e-01 2.240991e+03 
1.287500e-01 2.213303e+03 
1.299900e-01 2.184055e+03 
1.311300e-01 2.156825e+03 
1.323500e-01 2.126910e+03 
1.335900e-01 2.096233e+03 
1.347100e-01 2.067854e+03 
1.359800e-01 2.035652e+03 
1.372100e-01 2.003708e+03 
1.384300e-01 1.972280e+03 
1.395700e-01 1.942432e+03 
1.407700e-01 1.911611e+03 
1.420300e-01 1.878992e+03 
1.432800e-01 1.847399e+03 
1.444500e-01 1.818151e+03 
1.456300e-01 1.789300e+03 
1.468900e-01 1.759584e+03 
1.480500e-01 1.732950e+03 
1.491700e-01 1.708200e+03 
1.503800e-01 1.682570e+03 
1.516400e-01 1.656729e+03 
1.528200e-01 1.634212e+03 
1.540200e-01 1.611775e+03 
1.551900e-01 1.591579e+03 
1.564300e-01 1.570900e+03 
1.576600e-01 1.551411e+03 
1.588700e-01 1.533352e+03 
1.600900e-01 1.515539e+03 
1.612700e-01 1.499551e+03 
1.625400e-01 1.482666e+03 
1.637600e-01 1.467007e+03 
1.649500e-01 1.452160e+03 
1.662200e-01 1.436586e+03 
1.674000e-01 1.422283e+03 
1.685000e-01 1.409172e+03 
1.697500e-01 1.394261e+03 
1.710300e-01 1.379004e+03 
1.722200e-01 1.365072e+03 
1.734400e-01 1.350260e+03 
1.746400e-01 1.335912e+03 
1.758700e-01 1.321206e+03 
1.770900e-01 1.306359e+03 
1.782700e-01 1.292246e+03 
1.794600e-01 1.277882e+03 
1.807000e-01 1.262926e+03 
1.819100e-01 1.248585e+03 
1.830100e-01 1.235473e+03 
1.842200e-01 1.221236e+03 
1.855000e-01 1.206435e+03 
1.867000e-01 1.192710e+03 
1.879200e-01 1.178992e+03 
1.890900e-01 1.166078e+03 
1.902800e-01 1.153282e+03 
1.915200e-01 1.140168e+03 
1.926900e-01 1.128069e+03 
1.939000e-01 1.115988e+03 
1.951700e-01 1.103516e+03 
1.963100e-01 1.092586e+03 
1.975100e-01 1.081491e+03 
1.987800e-01 1.069935e+03 
2.000100e-01 1.059021e+03 
2.012500e-01 1.048418e+03 
2.023400e-01 1.039234e+03 
2.036100e-01 1.028739e+03 
2.048900e-01 1.018513e+03 
2.060400e-01 1.009463e+03 
2.072200e-01 1.000319e+03 
2.084200e-01 9.912853e+02 
2.096900e-01 9.818664e+02 
2.109200e-01 9.728806e+02 
2.121100e-01 9.643480e+02 
2.132700e-01 9.561479e+02 
2.145200e-01 9.474366e+02 
2.157200e-01 9.391917e+02 
2.168800e-01 9.313300e+02 
2.180700e-01 9.233746e+02 
2.193400e-01 9.149925e+02 
2.206000e-01 9.067747e+02 
2.217500e-01 8.993771e+02 
2.229500e-01 8.917607e+02 
2.241400e-01 8.842899e+02 
2.253500e-01 8.767952e+02 
2.264900e-01 8.698267e+02 
2.277100e-01 8.624696e+02 
2.289900e-01 8.548603e+02 
2.301500e-01 8.480568e+02 
2.313600e-01 8.410521e+02 
2.325600e-01 8.342330e+02 
2.337700e-01 8.274466e+02 
2.350000e-01 8.206384e+02 
2.362000e-01 8.141141e+02 
2.374100e-01 8.076573e+02 
2.386500e-01 8.011258e+02 
2.399100e-01 7.945760e+02 
2.410400e-01 7.888312e+02 
2.422500e-01 7.827614e+02 
2.435000e-01 7.765704e+02 
2.447300e-01 7.705701e+02 
2.458700e-01 7.651318e+02 
2.470600e-01 7.595222e+02 
2.483300e-01 7.536097e+02 
2.495600e-01 7.479729e+02 
2.507600e-01 7.425644e+02 
2.519600e-01 7.372203e+02 
2.532200e-01 7.316772e+02 
2.543700e-01 7.266928e+02 
2.555500e-01 7.216466e+02 
2.568000e-01 7.163643e+02 
2.580100e-01 7.113119e+02 
2.592400e-01 7.062375e+02 
2.604100e-01 7.014667e+02 
2.616100e-01 6.966289e+02 
2.628400e-01 6.917274e+02 
2.640600e-01 6.869078e+02 
2.652200e-01 6.823708e+02 
2.664300e-01 6.776910e+02 
2.676500e-01 6.730260e+02 
2.688400e-01 6.685127e+02 
2.700700e-01 6.638911e+02 
2.712400e-01 6.595437e+02 
2.724800e-01 6.549872e+02 
2.736700e-01 6.506502e+02 
2.748800e-01 6.462753e+02 
2.761000e-01 6.419130e+02 
2.773200e-01 6.375988e+02 
2.785400e-01 6.333248e+02 
2.797000e-01 6.292895e+02 
2.808900e-01 6.251933e+02 
2.821400e-01 6.209372e+02 
2.833900e-01 6.167274e+02 
2.845500e-01 6.128419e+02 
2.857800e-01 6.087651e+02 
2.870300e-01 6.046671e+02 
2.882100e-01 6.008396e+02 
2.893900e-01 5.970425e+02 
2.906300e-01 5.930894e+02 
2.918900e-01 5.891159e+02 
2.930500e-01 5.854958e+02 
2.942500e-01 5.817862e+02 
2.954200e-01 5.781982e+02 
2.966500e-01 5.744647e+02 
2.978900e-01 5.707401e+02 
2.990400e-01 5.673206e+02 
3.002700e-01 5.636951e+02 
3.015100e-01 5.600755e+02 
3.026800e-01 5.566945e+02 
3.038500e-01 5.533463e+02 
3.050300e-01 5.500023e+02 
3.062600e-01 5.465489e+02 
3.075000e-01 5.431028e+02 
3.087000e-01 5.398011e+02 
3.099100e-01 5.365045e+02 
3.111200e-01 5.332417e+02 
3.123100e-01 5.300666e+02 
3.135300e-01 5.268429e+02 
3.147300e-01 5.237029e+02 
3.159900e-01 5.204381e+02 
3.171800e-01 5.173890e+02 
3.183700e-01 5.143712e+02 
3.196300e-01 5.112068e+02 
3.208400e-01 5.081974e+02 
3.220300e-01 5.052656e+02 
3.232000e-01 5.024157e+02 
3.244300e-01 4.994501e+02 
3.256700e-01 4.964889e+02 
3.269200e-01 4.935325e+02 
3.280800e-01 4.908143e+02 
3.292500e-01 4.881066e+02 
3.304800e-01 4.852891e+02 
3.317100e-01 4.824978e+02 
3.328900e-01 4.798444e+02 
3.340700e-01 4.772146e+02 
3.353600e-01 4.743772e+02 
3.365300e-01 4.718315e+02 
3.377100e-01 4.692866e+02 
3.389200e-01 4.667000e+02 
3.401600e-01 4.640733e+02 
3.413700e-01 4.615447e+02 
3.425300e-01 4.591494e+02 
3.437700e-01 4.566115e+02 
3.449800e-01 4.541569e+02 
3.461800e-01 4.517440e+02 
3.473600e-01 4.493964e+02 
3.485800e-01 4.470019e+02 
3.498100e-01 4.446090e+02 
3.510200e-01 4.422755e+02 
3.522000e-01 4.400192e+02 
3.533900e-01 4.377629e+02 
3.546400e-01 4.354302e+02 
3.558400e-01 4.332111e+02 
3.570600e-01 4.309741e+02 
3.582700e-01 4.287742e+02 
3.595000e-01 4.265570e+02 
3.607100e-01 4.244034e+02 
3.618900e-01 4.223276e+02 
3.631200e-01 4.201818e+02 
3.643200e-01 4.181058e+02 
3.655500e-01 4.159955e+02 
3.667300e-01 4.139877e+02 
3.679500e-01 4.119458e+02 
3.691900e-01 4.098876e+02 
3.703600e-01 4.079614e+02 
3.715700e-01 4.059853e+02 
3.727700e-01 4.040413e+02 
3.739900e-01 4.020865e+02 
3.752000e-01 4.001738e+02 
3.763900e-01 3.983077e+02 
3.775800e-01 3.964562e+02 
3.788200e-01 3.945423e+02 
3.800300e-01 3.926896e+02 
3.812100e-01 3.909040e+02 
3.824200e-01 3.890919e+02 
3.836100e-01 3.873237e+02 
3.848600e-01 3.854809e+02 
3.860400e-01 3.837549e+02 
3.872400e-01 3.820131e+02 
3.884600e-01 3.802652e+02 
3.896500e-01 3.785768e+02 
3.908700e-01 3.768591e+02 
3.920600e-01 3.751964e+02 
3.933100e-01 3.734633e+02 
3.945300e-01 3.717850e+02 
3.957200e-01 3.701694e+02 
3.969300e-01 3.685416e+02 
3.981700e-01 3.668862e+02 
3.993500e-01 3.653228e+02 
4.094840e-01 3.523715e+02 
4.272360e-01 3.317072e+02 
4.454600e-01 3.126897e+02 
4.630560e-01 2.961144e+02 
4.804610e-01 2.812014e+02 
4.980690e-01 2.674168e+02 
5.159230e-01 2.546187e+02 
5.317440e-01 2.441609e+02 
5.489640e-01 2.336369e+02 
5.671990e-01 2.233789e+02 
5.838690e-01 2.147127e+02 
6.018840e-01 2.060468e+02 
6.202330e-01 1.979027e+02 
6.379250e-01 1.906206e+02 
6.545410e-01 1.842781e+02 
6.714560e-01 1.782393e+02 
6.892080e-01 1.723287e+02 
7.066010e-01 1.669269e+02 
7.240540e-01 1.618469e+02 
7.420450e-01 1.569502e+02 
7.593780e-01 1.525206e+02 
7.764720e-01 1.484006e+02 
7.942840e-01 1.443521e+02 
8.116170e-01 1.406341e+02 
8.288310e-01 1.371391e+02 
8.462240e-01 1.337854e+02 
8.631980e-01 1.306730e+02 
8.810700e-01 1.275532e+02 
8.989410e-01 1.245841e+02 
9.166330e-01 1.217781e+02 
9.345640e-01 1.190618e+02 
9.515980e-01 1.165903e+02 
9.688720e-01 1.141849e+02 
9.865640e-01 1.118182e+02 
1.031870e+00 1.061632e+02 
1.063490e+00 1.025212e+02 
1.097920e+00 9.880805e+01 
1.134370e+00 9.512689e+01 
1.167730e+00 9.196559e+01 
1.203830e+00 8.873484e+01 
1.240470e+00 8.564962e+01 
1.275790e+00 8.283423e+01 
1.309140e+00 8.031792e+01 
1.342970e+00 7.787916e+01 
1.378420e+00 7.545381e+01 
1.413200e+00 7.318359e+01 
1.448110e+00 7.100903e+01 
1.484090e+00 6.887423e+01 
1.518820e+00 6.690427e+01 
1.552880e+00 6.505069e+01 
1.588630e+00 6.318791e+01 
1.623230e+00 6.146228e+01 
1.657720e+00 5.981133e+01 
1.692450e+00 5.821580e+01 
1.726400e+00 5.671288e+01 
1.762200e+00 5.518936e+01 
1.797880e+00 5.373075e+01 
1.833270e+00 5.233919e+01 
1.869070e+00 5.098452e+01 
1.903200e+00 4.974021e+01 
1.937740e+00 4.852566e+01 
1.973190e+00 4.732262e+01 
2.007440e+00 4.620143e+01 
2.042160e+00 4.510335e+01 
2.077900e+00 4.401119e+01 
2.112390e+00 4.299404e+01 
2.146220e+00 4.202710e+01 
2.181600e+00 4.104836e+01 
2.216930e+00 4.010387e+01 
2.250760e+00 3.922834e+01 
2.286500e+00 3.833268e+01 
2.321770e+00 3.747732e+01 
2.355950e+00 3.667355e+01 
2.391280e+00 3.586713e+01 
2.426240e+00 3.509361e+01 
2.460670e+00 3.435521e+01 
2.495640e+00 3.362826e+01 
2.531080e+00 3.291141e+01 
2.566220e+00 3.222189e+01 
2.600830e+00 3.156283e+01 
2.635080e+00 3.092945e+01 
2.670340e+00 3.029464e+01 
2.705970e+00 2.967187e+01 
2.740040e+00 2.909330e+01 
2.774520e+00 2.852271e+01 
2.809730e+00 2.795590e+01 
2.844390e+00 2.741361e+01 
2.879960e+00 2.687181e+01 
2.914860e+00 2.635439e+01 
2.949410e+00 2.585613e+01 
2.984440e+00 2.536339e+01 
3.019760e+00 2.487988e+01 
3.054730e+00 2.441427e+01 
3.089030e+00 2.396785e+01 
3.124060e+00 2.352397e+01 
3.159560e+00 2.308570e+01 
3.194710e+00 2.266243e+01 
3.229010e+00 2.226016e+01 
3.263320e+00 2.186666e+01 
3.297930e+00 2.147982e+01 
3.332830e+00 2.109905e+01 
3.368040e+00 2.072412e+01 
3.403300e+00 2.035790e+01 
3.438450e+00 2.000125e+01 
3.473060e+00 1.965891e+01 
3.508440e+00 1.931665e+01 
3.543110e+00 1.898963e+01 
3.577470e+00 1.867246e+01 
3.613040e+00 1.835204e+01 
3.648120e+00 1.804308e+01 
3.682910e+00 1.774388e+01 
3.718050e+00 1.744841e+01 
3.753320e+00 1.715877e+01 
3.787980e+00 1.688052e+01 
3.822290e+00 1.661118e+01 
3.857020e+00 1.634431e+01 
3.891920e+00 1.608211e+01 
3.926650e+00 1.582669e+01 
3.961970e+00 1.557280e+01 
3.997360e+00 1.532392e+01 
4.031670e+00 1.508800e+01 
4.066330e+00 1.485448e+01 
4.101420e+00 1.462334e+01 
4.136200e+00 1.439884e+01 
4.170810e+00 1.418035e+01 
4.206250e+00 1.396108e+01 
4.241580e+00 1.374724e+01 
4.276300e+00 1.354140e+01 
4.310970e+00 1.334010e+01 
4.346120e+00 1.314029e+01 
4.380600e+00 1.294831e+01 
4.414730e+00 1.276219e+01 
4.450350e+00 1.257169e+01 
4.485320e+00 1.238858e+01 
4.519810e+00 1.221152e+01 
4.555430e+00 1.203234e+01 
4.590870e+00 1.185773e+01 
4.625480e+00 1.169059e+01 
4.659910e+00 1.152762e+01 
4.695230e+00 1.136361e+01 
4.729960e+00 1.120551e+01 
4.764450e+00 1.105152e+01 
4.799530e+00 1.089789e+01 
4.834910e+00 1.074597e+01 
4.869700e+00 1.059948e+01 
4.904370e+00 1.045628e+01 
4.939450e+00 1.031414e+01 
4.973940e+00 1.017706e+01 
5.008430e+00 1.004251e+01 
5.043810e+00 9.907039e+00 
5.078840e+00 9.775393e+00 
5.113500e+00 9.647537e+00 
5.148890e+00 9.519498e+00 
5.184210e+00 9.394076e+00 
5.219060e+00 9.272587e+00 
5.253660e+00 9.154164e+00 
5.288570e+00 9.036809e+00 
5.323420e+00 8.921795e+00 
5.358440e+00 8.808328e+00 
5.393590e+00 8.696452e+00 
5.428310e+00 8.587966e+00 
5.462800e+00 8.482100e+00 
5.497640e+00 8.376994e+00 
5.532670e+00 8.273208e+00 
5.567280e+00 8.172438e+00 
5.602000e+00 8.073051e+00 
5.637270e+00 7.973946e+00 
5.672410e+00 7.876910e+00 
5.707020e+00 7.782930e+00 
5.742040e+00 7.689518e+00 
5.777430e+00 7.596712e+00 
5.812210e+00 7.507008e+00 
5.846820e+00 7.419316e+00 
5.881610e+00 7.332622e+00 
5.916510e+00 7.247053e+00 
5.951600e+00 7.162529e+00 
5.986560e+00 7.079723e+00 
6.021830e+00 6.997515e+00 
6.056490e+00 6.918115e+00 
6.091160e+00 6.840021e+00 
6.125830e+00 6.763137e+00 
6.161090e+00 6.686222e+00 
6.195760e+00 6.611896e+00 
6.230420e+00 6.538723e+00 
6.265690e+00 6.465409e+00 
6.300950e+00 6.393413e+00 
6.335620e+00 6.323693e+00 
6.370880e+00 6.253854e+00 
6.405550e+00 6.186361e+00 
6.440220e+00 6.119925e+00 
6.475480e+00 6.053360e+00 
6.510150e+00 5.988921e+00 
6.544810e+00 5.925545e+00 
6.580080e+00 5.861995e+00 
6.614750e+00 5.800434e+00 
6.649410e+00 5.739986e+00 
6.684080e+00 5.680425e+00 
6.719340e+00 5.620716e+00 
6.754010e+00 5.562890e+00 
6.788680e+00 5.505986e+00 
6.823940e+00 5.448930e+00 
6.859800e+00 5.391731e+00 
6.894470e+00 5.337355e+00 
6.929140e+00 5.283781e+00 
6.963800e+00 5.230956e+00 
6.999070e+00 5.177950e+00 
7.033730e+00 5.126709e+00 
7.068400e+00 5.076145e+00 
7.103660e+00 5.025419e+00 
7.138330e+00 4.976285e+00 
7.173600e+00 4.927121e+00 
7.208260e+00 4.879452e+00 
7.243530e+00 4.831589e+00 
7.277600e+00 4.786062e+00 
7.312860e+00 4.739652e+00 
7.348120e+00 4.693856e+00 
7.382790e+00 4.649414e+00 
7.417460e+00 4.605649e+00 
7.452720e+00 4.561770e+00 
7.487390e+00 4.519181e+00 
7.522650e+00 4.476422e+00 
7.557320e+00 4.435030e+00 
7.591990e+00 4.394202e+00 
7.627250e+00 4.353205e+00 
7.662510e+00 4.312728e+00 
7.697180e+00 4.273550e+00 
7.731850e+00 4.234903e+00 
7.766510e+00 4.196743e+00 
7.801180e+00 4.159040e+00 
7.836440e+00 4.121285e+00 
7.871110e+00 4.084689e+00 
7.906380e+00 4.047915e+00 
7.941040e+00 4.012215e+00 
7.976310e+00 3.976385e+00 
8.011570e+00 3.941071e+00 
8.046240e+00 3.906763e+00 
8.080900e+00 3.872872e+00 
8.115570e+00 3.839403e+00 
8.150830e+00 3.805886e+00 
8.185500e+00 3.773319e+00 
8.220770e+00 3.740577e+00 
8.255430e+00 3.708778e+00 
8.290100e+00 3.677461e+00 
8.324770e+00 3.646520e+00 
8.359430e+00 3.615942e+00 
8.394700e+00 3.585184e+00 
8.429960e+00 3.554866e+00 
8.464630e+00 3.525472e+00 
8.499890e+00 3.495917e+00 
8.534560e+00 3.467186e+00 
8.569200e+00 3.438801e+00 
