# Parameters:
# omega_b = 0.021547, omega_m = 0.130472, n_s = 1.032677, h = 80.748031, w = -1.000000, sigma_8 = 0.788268
# z = 1.000000
#
# k[1/Mpc] # P(k):
8.694000e-04 4.464963e+03 
2.077466e-03 1.000252e+04 
3.285532e-03 1.448586e+04 
4.493598e-03 1.799590e+04 
5.701664e-03 2.063931e+04 
6.909730e-03 2.253705e+04 
8.117797e-03 2.384173e+04 
9.325863e-03 2.463213e+04 
1.053393e-02 2.499082e+04 
1.174199e-02 2.499608e+04 
1.295006e-02 2.469907e+04 
1.415813e-02 2.416978e+04 
1.536619e-02 2.346697e+04 
1.657426e-02 2.262672e+04 
1.778233e-02 2.164993e+04 
1.899039e-02 2.056310e+04 
2.019846e-02 1.946384e+04 
2.140652e-02 1.842833e+04 
2.261459e-02 1.745422e+04 
2.382266e-02 1.654274e+04 
2.503072e-02 1.570160e+04 
2.623879e-02 1.493391e+04 
2.744685e-02 1.424233e+04 
2.865492e-02 1.362503e+04 
2.986299e-02 1.307811e+04 
3.100100e-02 1.262555e+04 
3.220400e-02 1.220707e+04 
3.288100e-02 1.199801e+04 
3.424300e-02 1.162616e+04 
3.555100e-02 1.132004e+04 
3.686000e-02 1.105648e+04 
3.795000e-02 1.086200e+04 
3.929100e-02 1.064781e+04 
4.039800e-02 1.048337e+04 
4.164000e-02 1.030593e+04 
4.294400e-02 1.011697e+04 
4.415000e-02 9.938947e+03 
4.542900e-02 9.734357e+03 
4.660900e-02 9.535974e+03 
4.782300e-02 9.307771e+03 
4.892900e-02 9.088381e+03 
5.031200e-02 8.794158e+03 
5.155900e-02 8.510497e+03 
5.238100e-02 8.316904e+03 
5.378200e-02 7.978673e+03 
5.513400e-02 7.645408e+03 
5.627600e-02 7.363561e+03 
5.735300e-02 7.101796e+03 
5.870100e-02 6.783719e+03 
5.988700e-02 6.516694e+03 
6.113500e-02 6.250917e+03 
6.225900e-02 6.027351e+03 
6.340100e-02 5.817205e+03 
6.480200e-02 5.581938e+03 
6.601100e-02 5.401464e+03 
6.725500e-02 5.236409e+03 
6.829100e-02 5.116238e+03 
6.958600e-02 4.982496e+03 
7.071100e-02 4.882457e+03 
7.192300e-02 4.788656e+03 
7.307400e-02 4.711306e+03 
7.412300e-02 4.649212e+03 
7.550400e-02 4.578416e+03 
7.663100e-02 4.526661e+03 
7.791200e-02 4.473608e+03 
7.912700e-02 4.425780e+03 
8.027600e-02 4.380927e+03 
8.138400e-02 4.337023e+03 
8.272200e-02 4.281634e+03 
8.406100e-02 4.222405e+03 
8.534100e-02 4.159785e+03 
8.653800e-02 4.095545e+03 
8.759800e-02 4.035382e+03 
8.900300e-02 3.950256e+03 
9.009000e-02 3.879829e+03 
9.113300e-02 3.808439e+03 
9.239600e-02 3.719914e+03 
9.358000e-02 3.634201e+03 
9.496100e-02 3.531307e+03 
9.608400e-02 3.447648e+03 
9.727500e-02 3.359690e+03 
9.852600e-02 3.267407e+03 
9.973800e-02 3.180799e+03 
1.009000e-01 3.100308e+03 
1.020900e-01 3.022011e+03 
1.034000e-01 2.940310e+03 
1.046000e-01 2.869697e+03 
1.057200e-01 2.809874e+03 
1.069100e-01 2.749873e+03 
1.082500e-01 2.689713e+03 
1.093900e-01 2.643722e+03 
1.105400e-01 2.600681e+03 
1.116900e-01 2.563920e+03 
1.129600e-01 2.526108e+03 
1.142000e-01 2.494430e+03 
1.153300e-01 2.467678e+03 
1.166400e-01 2.439618e+03 
1.177800e-01 2.416945e+03 
1.190000e-01 2.393810e+03 
1.201200e-01 2.372823e+03 
1.213400e-01 2.350472e+03 
1.227100e-01 2.323860e+03 
1.238900e-01 2.300806e+03 
1.250700e-01 2.275846e+03 
1.263200e-01 2.248842e+03 
1.275500e-01 2.220261e+03 
1.287500e-01 2.191573e+03 
1.299900e-01 2.160319e+03 
1.311300e-01 2.130938e+03 
1.323500e-01 2.098253e+03 
1.335900e-01 2.064782e+03 
1.347100e-01 2.033877e+03 
1.359800e-01 1.999064e+03 
1.372100e-01 1.965008e+03 
1.384300e-01 1.931821e+03 
1.395700e-01 1.901013e+03 
1.407700e-01 1.869324e+03 
1.420300e-01 1.836905e+03 
1.432800e-01 1.805509e+03 
1.444500e-01 1.777548e+03 
1.456300e-01 1.749962e+03 
1.468900e-01 1.722256e+03 
1.480500e-01 1.697625e+03 
1.491700e-01 1.675028e+03 
1.503800e-01 1.652005e+03 
1.516400e-01 1.628861e+03 
1.528200e-01 1.609059e+03 
1.540200e-01 1.589314e+03 
1.551900e-01 1.571713e+03 
1.564300e-01 1.553726e+03 
1.576600e-01 1.536764e+03 
1.588700e-01 1.521036e+03 
1.600900e-01 1.505505e+03 
1.612700e-01 1.491347e+03 
1.625400e-01 1.476391e+03 
1.637600e-01 1.462270e+03 
1.649500e-01 1.448731e+03 
1.662200e-01 1.434455e+03 
1.674000e-01 1.420942e+03 
1.685000e-01 1.408555e+03 
1.697500e-01 1.394232e+03 
1.710300e-01 1.379350e+03 
1.722200e-01 1.365759e+03 
1.734400e-01 1.350967e+03 
1.746400e-01 1.336624e+03 
1.758700e-01 1.321864e+03 
1.770900e-01 1.306840e+03 
1.782700e-01 1.292558e+03 
1.794600e-01 1.278004e+03 
1.807000e-01 1.262835e+03 
1.819100e-01 1.248292e+03 
1.830100e-01 1.235068e+03 
1.842200e-01 1.220722e+03 
1.855000e-01 1.205815e+03 
1.867000e-01 1.192164e+03 
1.879200e-01 1.178519e+03 
1.890900e-01 1.165707e+03 
1.902800e-01 1.153186e+03 
1.915200e-01 1.140354e+03 
1.926900e-01 1.128559e+03 
1.939000e-01 1.116938e+03 
1.951700e-01 1.104938e+03 
1.963100e-01 1.094461e+03 
1.975100e-01 1.083936e+03 
1.987800e-01 1.072971e+03 
2.000100e-01 1.062640e+03 
2.012500e-01 1.052665e+03 
2.023400e-01 1.044023e+03 
2.036100e-01 1.034147e+03 
2.048900e-01 1.024530e+03 
2.060400e-01 1.016017e+03 
2.072200e-01 1.007410e+03 
2.084200e-01 9.988552e+02 
2.096900e-01 9.899340e+02 
2.109200e-01 9.814212e+02 
2.121100e-01 9.732470e+02 
2.132700e-01 9.653854e+02 
2.145200e-01 9.570325e+02 
2.157200e-01 9.490578e+02 
2.168800e-01 9.414217e+02 
2.180700e-01 9.336934e+02 
2.193400e-01 9.255176e+02 
2.206000e-01 9.174416e+02 
2.217500e-01 9.101710e+02 
2.229500e-01 9.026845e+02 
2.241400e-01 8.952853e+02 
2.253500e-01 8.878604e+02 
2.264900e-01 8.809562e+02 
2.277100e-01 8.736561e+02 
2.289900e-01 8.660935e+02 
2.301500e-01 8.593312e+02 
2.313600e-01 8.523687e+02 
2.325600e-01 8.455978e+02 
2.337700e-01 8.388588e+02 
2.350000e-01 8.320978e+02 
2.362000e-01 8.256309e+02 
2.374100e-01 8.192453e+02 
2.386500e-01 8.127854e+02 
2.399100e-01 8.063069e+02 
2.410400e-01 8.006547e+02 
2.422500e-01 7.946861e+02 
2.435000e-01 7.885979e+02 
2.447300e-01 7.827032e+02 
2.458700e-01 7.773866e+02 
2.470600e-01 7.719020e+02 
2.483300e-01 7.661207e+02 
2.495600e-01 7.606185e+02 
2.507600e-01 7.553526e+02 
2.519600e-01 7.501488e+02 
2.532200e-01 7.447507e+02 
2.543700e-01 7.399034e+02 
2.555500e-01 7.350005e+02 
2.568000e-01 7.298676e+02 
2.580100e-01 7.249576e+02 
2.592400e-01 7.200254e+02 
2.604100e-01 7.153876e+02 
2.616100e-01 7.106843e+02 
2.628400e-01 7.059187e+02 
2.640600e-01 7.012260e+02 
2.652200e-01 6.968058e+02 
2.664300e-01 6.922459e+02 
2.676500e-01 6.877001e+02 
2.688400e-01 6.832937e+02 
2.700700e-01 6.787763e+02 
2.712400e-01 6.745265e+02 
2.724800e-01 6.700718e+02 
2.736700e-01 6.658245e+02 
2.748800e-01 6.615329e+02 
2.761000e-01 6.572531e+02 
2.773200e-01 6.530201e+02 
2.785400e-01 6.488226e+02 
2.797000e-01 6.448515e+02 
2.808900e-01 6.408202e+02 
2.821400e-01 6.366313e+02 
2.833900e-01 6.324871e+02 
2.845500e-01 6.286537e+02 
2.857800e-01 6.246315e+02 
2.870300e-01 6.205879e+02 
2.882100e-01 6.168108e+02 
2.893900e-01 6.130599e+02 
2.906300e-01 6.091527e+02 
2.918900e-01 6.052250e+02 
2.930500e-01 6.016462e+02 
2.942500e-01 5.979780e+02 
2.954200e-01 5.944278e+02 
2.966500e-01 5.907332e+02 
2.978900e-01 5.870471e+02 
2.990400e-01 5.836627e+02 
3.002700e-01 5.800738e+02 
3.015100e-01 5.764903e+02 
3.026800e-01 5.731428e+02 
3.038500e-01 5.698275e+02 
3.050300e-01 5.665160e+02 
3.062600e-01 5.630977e+02 
3.075000e-01 5.596863e+02 
3.087000e-01 5.564174e+02 
3.099100e-01 5.531534e+02 
3.111200e-01 5.499235e+02 
3.123100e-01 5.467817e+02 
3.135300e-01 5.435915e+02 
3.147300e-01 5.404838e+02 
3.159900e-01 5.372524e+02 
3.171800e-01 5.342354e+02 
3.183700e-01 5.312501e+02 
3.196300e-01 5.281194e+02 
3.208400e-01 5.251418e+02 
3.220300e-01 5.222407e+02 
3.232000e-01 5.194223e+02 
3.244300e-01 5.164899e+02 
3.256700e-01 5.135615e+02 
3.269200e-01 5.106376e+02 
3.280800e-01 5.079491e+02 
3.292500e-01 5.052723e+02 
3.304800e-01 5.024871e+02 
3.317100e-01 4.997277e+02 
3.328900e-01 4.971043e+02 
3.340700e-01 4.945040e+02 
3.353600e-01 4.916986e+02 
3.365300e-01 4.891815e+02 
3.377100e-01 4.866650e+02 
3.389200e-01 4.841070e+02 
3.401600e-01 4.815092e+02 
3.413700e-01 4.790083e+02 
3.425300e-01 4.766392e+02 
3.437700e-01 4.741288e+02 
3.449800e-01 4.717007e+02 
3.461800e-01 4.693135e+02 
3.473600e-01 4.669904e+02 
3.485800e-01 4.646199e+02 
3.498100e-01 4.622508e+02 
3.510200e-01 4.599403e+02 
3.522000e-01 4.577060e+02 
3.533900e-01 4.554716e+02 
3.546400e-01 4.531595e+02 
3.558400e-01 4.509597e+02 
3.570600e-01 4.487420e+02 
3.582700e-01 4.465610e+02 
3.595000e-01 4.443626e+02 
3.607100e-01 4.422256e+02 
3.618900e-01 4.401646e+02 
3.631200e-01 4.380338e+02 
3.643200e-01 4.359722e+02 
3.655500e-01 4.338764e+02 
3.667300e-01 4.318823e+02 
3.679500e-01 4.298509e+02 
3.691900e-01 4.278033e+02 
3.703600e-01 4.258869e+02 
3.715700e-01 4.239206e+02 
3.727700e-01 4.219861e+02 
3.739900e-01 4.200398e+02 
3.752000e-01 4.181331e+02 
3.763900e-01 4.162727e+02 
3.775800e-01 4.144267e+02 
3.788200e-01 4.125185e+02 
3.800300e-01 4.106713e+02 
3.812100e-01 4.088885e+02 
3.824200e-01 4.070778e+02 
3.836100e-01 4.053108e+02 
3.848600e-01 4.034691e+02 
3.860400e-01 4.017442e+02 
3.872400e-01 4.000033e+02 
3.884600e-01 3.982537e+02 
3.896500e-01 3.965628e+02 
3.908700e-01 3.948425e+02 
3.920600e-01 3.931771e+02 
3.933100e-01 3.914412e+02 
3.945300e-01 3.897600e+02 
3.957200e-01 3.881389e+02 
3.969300e-01 3.865047e+02 
3.981700e-01 3.848427e+02 
3.993500e-01 3.832728e+02 
4.094840e-01 3.702511e+02 
4.272360e-01 3.493931e+02 
4.454600e-01 3.301322e+02 
4.630560e-01 3.133039e+02 
4.804610e-01 2.981376e+02 
4.980690e-01 2.841004e+02 
5.159230e-01 2.710495e+02 
5.317440e-01 2.603705e+02 
5.489640e-01 2.496069e+02 
5.671990e-01 2.390937e+02 
5.838690e-01 2.301940e+02 
6.018840e-01 2.212739e+02 
6.202330e-01 2.128681e+02 
6.379250e-01 2.053368e+02 
6.545410e-01 1.987588e+02 
6.714560e-01 1.924839e+02 
6.892080e-01 1.863295e+02 
7.066010e-01 1.806939e+02 
7.240540e-01 1.753865e+02 
7.420450e-01 1.702615e+02 
7.593780e-01 1.656196e+02 
7.764720e-01 1.612983e+02 
7.942840e-01 1.570487e+02 
8.116170e-01 1.531433e+02 
8.288310e-01 1.494703e+02 
8.462240e-01 1.459448e+02 
8.631980e-01 1.426724e+02 
8.810700e-01 1.393924e+02 
8.989410e-01 1.362707e+02 
9.166330e-01 1.333211e+02 
9.345640e-01 1.304665e+02 
9.515980e-01 1.278697e+02 
9.688720e-01 1.253430e+02 
9.865640e-01 1.228581e+02 
1.031870e+00 1.169218e+02 
1.063490e+00 1.131013e+02 
1.097920e+00 1.092087e+02 
1.134370e+00 1.053490e+02 
1.167730e+00 1.020354e+02 
1.203830e+00 9.864840e+01 
1.240470e+00 9.541281e+01 
1.275790e+00 9.245864e+01 
1.309140e+00 8.981742e+01 
1.342970e+00 8.725460e+01 
1.378420e+00 8.470419e+01 
1.413200e+00 8.231434e+01 
1.448110e+00 8.002213e+01 
1.484090e+00 7.776932e+01 
1.518820e+00 7.568729e+01 
1.552880e+00 7.372545e+01 
1.588630e+00 7.175071e+01 
1.623230e+00 6.991855e+01 
1.657720e+00 6.816329e+01 
1.692450e+00 6.646405e+01 
1.726400e+00 6.486037e+01 
1.762200e+00 6.323191e+01 
1.797880e+00 6.167014e+01 
1.833270e+00 6.017778e+01 
1.869070e+00 5.872186e+01 
1.903200e+00 5.738242e+01 
1.937740e+00 5.607296e+01 
1.973190e+00 5.477327e+01 
2.007440e+00 5.355989e+01 
2.042160e+00 5.236936e+01 
2.077900e+00 5.118305e+01 
2.112390e+00 5.007663e+01 
2.146220e+00 4.902259e+01 
2.181600e+00 4.795392e+01 
2.216930e+00 4.692070e+01 
2.250760e+00 4.596134e+01 
2.286500e+00 4.497831e+01 
2.321770e+00 4.403789e+01 
2.355950e+00 4.315277e+01 
2.391280e+00 4.226289e+01 
2.426240e+00 4.140798e+01 
2.460670e+00 4.059065e+01 
2.495640e+00 3.978476e+01 
2.531080e+00 3.898842e+01 
2.566220e+00 3.822124e+01 
2.600830e+00 3.748688e+01 
2.635080e+00 3.678014e+01 
2.670340e+00 3.607036e+01 
2.705970e+00 3.537295e+01 
2.740040e+00 3.472418e+01 
2.774520e+00 3.408332e+01 
2.809730e+00 3.344563e+01 
2.844390e+00 3.283475e+01 
2.879960e+00 3.222347e+01 
2.914860e+00 3.163868e+01 
2.949410e+00 3.107489e+01 
2.984440e+00 3.051643e+01 
3.019760e+00 2.996765e+01 
3.054730e+00 2.943860e+01 
3.089030e+00 2.893032e+01 
3.124060e+00 2.842438e+01 
3.159560e+00 2.792411e+01 
3.194710e+00 2.744022e+01 
3.229010e+00 2.697994e+01 
3.263320e+00 2.652886e+01 
3.297930e+00 2.608496e+01 
3.332830e+00 2.564733e+01 
3.368040e+00 2.521588e+01 
3.403300e+00 2.479403e+01 
3.438450e+00 2.438254e+01 
3.473060e+00 2.398727e+01 
3.508440e+00 2.359129e+01 
3.543110e+00 2.321269e+01 
3.577470e+00 2.284484e+01 
3.613040e+00 2.247295e+01 
3.648120e+00 2.211382e+01 
3.682910e+00 2.176573e+01 
3.718050e+00 2.142148e+01 
3.753320e+00 2.108370e+01 
3.787980e+00 2.075880e+01 
3.822290e+00 2.044398e+01 
3.857020e+00 2.013165e+01 
3.891920e+00 1.982452e+01 
3.926650e+00 1.952494e+01 
3.961970e+00 1.922692e+01 
3.997360e+00 1.893440e+01 
4.031670e+00 1.865692e+01 
4.066330e+00 1.838178e+01 
4.101420e+00 1.810933e+01 
4.136200e+00 1.784430e+01 
4.170810e+00 1.758627e+01 
4.206250e+00 1.732692e+01 
4.241580e+00 1.707384e+01 
4.276300e+00 1.682992e+01 
4.310970e+00 1.659116e+01 
4.346120e+00 1.635398e+01 
4.380600e+00 1.612582e+01 
4.414730e+00 1.590454e+01 
4.450350e+00 1.567768e+01 
4.485320e+00 1.545955e+01 
4.519810e+00 1.524835e+01 
4.555430e+00 1.503446e+01 
4.590870e+00 1.482586e+01 
4.625480e+00 1.462597e+01 
4.659910e+00 1.443099e+01 
4.695230e+00 1.423446e+01 
4.729960e+00 1.404493e+01 
4.764450e+00 1.386018e+01 
4.799530e+00 1.367565e+01 
4.834910e+00 1.349312e+01 
4.869700e+00 1.331687e+01 
4.904370e+00 1.314448e+01 
4.939450e+00 1.297327e+01 
4.973940e+00 1.280794e+01 
5.008430e+00 1.264563e+01 
5.043810e+00 1.248203e+01 
5.078840e+00 1.232293e+01 
5.113500e+00 1.216836e+01 
5.148890e+00 1.201333e+01 
5.184210e+00 1.186141e+01 
5.219060e+00 1.171417e+01 
5.253660e+00 1.157048e+01 
5.288570e+00 1.142805e+01 
5.323420e+00 1.128833e+01 
5.358440e+00 1.115036e+01 
5.393590e+00 1.101429e+01 
5.428310e+00 1.088220e+01 
5.462800e+00 1.075320e+01 
5.497640e+00 1.062510e+01 
5.532670e+00 1.049846e+01 
5.567280e+00 1.037543e+01 
5.602000e+00 1.025405e+01 
5.637270e+00 1.013287e+01 
5.672410e+00 1.001416e+01 
5.707020e+00 9.899155e+00 
5.742040e+00 9.784703e+00 
5.777430e+00 9.670938e+00 
5.812210e+00 9.560946e+00 
5.846820e+00 9.453286e+00 
5.881610e+00 9.346794e+00 
5.916510e+00 9.241659e+00 
5.951600e+00 9.137695e+00 
5.986560e+00 9.035780e+00 
6.021830e+00 8.934576e+00 
6.056490e+00 8.836744e+00 
6.091160e+00 8.740449e+00 
6.125830e+00 8.645623e+00 
6.161090e+00 8.550697e+00 
6.195760e+00 8.458858e+00 
6.230420e+00 8.368424e+00 
6.265690e+00 8.277789e+00 
6.300950e+00 8.188660e+00 
6.335620e+00 8.102328e+00 
6.370880e+00 8.015830e+00 
6.405550e+00 7.932142e+00 
6.440220e+00 7.849716e+00 
6.475480e+00 7.767113e+00 
6.510150e+00 7.687098e+00 
6.544810e+00 7.608312e+00 
6.580080e+00 7.529294e+00 
6.614750e+00 7.452733e+00 
6.649410e+00 7.377460e+00 
6.684080e+00 7.303260e+00 
6.719340e+00 7.228862e+00 
6.754010e+00 7.156762e+00 
6.788680e+00 7.085726e+00 
6.823940e+00 7.014485e+00 
6.859800e+00 6.943051e+00 
6.894470e+00 6.875065e+00 
6.929140e+00 6.808044e+00 
6.963800e+00 6.741949e+00 
6.999070e+00 6.675610e+00 
7.033730e+00 6.611387e+00 
7.068400e+00 6.548001e+00 
7.103660e+00 6.484400e+00 
7.138330e+00 6.422755e+00 
7.173600e+00 6.360995e+00 
7.208260e+00 6.301104e+00 
7.243530e+00 6.240960e+00 
7.277600e+00 6.183696e+00 
7.312860e+00 6.125269e+00 
7.348120e+00 6.067605e+00 
7.382790e+00 6.011638e+00 
7.417460e+00 5.956464e+00 
7.452720e+00 5.901110e+00 
7.487390e+00 5.847376e+00 
7.522650e+00 5.793420e+00 
7.557320e+00 5.741118e+00 
7.591990e+00 5.689499e+00 
7.627250e+00 5.637658e+00 
7.662510e+00 5.586469e+00 
7.697180e+00 5.536860e+00 
7.731850e+00 5.487897e+00 
7.766510e+00 5.439544e+00 
7.801180e+00 5.391765e+00 
7.836440e+00 5.343865e+00 
7.871110e+00 5.297400e+00 
7.906380e+00 5.250702e+00 
7.941040e+00 5.205364e+00 
7.976310e+00 5.159821e+00 
8.011570e+00 5.114886e+00 
8.046240e+00 5.071228e+00 
8.080900e+00 5.028095e+00 
8.115570e+00 4.985480e+00 
8.150830e+00 4.942742e+00 
8.185500e+00 4.901212e+00 
8.220770e+00 4.859455e+00 
8.255430e+00 4.818896e+00 
8.290100e+00 4.778885e+00 
8.324770e+00 4.739342e+00 
8.359430e+00 4.700259e+00 
8.394700e+00 4.660943e+00 
8.429960e+00 4.622153e+00 
8.464630e+00 4.584509e+00 
8.499890e+00 4.546657e+00 
8.534560e+00 4.509856e+00 
8.569200e+00 4.473495e+00 
