# Parameters:
# omega_b = 0.021957, omega_m = 0.129646, n_s = 0.991732, h = 73.661417, w = -1.000000, sigma_8 = 0.797244
# z = 1.000000
#
# k[1/Mpc] # P(k):
8.694000e-04 6.162423e+03 
2.077466e-03 1.335095e+04 
3.285532e-03 1.896695e+04 
4.493598e-03 2.324257e+04 
5.701664e-03 2.637182e+04 
6.909730e-03 2.854127e+04 
8.117797e-03 2.996328e+04 
9.325863e-03 3.074779e+04 
1.053393e-02 3.100550e+04 
1.174199e-02 3.083878e+04 
1.295006e-02 3.031368e+04 
1.415813e-02 2.951828e+04 
1.536619e-02 2.852681e+04 
1.657426e-02 2.738955e+04 
1.778233e-02 2.614119e+04 
1.899039e-02 2.483968e+04 
2.019846e-02 2.354021e+04 
2.140652e-02 2.228943e+04 
2.261459e-02 2.109900e+04 
2.382266e-02 1.998375e+04 
2.503072e-02 1.895491e+04 
2.623879e-02 1.801554e+04 
2.744685e-02 1.716773e+04 
2.865492e-02 1.640890e+04 
2.986299e-02 1.573385e+04 
3.100100e-02 1.517173e+04 
3.220400e-02 1.464778e+04 
3.288100e-02 1.438351e+04 
3.424300e-02 1.390838e+04 
3.555100e-02 1.351110e+04 
3.686000e-02 1.316274e+04 
3.795000e-02 1.290158e+04 
3.929100e-02 1.260894e+04 
4.039800e-02 1.238229e+04 
4.164000e-02 1.213740e+04 
4.294400e-02 1.187948e+04 
4.415000e-02 1.163996e+04 
4.542900e-02 1.137198e+04 
4.660900e-02 1.111747e+04 
4.782300e-02 1.083353e+04 
4.892900e-02 1.056569e+04 
5.031200e-02 1.021390e+04 
5.155900e-02 9.881255e+03 
5.238100e-02 9.656886e+03 
5.378200e-02 9.268746e+03 
5.513400e-02 8.890100e+03 
5.627600e-02 8.571762e+03 
5.735300e-02 8.276906e+03 
5.870100e-02 7.918943e+03 
5.988700e-02 7.618050e+03 
6.113500e-02 7.317676e+03 
6.225900e-02 7.063729e+03 
6.340100e-02 6.823467e+03 
6.480200e-02 6.552415e+03 
6.601100e-02 6.341915e+03 
6.725500e-02 6.146996e+03 
6.829100e-02 6.002788e+03 
6.958600e-02 5.840202e+03 
7.071100e-02 5.716264e+03 
7.192300e-02 5.597983e+03 
7.307400e-02 5.498624e+03 
7.412300e-02 5.417529e+03 
7.550400e-02 5.323342e+03 
7.663100e-02 5.253693e+03 
7.791200e-02 5.181810e+03 
7.912700e-02 5.117453e+03 
8.027600e-02 5.057918e+03 
8.138400e-02 5.000581e+03 
8.272200e-02 4.929793e+03 
8.406100e-02 4.855826e+03 
8.534100e-02 4.779471e+03 
8.653800e-02 4.702467e+03 
8.759800e-02 4.631040e+03 
8.900300e-02 4.530929e+03 
9.009000e-02 4.448776e+03 
9.113300e-02 4.365992e+03 
9.239600e-02 4.263735e+03 
9.358000e-02 4.165179e+03 
9.496100e-02 4.047485e+03 
9.608400e-02 3.952136e+03 
9.727500e-02 3.852149e+03 
9.852600e-02 3.747893e+03 
9.973800e-02 3.650281e+03 
1.009000e-01 3.559748e+03 
1.020900e-01 3.472037e+03 
1.034000e-01 3.380563e+03 
1.046000e-01 3.301554e+03 
1.057200e-01 3.234503e+03 
1.069100e-01 3.167142e+03 
1.082500e-01 3.099205e+03 
1.093900e-01 3.046861e+03 
1.105400e-01 2.997621e+03 
1.116900e-01 2.954784e+03 
1.129600e-01 2.910399e+03 
1.142000e-01 2.872301e+03 
1.153300e-01 2.839735e+03 
1.166400e-01 2.804932e+03 
1.177800e-01 2.776317e+03 
1.190000e-01 2.746866e+03 
1.201200e-01 2.719963e+03 
1.213400e-01 2.691263e+03 
1.227100e-01 2.657428e+03 
1.238900e-01 2.628268e+03 
1.250700e-01 2.597239e+03 
1.263200e-01 2.563955e+03 
1.275500e-01 2.529346e+03 
1.287500e-01 2.494974e+03 
1.299900e-01 2.458079e+03 
1.311300e-01 2.423741e+03 
1.323500e-01 2.386033e+03 
1.335900e-01 2.347727e+03 
1.347100e-01 2.312746e+03 
1.359800e-01 2.273545e+03 
1.372100e-01 2.235590e+03 
1.384300e-01 2.198715e+03 
1.395700e-01 2.164758e+03 
1.407700e-01 2.129841e+03 
1.420300e-01 2.094339e+03 
1.432800e-01 2.059944e+03 
1.444500e-01 2.029340e+03 
1.456300e-01 1.999134e+03 
1.468900e-01 1.968662e+03 
1.480500e-01 1.941526e+03 
1.491700e-01 1.916483e+03 
1.503800e-01 1.890781e+03 
1.516400e-01 1.864855e+03 
1.528200e-01 1.842292e+03 
1.540200e-01 1.819795e+03 
1.551900e-01 1.799336e+03 
1.564300e-01 1.778325e+03 
1.576600e-01 1.758310e+03 
1.588700e-01 1.739501e+03 
1.600900e-01 1.720914e+03 
1.612700e-01 1.703690e+03 
1.625400e-01 1.685497e+03 
1.637600e-01 1.668293e+03 
1.649500e-01 1.651784e+03 
1.662200e-01 1.634407e+03 
1.674000e-01 1.618115e+03 
1.685000e-01 1.603183e+03 
1.697500e-01 1.586098e+03 
1.710300e-01 1.568521e+03 
1.722200e-01 1.552471e+03 
1.734400e-01 1.535397e+03 
1.746400e-01 1.518859e+03 
1.758700e-01 1.501953e+03 
1.770900e-01 1.484971e+03 
1.782700e-01 1.468828e+03 
1.794600e-01 1.452519e+03 
1.807000e-01 1.435613e+03 
1.819100e-01 1.419404e+03 
1.830100e-01 1.404757e+03 
1.842200e-01 1.388882e+03 
1.855000e-01 1.372385e+03 
1.867000e-01 1.357288e+03 
1.879200e-01 1.342194e+03 
1.890900e-01 1.328008e+03 
1.902800e-01 1.314087e+03 
1.915200e-01 1.299817e+03 
1.926900e-01 1.286673e+03 
1.939000e-01 1.273634e+03 
1.951700e-01 1.260170e+03 
1.963100e-01 1.248381e+03 
1.975100e-01 1.236446e+03 
1.987800e-01 1.224014e+03 
2.000100e-01 1.212267e+03 
2.012500e-01 1.200850e+03 
2.023400e-01 1.190960e+03 
2.036100e-01 1.179642e+03 
2.048900e-01 1.168567e+03 
2.060400e-01 1.158763e+03 
2.072200e-01 1.148849e+03 
2.084200e-01 1.138972e+03 
2.096900e-01 1.128672e+03 
2.109200e-01 1.118844e+03 
2.121100e-01 1.109410e+03 
2.132700e-01 1.100337e+03 
2.145200e-01 1.090698e+03 
2.157200e-01 1.081502e+03 
2.168800e-01 1.072700e+03 
2.180700e-01 1.063792e+03 
2.193400e-01 1.054368e+03 
2.206000e-01 1.045056e+03 
2.217500e-01 1.036673e+03 
2.229500e-01 1.028041e+03 
2.241400e-01 1.019482e+03 
2.253500e-01 1.010893e+03 
2.264900e-01 1.002906e+03 
2.277100e-01 9.944297e+02 
2.289900e-01 9.856137e+02 
2.301500e-01 9.777313e+02 
2.313600e-01 9.696153e+02 
2.325600e-01 9.616339e+02 
2.337700e-01 9.536911e+02 
2.350000e-01 9.457232e+02 
2.362000e-01 9.380572e+02 
2.374100e-01 9.304340e+02 
2.386500e-01 9.227234e+02 
2.399100e-01 9.149918e+02 
2.410400e-01 9.081739e+02 
2.422500e-01 9.009661e+02 
2.435000e-01 8.936152e+02 
2.447300e-01 8.864881e+02 
2.458700e-01 8.800167e+02 
2.470600e-01 8.733419e+02 
2.483300e-01 8.663075e+02 
2.495600e-01 8.596089e+02 
2.507600e-01 8.531922e+02 
2.519600e-01 8.468525e+02 
2.532200e-01 8.402772e+02 
2.543700e-01 8.343917e+02 
2.555500e-01 8.284519e+02 
2.568000e-01 8.222345e+02 
2.580100e-01 8.162882e+02 
2.592400e-01 8.103604e+02 
2.604100e-01 8.048069e+02 
2.616100e-01 7.991757e+02 
2.628400e-01 7.934706e+02 
2.640600e-01 7.879108e+02 
2.652200e-01 7.826969e+02 
2.664300e-01 7.773187e+02 
2.676500e-01 7.719578e+02 
2.688400e-01 7.668098e+02 
2.700700e-01 7.615626e+02 
2.712400e-01 7.566265e+02 
2.724800e-01 7.514528e+02 
2.736700e-01 7.465530e+02 
2.748800e-01 7.416356e+02 
2.761000e-01 7.367320e+02 
2.773200e-01 7.318822e+02 
2.785400e-01 7.270889e+02 
2.797000e-01 7.225870e+02 
2.808900e-01 7.180168e+02 
2.821400e-01 7.132680e+02 
2.833900e-01 7.085715e+02 
2.845500e-01 7.042582e+02 
2.857800e-01 6.997324e+02 
2.870300e-01 6.951826e+02 
2.882100e-01 6.909328e+02 
2.893900e-01 6.867258e+02 
2.906300e-01 6.823507e+02 
2.918900e-01 6.779526e+02 
2.930500e-01 6.739452e+02 
2.942500e-01 6.698405e+02 
2.954200e-01 6.658762e+02 
2.966500e-01 6.617506e+02 
2.978900e-01 6.576346e+02 
2.990400e-01 6.538554e+02 
3.002700e-01 6.498518e+02 
3.015100e-01 6.458563e+02 
3.026800e-01 6.421237e+02 
3.038500e-01 6.384271e+02 
3.050300e-01 6.347347e+02 
3.062600e-01 6.309254e+02 
3.075000e-01 6.271236e+02 
3.087000e-01 6.234807e+02 
3.099100e-01 6.198431e+02 
3.111200e-01 6.162436e+02 
3.123100e-01 6.127423e+02 
3.135300e-01 6.091871e+02 
3.147300e-01 6.057237e+02 
3.159900e-01 6.021225e+02 
3.171800e-01 5.987601e+02 
3.183700e-01 5.954328e+02 
3.196300e-01 5.919435e+02 
3.208400e-01 5.886248e+02 
3.220300e-01 5.853914e+02 
3.232000e-01 5.822489e+02 
3.244300e-01 5.789789e+02 
3.256700e-01 5.757134e+02 
3.269200e-01 5.724528e+02 
3.280800e-01 5.694547e+02 
3.292500e-01 5.664688e+02 
3.304800e-01 5.633617e+02 
3.317100e-01 5.602833e+02 
3.328900e-01 5.573566e+02 
3.340700e-01 5.544557e+02 
3.353600e-01 5.513252e+02 
3.365300e-01 5.485161e+02 
3.377100e-01 5.457076e+02 
3.389200e-01 5.428528e+02 
3.401600e-01 5.399536e+02 
3.413700e-01 5.371616e+02 
3.425300e-01 5.345164e+02 
3.437700e-01 5.317132e+02 
3.449800e-01 5.290020e+02 
3.461800e-01 5.263364e+02 
3.473600e-01 5.237423e+02 
3.485800e-01 5.210948e+02 
3.498100e-01 5.184487e+02 
3.510200e-01 5.158682e+02 
3.522000e-01 5.133728e+02 
3.533900e-01 5.108771e+02 
3.546400e-01 5.082943e+02 
3.558400e-01 5.058369e+02 
3.570600e-01 5.033595e+02 
3.582700e-01 5.009230e+02 
3.595000e-01 4.984671e+02 
3.607100e-01 4.960798e+02 
3.618900e-01 4.937772e+02 
3.631200e-01 4.913968e+02 
3.643200e-01 4.890936e+02 
3.655500e-01 4.867523e+02 
3.667300e-01 4.845244e+02 
3.679500e-01 4.822552e+02 
3.691900e-01 4.799678e+02 
3.703600e-01 4.778269e+02 
3.715700e-01 4.756303e+02 
3.727700e-01 4.734693e+02 
3.739900e-01 4.712951e+02 
3.752000e-01 4.691653e+02 
3.763900e-01 4.670873e+02 
3.775800e-01 4.650254e+02 
3.788200e-01 4.628939e+02 
3.800300e-01 4.608305e+02 
3.812100e-01 4.588395e+02 
3.824200e-01 4.568175e+02 
3.836100e-01 4.548443e+02 
3.848600e-01 4.527877e+02 
3.860400e-01 4.508615e+02 
3.872400e-01 4.489174e+02 
3.884600e-01 4.469639e+02 
3.896500e-01 4.450760e+02 
3.908700e-01 4.431552e+02 
3.920600e-01 4.412958e+02 
3.933100e-01 4.393576e+02 
3.945300e-01 4.374805e+02 
3.957200e-01 4.356712e+02 
3.969300e-01 4.338474e+02 
3.981700e-01 4.319925e+02 
3.993500e-01 4.302406e+02 
4.094840e-01 4.157096e+02 
4.272360e-01 3.924480e+02 
4.454600e-01 3.709747e+02 
4.630560e-01 3.522140e+02 
4.804610e-01 3.353042e+02 
4.980690e-01 3.196509e+02 
5.159230e-01 3.050974e+02 
5.317440e-01 2.931888e+02 
5.489640e-01 2.811864e+02 
5.671990e-01 2.694682e+02 
5.838690e-01 2.595509e+02 
6.018840e-01 2.496118e+02 
6.202330e-01 2.402480e+02 
6.379250e-01 2.318618e+02 
6.545410e-01 2.245369e+02 
6.714560e-01 2.175475e+02 
6.892080e-01 2.106938e+02 
7.066010e-01 2.044123e+02 
7.240540e-01 1.984962e+02 
7.420450e-01 1.927762e+02 
7.593780e-01 1.875900e+02 
7.764720e-01 1.827571e+02 
7.942840e-01 1.779996e+02 
8.116170e-01 1.736192e+02 
8.288310e-01 1.694922e+02 
8.462240e-01 1.655245e+02 
8.631980e-01 1.618339e+02 
8.810700e-01 1.581288e+02 
8.989410e-01 1.545958e+02 
9.166330e-01 1.512508e+02 
9.345640e-01 1.480071e+02 
9.515980e-01 1.450491e+02 
9.688720e-01 1.421653e+02 
9.865640e-01 1.393225e+02 
1.031870e+00 1.325123e+02 
1.063490e+00 1.281106e+02 
1.097920e+00 1.236111e+02 
1.134370e+00 1.191376e+02 
1.167730e+00 1.152853e+02 
1.203830e+00 1.113385e+02 
1.240470e+00 1.075610e+02 
1.275790e+00 1.041045e+02 
1.309140e+00 1.010114e+02 
1.342970e+00 9.800629e+01 
1.378420e+00 9.501271e+01 
1.413200e+00 9.220568e+01 
1.448110e+00 8.951297e+01 
1.484090e+00 8.686519e+01 
1.518820e+00 8.441866e+01 
1.552880e+00 8.211367e+01 
1.588630e+00 7.979486e+01 
1.623230e+00 7.764358e+01 
1.657720e+00 7.558360e+01 
1.692450e+00 7.359144e+01 
1.726400e+00 7.171233e+01 
1.762200e+00 6.980527e+01 
1.797880e+00 6.797903e+01 
1.833270e+00 6.623451e+01 
1.869070e+00 6.453471e+01 
1.903200e+00 6.297320e+01 
1.937740e+00 6.144788e+01 
1.973190e+00 5.993544e+01 
2.007440e+00 5.852538e+01 
2.042160e+00 5.714412e+01 
2.077900e+00 5.576894e+01 
2.112390e+00 5.448829e+01 
2.146220e+00 5.326941e+01 
2.181600e+00 5.203571e+01 
2.216930e+00 5.084464e+01 
2.250760e+00 4.974002e+01 
2.286500e+00 4.860947e+01 
2.321770e+00 4.752937e+01 
2.355950e+00 4.651445e+01 
2.391280e+00 4.549564e+01 
2.426240e+00 4.451836e+01 
2.460670e+00 4.358523e+01 
2.495640e+00 4.266618e+01 
2.531080e+00 4.175941e+01 
2.566220e+00 4.088721e+01 
2.600830e+00 4.005351e+01 
2.635080e+00 3.925228e+01 
2.670340e+00 3.844922e+01 
2.705970e+00 3.766107e+01 
2.740040e+00 3.692861e+01 
2.774520e+00 3.620592e+01 
2.809730e+00 3.548824e+01 
2.844390e+00 3.480169e+01 
2.879960e+00 3.411573e+01 
2.914860e+00 3.346033e+01 
2.949410e+00 3.282915e+01 
2.984440e+00 3.220518e+01 
3.019760e+00 3.159266e+01 
3.054730e+00 3.100266e+01 
3.089030e+00 3.043721e+01 
3.124060e+00 2.987483e+01 
3.159560e+00 2.931933e+01 
3.194710e+00 2.878300e+01 
3.229010e+00 2.827334e+01 
3.263320e+00 2.777497e+01 
3.297930e+00 2.728490e+01 
3.332830e+00 2.680227e+01 
3.368040e+00 2.632716e+01 
3.403300e+00 2.586316e+01 
3.438450e+00 2.541139e+01 
3.473060e+00 2.497776e+01 
3.508440e+00 2.454414e+01 
3.543110e+00 2.412983e+01 
3.577470e+00 2.372808e+01 
3.613040e+00 2.332221e+01 
3.648120e+00 2.293076e+01 
3.682910e+00 2.255172e+01 
3.718050e+00 2.217745e+01 
3.753320e+00 2.181060e+01 
3.787980e+00 2.145821e+01 
3.822290e+00 2.111712e+01 
3.857020e+00 2.077920e+01 
3.891920e+00 2.044721e+01 
3.926650e+00 2.012384e+01 
3.961970e+00 1.980242e+01 
3.997360e+00 1.948738e+01 
4.031670e+00 1.918874e+01 
4.066330e+00 1.889315e+01 
4.101420e+00 1.860057e+01 
4.136200e+00 1.831643e+01 
4.170810e+00 1.803989e+01 
4.206250e+00 1.776235e+01 
4.241580e+00 1.749167e+01 
4.276300e+00 1.723118e+01 
4.310970e+00 1.697646e+01 
4.346120e+00 1.672364e+01 
4.380600e+00 1.648072e+01 
4.414730e+00 1.624523e+01 
4.450350e+00 1.600424e+01 
4.485320e+00 1.577260e+01 
4.519810e+00 1.554863e+01 
4.555430e+00 1.532198e+01 
4.590870e+00 1.510111e+01 
4.625480e+00 1.488973e+01 
4.659910e+00 1.468361e+01 
4.695230e+00 1.447618e+01 
4.729960e+00 1.427624e+01 
4.764450e+00 1.408150e+01 
4.799530e+00 1.388723e+01 
4.834910e+00 1.369513e+01 
4.869700e+00 1.350989e+01 
4.904370e+00 1.332881e+01 
4.939450e+00 1.314909e+01 
4.973940e+00 1.297576e+01 
5.008430e+00 1.280564e+01 
5.043810e+00 1.263436e+01 
5.078840e+00 1.246792e+01 
5.113500e+00 1.230625e+01 
5.148890e+00 1.214438e+01 
5.184210e+00 1.198580e+01 
5.219060e+00 1.183220e+01 
5.253660e+00 1.168248e+01 
5.288570e+00 1.153410e+01 
5.323420e+00 1.138868e+01 
5.358440e+00 1.124521e+01 
5.393590e+00 1.110374e+01 
5.428310e+00 1.096656e+01 
5.462800e+00 1.083269e+01 
5.497640e+00 1.069978e+01 
5.532670e+00 1.056854e+01 
5.567280e+00 1.044111e+01 
5.602000e+00 1.031541e+01 
5.637270e+00 1.019007e+01 
5.672410e+00 1.006734e+01 
5.707020e+00 9.948457e+00 
5.742040e+00 9.830298e+00 
5.777430e+00 9.712897e+00 
5.812210e+00 9.599413e+00 
5.846820e+00 9.488464e+00 
5.881610e+00 9.378767e+00 
5.916510e+00 9.270486e+00 
5.951600e+00 9.163519e+00 
5.986560e+00 9.058717e+00 
6.021830e+00 8.954664e+00 
6.056490e+00 8.854155e+00 
6.091160e+00 8.755290e+00 
6.125830e+00 8.657950e+00 
6.161090e+00 8.560559e+00 
6.195760e+00 8.466431e+00 
6.230420e+00 8.373759e+00 
6.265690e+00 8.280898e+00 
6.300950e+00 8.189689e+00 
6.335620e+00 8.101357e+00 
6.370880e+00 8.012868e+00 
6.405550e+00 7.927332e+00 
6.440220e+00 7.843126e+00 
6.475480e+00 7.758749e+00 
6.510150e+00 7.677057e+00 
6.544810e+00 7.596692e+00 
6.580080e+00 7.516101e+00 
6.614750e+00 7.438027e+00 
6.649410e+00 7.361341e+00 
6.684080e+00 7.285770e+00 
6.719340e+00 7.210007e+00 
6.754010e+00 7.136619e+00 
6.788680e+00 7.064379e+00 
6.823940e+00 6.991939e+00 
6.859800e+00 6.919313e+00 
6.894470e+00 6.850247e+00 
6.929140e+00 6.782188e+00 
6.963800e+00 6.715076e+00 
6.999070e+00 6.647728e+00 
7.033730e+00 6.582595e+00 
7.068400e+00 6.518319e+00 
7.103660e+00 6.453832e+00 
7.138330e+00 6.391355e+00 
7.173600e+00 6.328810e+00 
7.208260e+00 6.268164e+00 
7.243530e+00 6.207269e+00 
7.277600e+00 6.149325e+00 
7.312860e+00 6.090240e+00 
7.348120e+00 6.031933e+00 
7.382790e+00 5.975347e+00 
7.417460e+00 5.919598e+00 
7.452720e+00 5.863688e+00 
7.487390e+00 5.809418e+00 
7.522650e+00 5.754930e+00 
7.557320e+00 5.702155e+00 
7.591990e+00 5.650087e+00 
7.627250e+00 5.597800e+00 
7.662510e+00 5.546175e+00 
7.697180e+00 5.496179e+00 
7.731850e+00 5.446850e+00 
7.766510e+00 5.398141e+00 
7.801180e+00 5.350014e+00 
7.836440e+00 5.301793e+00 
7.871110e+00 5.255036e+00 
7.906380e+00 5.208048e+00 
7.941040e+00 5.162432e+00 
7.976310e+00 5.116632e+00 
8.011570e+00 5.071467e+00 
8.046240e+00 5.027590e+00 
8.080900e+00 4.984244e+00 
8.115570e+00 4.941428e+00 
8.150830e+00 4.898519e+00 
8.185500e+00 4.856826e+00 
8.220770e+00 4.814907e+00 
8.255430e+00 4.774195e+00 
8.290100e+00 4.734067e+00 
8.324770e+00 4.694415e+00 
8.359430e+00 4.655227e+00 
8.394700e+00 4.615808e+00 
8.429960e+00 4.576933e+00 
8.464630e+00 4.539222e+00 
8.499890e+00 4.501305e+00 
8.534560e+00 4.464444e+00 
8.569200e+00 4.428025e+00 
