# Parameters:
# omega_b = 0.022949, omega_m = 0.139016, n_s = 0.862598, h = 60.196850, w = -1.000000, sigma_8 = 0.729921
# z = 1.000000
#
# k[1/Mpc] # P(k):
8.694000e-04 8.771433e+03 
2.077466e-03 1.713596e+04 
3.285532e-03 2.313561e+04 
4.493598e-03 2.744542e+04 
5.701664e-03 3.043086e+04 
6.909730e-03 3.236537e+04 
8.117797e-03 3.351353e+04 
9.325863e-03 3.401116e+04 
1.053393e-02 3.398682e+04 
1.174199e-02 3.355403e+04 
1.295006e-02 3.278306e+04 
1.415813e-02 3.176371e+04 
1.536619e-02 3.057186e+04 
1.657426e-02 2.926649e+04 
1.778233e-02 2.794019e+04 
1.899039e-02 2.669286e+04 
2.019846e-02 2.546215e+04 
2.140652e-02 2.421257e+04 
2.261459e-02 2.298224e+04 
2.382266e-02 2.181174e+04 
2.503072e-02 2.071776e+04 
2.623879e-02 1.970402e+04 
2.744685e-02 1.877066e+04 
2.865492e-02 1.791856e+04 
2.986299e-02 1.714402e+04 
3.100100e-02 1.648197e+04 
3.220400e-02 1.584839e+04 
3.288100e-02 1.552043e+04 
3.424300e-02 1.491641e+04 
3.555100e-02 1.439684e+04 
3.686000e-02 1.392919e+04 
3.795000e-02 1.357278e+04 
3.929100e-02 1.316987e+04 
4.039800e-02 1.286001e+04 
4.164000e-02 1.253100e+04 
4.294400e-02 1.219914e+04 
4.415000e-02 1.190245e+04 
4.542900e-02 1.158974e+04 
4.660900e-02 1.130500e+04 
4.782300e-02 1.100535e+04 
4.892900e-02 1.073203e+04 
5.031200e-02 1.038541e+04 
5.155900e-02 1.006727e+04 
5.238100e-02 9.855970e+03 
5.378200e-02 9.494446e+03 
5.513400e-02 9.144222e+03 
5.627600e-02 8.849634e+03 
5.735300e-02 8.575295e+03 
5.870100e-02 8.238837e+03 
5.988700e-02 7.951955e+03 
6.113500e-02 7.660600e+03 
6.225900e-02 7.408931e+03 
6.340100e-02 7.165212e+03 
6.480200e-02 6.883514e+03 
6.601100e-02 6.656937e+03 
6.725500e-02 6.440195e+03 
6.829100e-02 6.273533e+03 
6.958600e-02 6.080179e+03 
7.071100e-02 5.926839e+03 
7.192300e-02 5.775438e+03 
7.307400e-02 5.644004e+03 
7.412300e-02 5.533780e+03 
7.550400e-02 5.402217e+03 
7.663100e-02 5.303612e+03 
7.791200e-02 5.201609e+03 
7.912700e-02 5.112354e+03 
8.027600e-02 5.032642e+03 
8.138400e-02 4.958949e+03 
8.272200e-02 4.872870e+03 
8.406100e-02 4.788385e+03 
8.534100e-02 4.707137e+03 
8.653800e-02 4.629488e+03 
8.759800e-02 4.559673e+03 
8.900300e-02 4.464771e+03 
9.009000e-02 4.388793e+03 
9.113300e-02 4.313331e+03 
9.239600e-02 4.220767e+03 
9.358000e-02 4.132015e+03 
9.496100e-02 4.026046e+03 
9.608400e-02 3.939891e+03 
9.727500e-02 3.849215e+03 
9.852600e-02 3.753478e+03 
9.973800e-02 3.663005e+03 
1.009000e-01 3.578391e+03 
1.020900e-01 3.494346e+03 
1.034000e-01 3.405485e+03 
1.046000e-01 3.327452e+03 
1.057200e-01 3.258777e+03 
1.069100e-01 3.188815e+03 
1.082500e-01 3.115302e+03 
1.093900e-01 3.056714e+03 
1.105400e-01 3.000416e+03 
1.116900e-01 2.948699e+03 
1.129600e-01 2.894216e+03 
1.142000e-01 2.845234e+03 
1.153300e-01 2.802827e+03 
1.166400e-01 2.756610e+03 
1.177800e-01 2.718691e+03 
1.190000e-01 2.679694e+03 
1.201200e-01 2.645605e+03 
1.213400e-01 2.609505e+03 
1.227100e-01 2.570385e+03 
1.238900e-01 2.537451e+03 
1.250700e-01 2.504909e+03 
1.263200e-01 2.470923e+03 
1.275500e-01 2.437551e+03 
1.287500e-01 2.405211e+03 
1.299900e-01 2.371712e+03 
1.311300e-01 2.340954e+03 
1.323500e-01 2.307782e+03 
1.335900e-01 2.274146e+03 
1.347100e-01 2.243516e+03 
1.359800e-01 2.208997e+03 
1.372100e-01 2.175215e+03 
1.384300e-01 2.142098e+03 
1.395700e-01 2.110933e+03 
1.407700e-01 2.078758e+03 
1.420300e-01 2.044876e+03 
1.432800e-01 2.012045e+03 
1.444500e-01 1.981576e+03 
1.456300e-01 1.951508e+03 
1.468900e-01 1.920304e+03 
1.480500e-01 1.892259e+03 
1.491700e-01 1.865994e+03 
1.503800e-01 1.838537e+03 
1.516400e-01 1.810740e+03 
1.528200e-01 1.786041e+03 
1.540200e-01 1.761430e+03 
1.551900e-01 1.738789e+03 
1.564300e-01 1.715483e+03 
1.576600e-01 1.693282e+03 
1.588700e-01 1.672413e+03 
1.600900e-01 1.651816e+03 
1.612700e-01 1.632990e+03 
1.625400e-01 1.613113e+03 
1.637600e-01 1.594635e+03 
1.649500e-01 1.577088e+03 
1.662200e-01 1.558715e+03 
1.674000e-01 1.541992e+03 
1.685000e-01 1.526668e+03 
1.697500e-01 1.509437e+03 
1.710300e-01 1.492002e+03 
1.722200e-01 1.476084e+03 
1.734400e-01 1.459610e+03 
1.746400e-01 1.443671e+03 
1.758700e-01 1.427471e+03 
1.770900e-01 1.411381e+03 
1.782700e-01 1.396086e+03 
1.794600e-01 1.380692e+03 
1.807000e-01 1.364772e+03 
1.819100e-01 1.349506e+03 
1.830100e-01 1.335662e+03 
1.842200e-01 1.320648e+03 
1.855000e-01 1.305037e+03 
1.867000e-01 1.290574e+03 
1.879200e-01 1.276115e+03 
1.890900e-01 1.262488e+03 
1.902800e-01 1.248917e+03 
1.915200e-01 1.235008e+03 
1.926900e-01 1.222142e+03 
1.939000e-01 1.209192e+03 
1.951700e-01 1.195822e+03 
1.963100e-01 1.184066e+03 
1.975100e-01 1.172027e+03 
1.987800e-01 1.159489e+03 
2.000100e-01 1.147610e+03 
2.012500e-01 1.135980e+03 
2.023400e-01 1.125908e+03 
2.036100e-01 1.114381e+03 
2.048900e-01 1.103079e+03 
2.060400e-01 1.093078e+03 
2.072200e-01 1.082972e+03 
2.084200e-01 1.072947e+03 
2.096900e-01 1.062496e+03 
2.109200e-01 1.052526e+03 
2.121100e-01 1.043043e+03 
2.132700e-01 1.033929e+03 
2.145200e-01 1.024248e+03 
2.157200e-01 1.015072e+03 
2.168800e-01 1.006316e+03 
2.180700e-01 9.974565e+02 
2.193400e-01 9.881060e+02 
2.206000e-01 9.789082e+02 
2.217500e-01 9.706296e+02 
2.229500e-01 9.621071e+02 
2.241400e-01 9.536623e+02 
2.253500e-01 9.451898e+02 
2.264900e-01 9.373134e+02 
2.277100e-01 9.289327e+02 
2.289900e-01 9.201926e+02 
2.301500e-01 9.123800e+02 
2.313600e-01 9.043370e+02 
2.325600e-01 8.963431e+02 
2.337700e-01 8.883900e+02 
2.350000e-01 8.804141e+02 
2.362000e-01 8.726944e+02 
2.374100e-01 8.649632e+02 
2.386500e-01 8.571461e+02 
2.399100e-01 8.493104e+02 
2.410400e-01 8.423218e+02 
2.422500e-01 8.349260e+02 
2.435000e-01 8.273864e+02 
2.447300e-01 8.200659e+02 
2.458700e-01 8.133673e+02 
2.470600e-01 8.064611e+02 
2.483300e-01 7.991859e+02 
2.495600e-01 7.922494e+02 
2.507600e-01 7.855914e+02 
2.519600e-01 7.790162e+02 
2.532200e-01 7.721996e+02 
2.543700e-01 7.661080e+02 
2.555500e-01 7.599675e+02 
2.568000e-01 7.535428e+02 
2.580100e-01 7.474007e+02 
2.592400e-01 7.413128e+02 
2.604100e-01 7.356257e+02 
2.616100e-01 7.298611e+02 
2.628400e-01 7.240230e+02 
2.640600e-01 7.183827e+02 
2.652200e-01 7.131138e+02 
2.664300e-01 7.076805e+02 
2.676500e-01 7.022663e+02 
2.688400e-01 6.971107e+02 
2.700700e-01 6.918834e+02 
2.712400e-01 6.869673e+02 
2.724800e-01 6.818160e+02 
2.736700e-01 6.769688e+02 
2.748800e-01 6.721365e+02 
2.761000e-01 6.673188e+02 
2.773200e-01 6.625550e+02 
2.785400e-01 6.578625e+02 
2.797000e-01 6.534869e+02 
2.808900e-01 6.490459e+02 
2.821400e-01 6.444321e+02 
2.833900e-01 6.398713e+02 
2.845500e-01 6.357127e+02 
2.857800e-01 6.313498e+02 
2.870300e-01 6.269645e+02 
2.882100e-01 6.228691e+02 
2.893900e-01 6.188278e+02 
2.906300e-01 6.146321e+02 
2.918900e-01 6.104149e+02 
2.930500e-01 6.065731e+02 
2.942500e-01 6.026406e+02 
2.954200e-01 5.988504e+02 
2.966500e-01 5.949067e+02 
2.978900e-01 5.909725e+02 
2.990400e-01 5.873609e+02 
3.002700e-01 5.835373e+02 
3.015100e-01 5.797230e+02 
3.026800e-01 5.761603e+02 
3.038500e-01 5.726323e+02 
3.050300e-01 5.691088e+02 
3.062600e-01 5.654730e+02 
3.075000e-01 5.618448e+02 
3.087000e-01 5.583688e+02 
3.099100e-01 5.548984e+02 
3.111200e-01 5.514637e+02 
3.123100e-01 5.481214e+02 
3.135300e-01 5.447281e+02 
3.147300e-01 5.414230e+02 
3.159900e-01 5.379868e+02 
3.171800e-01 5.347772e+02 
3.183700e-01 5.316006e+02 
3.196300e-01 5.282697e+02 
3.208400e-01 5.251022e+02 
3.220300e-01 5.220164e+02 
3.232000e-01 5.190159e+02 
3.244300e-01 5.158932e+02 
3.256700e-01 5.127753e+02 
3.269200e-01 5.096626e+02 
3.280800e-01 5.068008e+02 
3.292500e-01 5.039492e+02 
3.304800e-01 5.009818e+02 
3.317100e-01 4.980421e+02 
3.328900e-01 4.952478e+02 
3.340700e-01 4.924784e+02 
3.353600e-01 4.894902e+02 
3.365300e-01 4.868091e+02 
3.377100e-01 4.841289e+02 
3.389200e-01 4.814051e+02 
3.401600e-01 4.786391e+02 
3.413700e-01 4.759761e+02 
3.425300e-01 4.734535e+02 
3.437700e-01 4.707806e+02 
3.449800e-01 4.681958e+02 
3.461800e-01 4.656548e+02 
3.473600e-01 4.631829e+02 
3.485800e-01 4.606620e+02 
3.498100e-01 4.581429e+02 
3.510200e-01 4.556864e+02 
3.522000e-01 4.533113e+02 
3.533900e-01 4.509363e+02 
3.546400e-01 4.484816e+02 
3.558400e-01 4.461466e+02 
3.570600e-01 4.437929e+02 
3.582700e-01 4.414783e+02 
3.595000e-01 4.391456e+02 
3.607100e-01 4.368806e+02 
3.618900e-01 4.346981e+02 
3.631200e-01 4.324421e+02 
3.643200e-01 4.302595e+02 
3.655500e-01 4.280410e+02 
3.667300e-01 4.259302e+02 
3.679500e-01 4.237852e+02 
3.691900e-01 4.216233e+02 
3.703600e-01 4.196000e+02 
3.715700e-01 4.175244e+02 
3.727700e-01 4.154825e+02 
3.739900e-01 4.134301e+02 
3.752000e-01 4.114228e+02 
3.763900e-01 4.094645e+02 
3.775800e-01 4.075216e+02 
3.788200e-01 4.055133e+02 
3.800300e-01 4.035693e+02 
3.812100e-01 4.016969e+02 
3.824200e-01 3.997976e+02 
3.836100e-01 3.979442e+02 
3.848600e-01 3.960129e+02 
3.860400e-01 3.942039e+02 
3.872400e-01 3.923785e+02 
3.884600e-01 3.905479e+02 
3.896500e-01 3.887801e+02 
3.908700e-01 3.869816e+02 
3.920600e-01 3.852409e+02 
3.933100e-01 3.834264e+02 
3.945300e-01 3.816694e+02 
3.957200e-01 3.799797e+02 
3.969300e-01 3.782776e+02 
3.981700e-01 3.765468e+02 
3.993500e-01 3.749120e+02 
4.094840e-01 3.613796e+02 
4.272360e-01 3.398323e+02 
4.454600e-01 3.200369e+02 
4.630560e-01 3.028041e+02 
4.804610e-01 2.873124e+02 
4.980690e-01 2.730016e+02 
5.159230e-01 2.597248e+02 
5.317440e-01 2.488833e+02 
5.489640e-01 2.379820e+02 
5.671990e-01 2.273687e+02 
5.838690e-01 2.184119e+02 
6.018840e-01 2.094657e+02 
6.202330e-01 2.010696e+02 
6.379250e-01 1.935707e+02 
6.545410e-01 1.870475e+02 
6.714560e-01 1.808417e+02 
6.892080e-01 1.747738e+02 
7.066010e-01 1.692315e+02 
7.240540e-01 1.640226e+02 
7.420450e-01 1.590032e+02 
7.593780e-01 1.544633e+02 
7.764720e-01 1.502407e+02 
7.942840e-01 1.460913e+02 
8.116170e-01 1.422792e+02 
8.288310e-01 1.386939e+02 
8.462240e-01 1.352519e+02 
8.631980e-01 1.320550e+02 
8.810700e-01 1.288487e+02 
8.989410e-01 1.257948e+02 
9.166330e-01 1.229064e+02 
9.345640e-01 1.201078e+02 
9.515980e-01 1.175588e+02 
9.688720e-01 1.150758e+02 
9.865640e-01 1.126302e+02 
1.031870e+00 1.067801e+02 
1.063490e+00 1.030053e+02 
1.097920e+00 9.915135e+01 
1.134370e+00 9.532727e+01 
1.167730e+00 9.203939e+01 
1.203830e+00 8.867710e+01 
1.240470e+00 8.546495e+01 
1.275790e+00 8.253241e+01 
1.309140e+00 7.991136e+01 
1.342970e+00 7.737157e+01 
1.378420e+00 7.484593e+01 
1.413200e+00 7.248276e+01 
1.448110e+00 7.022079e+01 
1.484090e+00 6.800123e+01 
1.518820e+00 6.595495e+01 
1.552880e+00 6.403121e+01 
1.588630e+00 6.210006e+01 
1.623230e+00 6.031260e+01 
1.657720e+00 5.860415e+01 
1.692450e+00 5.695523e+01 
1.726400e+00 5.540386e+01 
1.762200e+00 5.383301e+01 
1.797880e+00 5.233135e+01 
1.833270e+00 5.090011e+01 
1.869070e+00 4.950898e+01 
1.903200e+00 4.823301e+01 
1.937740e+00 4.698900e+01 
1.973190e+00 4.575848e+01 
2.007440e+00 4.461334e+01 
2.042160e+00 4.349357e+01 
2.077900e+00 4.238125e+01 
2.112390e+00 4.134671e+01 
2.146220e+00 4.036463e+01 
2.181600e+00 3.937207e+01 
2.216930e+00 3.841569e+01 
2.250760e+00 3.753029e+01 
2.286500e+00 3.662569e+01 
2.321770e+00 3.576300e+01 
2.355950e+00 3.495354e+01 
2.391280e+00 3.414272e+01 
2.426240e+00 3.336605e+01 
2.460670e+00 3.262560e+01 
2.495640e+00 3.189750e+01 
2.531080e+00 3.118066e+01 
2.566220e+00 3.049213e+01 
2.600830e+00 2.983487e+01 
2.635080e+00 2.920400e+01 
2.670340e+00 2.857286e+01 
2.705970e+00 2.795442e+01 
2.740040e+00 2.738050e+01 
2.774520e+00 2.681520e+01 
2.809730e+00 2.625454e+01 
2.844390e+00 2.571879e+01 
2.879960e+00 2.518427e+01 
2.914860e+00 2.467446e+01 
2.949410e+00 2.418404e+01 
2.984440e+00 2.369983e+01 
3.019760e+00 2.322521e+01 
3.054730e+00 2.276856e+01 
3.089030e+00 2.233160e+01 
3.124060e+00 2.189751e+01 
3.159560e+00 2.146936e+01 
3.194710e+00 2.105649e+01 
3.229010e+00 2.066444e+01 
3.263320e+00 2.028160e+01 
3.297930e+00 1.990554e+01 
3.332830e+00 1.953583e+01 
3.368040e+00 1.917222e+01 
3.403300e+00 1.881741e+01 
3.438450e+00 1.847239e+01 
3.473060e+00 1.814145e+01 
3.508440e+00 1.781113e+01 
3.543110e+00 1.749572e+01 
3.577470e+00 1.719029e+01 
3.613040e+00 1.688196e+01 
3.648120e+00 1.658500e+01 
3.682910e+00 1.629769e+01 
3.718050e+00 1.601431e+01 
3.753320e+00 1.573678e+01 
3.787980e+00 1.547047e+01 
3.822290e+00 1.521292e+01 
3.857020e+00 1.495804e+01 
3.891920e+00 1.470782e+01 
3.926650e+00 1.446436e+01 
3.961970e+00 1.422252e+01 
3.997360e+00 1.398575e+01 
4.031670e+00 1.376145e+01 
4.066330e+00 1.353976e+01 
4.101420e+00 1.332042e+01 
4.136200e+00 1.310768e+01 
4.170810e+00 1.290071e+01 
4.206250e+00 1.269327e+01 
4.241580e+00 1.249108e+01 
4.276300e+00 1.229668e+01 
4.310970e+00 1.210674e+01 
4.346120e+00 1.191835e+01 
4.380600e+00 1.173752e+01 
4.414730e+00 1.156228e+01 
4.450350e+00 1.138317e+01 
4.485320e+00 1.121109e+01 
4.519810e+00 1.104487e+01 
4.555430e+00 1.087679e+01 
4.590870e+00 1.071310e+01 
4.625480e+00 1.055658e+01 
4.659910e+00 1.040401e+01 
4.695230e+00 1.025067e+01 
4.729960e+00 1.010293e+01 
4.764450e+00 9.959143e+00 
4.799530e+00 9.815820e+00 
4.834910e+00 9.674145e+00 
4.869700e+00 9.537698e+00 
4.904370e+00 9.404372e+00 
4.939450e+00 9.272121e+00 
4.973940e+00 9.144704e+00 
5.008430e+00 9.019688e+00 
5.043810e+00 8.893923e+00 
5.078840e+00 8.771794e+00 
5.113500e+00 8.653212e+00 
5.148890e+00 8.534627e+00 
5.184210e+00 8.418501e+00 
5.219060e+00 8.306076e+00 
5.253660e+00 8.196601e+00 
5.288570e+00 8.088140e+00 
5.323420e+00 7.981923e+00 
5.358440e+00 7.877221e+00 
5.393590e+00 7.774012e+00 
5.428310e+00 7.674026e+00 
5.462800e+00 7.576516e+00 
5.497640e+00 7.479729e+00 
5.532670e+00 7.384255e+00 
5.567280e+00 7.291601e+00 
5.602000e+00 7.200239e+00 
5.637270e+00 7.109233e+00 
5.672410e+00 7.020164e+00 
5.707020e+00 6.933919e+00 
5.742040e+00 6.848290e+00 
5.777430e+00 6.763251e+00 
5.812210e+00 6.681072e+00 
5.846820e+00 6.600822e+00 
5.881610e+00 6.521519e+00 
5.916510e+00 6.443262e+00 
5.951600e+00 6.366030e+00 
5.986560e+00 6.290407e+00 
6.021830e+00 6.215346e+00 
6.056490e+00 6.142900e+00 
6.091160e+00 6.071691e+00 
6.125830e+00 6.001598e+00 
6.161090e+00 5.931515e+00 
6.195760e+00 5.863856e+00 
6.230420e+00 5.797259e+00 
6.265690e+00 5.730548e+00 
6.300950e+00 5.665110e+00 
6.335620e+00 5.601752e+00 
6.370880e+00 5.538298e+00 
6.405550e+00 5.477030e+00 
6.440220e+00 5.416751e+00 
6.475480e+00 5.356365e+00 
6.510150e+00 5.297937e+00 
6.544810e+00 5.240523e+00 
6.580080e+00 5.182962e+00 
6.614750e+00 5.127211e+00 
6.649410e+00 5.072523e+00 
6.684080e+00 5.018654e+00 
6.719340e+00 4.964660e+00 
6.754010e+00 4.912394e+00 
6.788680e+00 4.861011e+00 
6.823940e+00 4.809498e+00 
6.859800e+00 4.757864e+00 
6.894470e+00 4.708820e+00 
6.929140e+00 4.660520e+00 
6.963800e+00 4.612901e+00 
6.999070e+00 4.565130e+00 
7.033730e+00 4.518999e+00 
7.068400e+00 4.473485e+00 
7.103660e+00 4.427830e+00 
7.138330e+00 4.383631e+00 
7.173600e+00 4.339443e+00 
7.208260e+00 4.296605e+00 
7.243530e+00 4.253598e+00 
7.277600e+00 4.212719e+00 
7.312860e+00 4.171075e+00 
7.348120e+00 4.129986e+00 
7.382790e+00 4.090117e+00 
7.417460e+00 4.050886e+00 
7.452720e+00 4.011570e+00 
7.487390e+00 3.973414e+00 
7.522650e+00 3.935111e+00 
7.557320e+00 3.898067e+00 
7.591990e+00 3.861544e+00 
7.627250e+00 3.824873e+00 
7.662510e+00 3.788672e+00 
7.697180e+00 3.753662e+00 
7.731850e+00 3.719141e+00 
7.766510e+00 3.685059e+00 
7.801180e+00 3.651388e+00 
7.836440e+00 3.617697e+00 
7.871110e+00 3.585058e+00 
7.906380e+00 3.552262e+00 
7.941040e+00 3.520427e+00 
7.976310e+00 3.488497e+00 
8.011570e+00 3.457047e+00 
8.046240e+00 3.426498e+00 
8.080900e+00 3.396321e+00 
8.115570e+00 3.366530e+00 
8.150830e+00 3.336724e+00 
8.185500e+00 3.307766e+00 
8.220770e+00 3.278654e+00 
8.255430e+00 3.250383e+00 
8.290100e+00 3.222574e+00 
8.324770e+00 3.195104e+00 
8.359430e+00 3.167957e+00 
8.394700e+00 3.140653e+00 
8.429960e+00 3.113756e+00 
8.464630e+00 3.087696e+00 
8.499890e+00 3.061494e+00 
8.534560e+00 3.036025e+00 
8.569200e+00 3.010863e+00 
