# Parameters:
# omega_b = 0.023169, omega_m = 0.126890, n_s = 0.964961, h = 72.716535, w = -1.000000, sigma_8 = 0.753858
# z = 1.000000
#
# k[1/Mpc] # P(k):
8.694000e-04 7.079559e+03 
2.077466e-03 1.496460e+04 
3.285532e-03 2.094231e+04 
4.493598e-03 2.538576e+04 
5.701664e-03 2.853451e+04 
6.909730e-03 3.062816e+04 
8.117797e-03 3.192169e+04 
9.325863e-03 3.254413e+04 
1.053393e-02 3.261816e+04 
1.174199e-02 3.225316e+04 
1.295006e-02 3.152202e+04 
1.415813e-02 3.052088e+04 
1.536619e-02 2.932914e+04 
1.657426e-02 2.800107e+04 
1.778233e-02 2.657670e+04 
1.899039e-02 2.513294e+04 
2.019846e-02 2.372560e+04 
2.140652e-02 2.238461e+04 
2.261459e-02 2.111668e+04 
2.382266e-02 1.993693e+04 
2.503072e-02 1.885536e+04 
2.623879e-02 1.787339e+04 
2.744685e-02 1.699185e+04 
2.865492e-02 1.620617e+04 
2.986299e-02 1.550970e+04 
3.100100e-02 1.493141e+04 
3.220400e-02 1.439337e+04 
3.288100e-02 1.412224e+04 
3.424300e-02 1.363474e+04 
3.555100e-02 1.322673e+04 
3.686000e-02 1.286812e+04 
3.795000e-02 1.259851e+04 
3.929100e-02 1.229517e+04 
4.039800e-02 1.205943e+04 
4.164000e-02 1.180423e+04 
4.294400e-02 1.153521e+04 
4.415000e-02 1.128562e+04 
4.542900e-02 1.100733e+04 
4.660900e-02 1.074397e+04 
4.782300e-02 1.045195e+04 
4.892900e-02 1.017775e+04 
5.031200e-02 9.819681e+03 
5.155900e-02 9.483225e+03 
5.238100e-02 9.257308e+03 
5.378200e-02 8.868244e+03 
5.513400e-02 8.490854e+03 
5.627600e-02 8.175094e+03 
5.735300e-02 7.883746e+03 
5.870100e-02 7.531457e+03 
5.988700e-02 7.236470e+03 
6.113500e-02 6.943041e+03 
6.225900e-02 6.695835e+03 
6.340100e-02 6.462688e+03 
6.480200e-02 6.200456e+03 
6.601100e-02 5.997575e+03 
6.725500e-02 5.810290e+03 
6.829100e-02 5.672188e+03 
6.958600e-02 5.516860e+03 
7.071100e-02 5.398794e+03 
7.192300e-02 5.286351e+03 
7.307400e-02 5.192040e+03 
7.412300e-02 5.115108e+03 
7.550400e-02 5.025687e+03 
7.663100e-02 4.959423e+03 
7.791200e-02 4.890634e+03 
7.912700e-02 4.828521e+03 
8.027600e-02 4.770603e+03 
8.138400e-02 4.714419e+03 
8.272200e-02 4.644522e+03 
8.406100e-02 4.571011e+03 
8.534100e-02 4.494746e+03 
8.653800e-02 4.417710e+03 
8.759800e-02 4.346271e+03 
8.900300e-02 4.246275e+03 
9.009000e-02 4.164432e+03 
9.113300e-02 4.082266e+03 
9.239600e-02 3.981097e+03 
9.358000e-02 3.884018e+03 
9.496100e-02 3.768787e+03 
9.608400e-02 3.675877e+03 
9.727500e-02 3.578810e+03 
9.852600e-02 3.478411e+03 
9.973800e-02 3.384803e+03 
1.009000e-01 3.298307e+03 
1.020900e-01 3.215204e+03 
1.034000e-01 3.128857e+03 
1.046000e-01 3.054604e+03 
1.057200e-01 2.992062e+03 
1.069100e-01 2.929394e+03 
1.082500e-01 2.866620e+03 
1.093900e-01 2.818469e+03 
1.105400e-01 2.773305e+03 
1.116900e-01 2.734218e+03 
1.129600e-01 2.693764e+03 
1.142000e-01 2.659090e+03 
1.153300e-01 2.629392e+03 
1.166400e-01 2.597561e+03 
1.177800e-01 2.571161e+03 
1.190000e-01 2.543878e+03 
1.201200e-01 2.518553e+03 
1.213400e-01 2.491466e+03 
1.227100e-01 2.458937e+03 
1.238900e-01 2.430799e+03 
1.250700e-01 2.400548e+03 
1.263200e-01 2.368028e+03 
1.275500e-01 2.334060e+03 
1.287500e-01 2.300314e+03 
1.299900e-01 2.264076e+03 
1.311300e-01 2.230419e+03 
1.323500e-01 2.193558e+03 
1.335900e-01 2.156249e+03 
1.347100e-01 2.122346e+03 
1.359800e-01 2.084495e+03 
1.372100e-01 2.048113e+03 
1.384300e-01 2.012894e+03 
1.395700e-01 1.980745e+03 
1.407700e-01 1.947731e+03 
1.420300e-01 1.914529e+03 
1.432800e-01 1.882370e+03 
1.444500e-01 1.854055e+03 
1.456300e-01 1.826112e+03 
1.468900e-01 1.798071e+03 
1.480500e-01 1.773148e+03 
1.491700e-01 1.750179e+03 
1.503800e-01 1.726648e+03 
1.516400e-01 1.702906e+03 
1.528200e-01 1.682221e+03 
1.540200e-01 1.661594e+03 
1.551900e-01 1.642747e+03 
1.564300e-01 1.623370e+03 
1.576600e-01 1.604840e+03 
1.588700e-01 1.587341e+03 
1.600900e-01 1.570042e+03 
1.612700e-01 1.553859e+03 
1.625400e-01 1.536765e+03 
1.637600e-01 1.520530e+03 
1.649500e-01 1.504908e+03 
1.662200e-01 1.488458e+03 
1.674000e-01 1.472980e+03 
1.685000e-01 1.458795e+03 
1.697500e-01 1.442570e+03 
1.710300e-01 1.425880e+03 
1.722200e-01 1.410644e+03 
1.734400e-01 1.394482e+03 
1.746400e-01 1.378832e+03 
1.758700e-01 1.362861e+03 
1.770900e-01 1.346867e+03 
1.782700e-01 1.331667e+03 
1.794600e-01 1.316355e+03 
1.807000e-01 1.300514e+03 
1.819100e-01 1.285328e+03 
1.830100e-01 1.271659e+03 
1.842200e-01 1.256856e+03 
1.855000e-01 1.241476e+03 
1.867000e-01 1.227448e+03 
1.879200e-01 1.213425e+03 
1.890900e-01 1.200253e+03 
1.902800e-01 1.187352e+03 
1.915200e-01 1.174129e+03 
1.926900e-01 1.161955e+03 
1.939000e-01 1.149888e+03 
1.951700e-01 1.137429e+03 
1.963100e-01 1.126521e+03 
1.975100e-01 1.115480e+03 
1.987800e-01 1.103980e+03 
2.000100e-01 1.093112e+03 
2.012500e-01 1.082542e+03 
2.023400e-01 1.073387e+03 
2.036100e-01 1.062909e+03 
2.048900e-01 1.052644e+03 
2.060400e-01 1.043559e+03 
2.072200e-01 1.034372e+03 
2.084200e-01 1.025208e+03 
2.096900e-01 1.015653e+03 
2.109200e-01 1.006537e+03 
2.121100e-01 9.977789e+02 
2.132700e-01 9.893567e+02 
2.145200e-01 9.804093e+02 
2.157200e-01 9.718702e+02 
2.168800e-01 9.636957e+02 
2.180700e-01 9.554237e+02 
2.193400e-01 9.466727e+02 
2.206000e-01 9.380276e+02 
2.217500e-01 9.302458e+02 
2.229500e-01 9.222342e+02 
2.241400e-01 9.142892e+02 
2.253500e-01 9.063173e+02 
2.264900e-01 8.989058e+02 
2.277100e-01 8.910414e+02 
2.289900e-01 8.828636e+02 
2.301500e-01 8.755527e+02 
2.313600e-01 8.680261e+02 
2.325600e-01 8.606256e+02 
2.337700e-01 8.532619e+02 
2.350000e-01 8.458758e+02 
2.362000e-01 8.387705e+02 
2.374100e-01 8.317059e+02 
2.386500e-01 8.245611e+02 
2.399100e-01 8.173980e+02 
2.410400e-01 8.110834e+02 
2.422500e-01 8.044089e+02 
2.435000e-01 7.976027e+02 
2.447300e-01 7.910053e+02 
2.458700e-01 7.850183e+02 
2.470600e-01 7.788438e+02 
2.483300e-01 7.723375e+02 
2.495600e-01 7.661452e+02 
2.507600e-01 7.602177e+02 
2.519600e-01 7.543620e+02 
2.532200e-01 7.482894e+02 
2.543700e-01 7.428583e+02 
2.555500e-01 7.373802e+02 
2.568000e-01 7.316468e+02 
2.580100e-01 7.261639e+02 
2.592400e-01 7.207037e+02 
2.604100e-01 7.155910e+02 
2.616100e-01 7.104072e+02 
2.628400e-01 7.051559e+02 
2.640600e-01 7.000427e+02 
2.652200e-01 6.952494e+02 
2.664300e-01 6.903057e+02 
2.676500e-01 6.853782e+02 
2.688400e-01 6.806486e+02 
2.700700e-01 6.758292e+02 
2.712400e-01 6.712960e+02 
2.724800e-01 6.665451e+02 
2.736700e-01 6.620465e+02 
2.748800e-01 6.575325e+02 
2.761000e-01 6.530316e+02 
2.773200e-01 6.485806e+02 
2.785400e-01 6.441814e+02 
2.797000e-01 6.400491e+02 
2.808900e-01 6.358546e+02 
2.821400e-01 6.314965e+02 
2.833900e-01 6.271866e+02 
2.845500e-01 6.232271e+02 
2.857800e-01 6.190728e+02 
2.870300e-01 6.148968e+02 
2.882100e-01 6.109965e+02 
2.893900e-01 6.071346e+02 
2.906300e-01 6.031181e+02 
2.918900e-01 5.990807e+02 
2.930500e-01 5.954023e+02 
2.942500e-01 5.916347e+02 
2.954200e-01 5.879954e+02 
2.966500e-01 5.842084e+02 
2.978900e-01 5.804306e+02 
2.990400e-01 5.769621e+02 
3.002700e-01 5.732875e+02 
3.015100e-01 5.696202e+02 
3.026800e-01 5.661946e+02 
3.038500e-01 5.628023e+02 
3.050300e-01 5.594142e+02 
3.062600e-01 5.559188e+02 
3.075000e-01 5.524306e+02 
3.087000e-01 5.490885e+02 
3.099100e-01 5.457516e+02 
3.111200e-01 5.424501e+02 
3.123100e-01 5.392390e+02 
3.135300e-01 5.359789e+02 
3.147300e-01 5.328033e+02 
3.159900e-01 5.295015e+02 
3.171800e-01 5.264195e+02 
3.183700e-01 5.233705e+02 
3.196300e-01 5.201732e+02 
3.208400e-01 5.171325e+02 
3.220300e-01 5.141701e+02 
3.232000e-01 5.112923e+02 
3.244300e-01 5.082982e+02 
3.256700e-01 5.053085e+02 
3.269200e-01 5.023235e+02 
3.280800e-01 4.995790e+02 
3.292500e-01 4.968468e+02 
3.304800e-01 4.940042e+02 
3.317100e-01 4.911881e+02 
3.328900e-01 4.885110e+02 
3.340700e-01 4.858576e+02 
3.353600e-01 4.829959e+02 
3.365300e-01 4.804287e+02 
3.377100e-01 4.778622e+02 
3.389200e-01 4.752537e+02 
3.401600e-01 4.726047e+02 
3.413700e-01 4.700549e+02 
3.425300e-01 4.676399e+02 
3.437700e-01 4.650809e+02 
3.449800e-01 4.626060e+02 
3.461800e-01 4.601730e+02 
3.473600e-01 4.578058e+02 
3.485800e-01 4.553913e+02 
3.498100e-01 4.529784e+02 
3.510200e-01 4.506253e+02 
3.522000e-01 4.483500e+02 
3.533900e-01 4.460747e+02 
3.546400e-01 4.437217e+02 
3.558400e-01 4.414831e+02 
3.570600e-01 4.392265e+02 
3.582700e-01 4.370074e+02 
3.595000e-01 4.347707e+02 
3.607100e-01 4.325975e+02 
3.618900e-01 4.305023e+02 
3.631200e-01 4.283365e+02 
3.643200e-01 4.262410e+02 
3.655500e-01 4.241110e+02 
3.667300e-01 4.220842e+02 
3.679500e-01 4.200216e+02 
3.691900e-01 4.179426e+02 
3.703600e-01 4.159968e+02 
3.715700e-01 4.140005e+02 
3.727700e-01 4.120366e+02 
3.739900e-01 4.100613e+02 
3.752000e-01 4.081274e+02 
3.763900e-01 4.062406e+02 
3.775800e-01 4.043685e+02 
3.788200e-01 4.024333e+02 
3.800300e-01 4.005601e+02 
3.812100e-01 3.987536e+02 
3.824200e-01 3.969195e+02 
3.836100e-01 3.951298e+02 
3.848600e-01 3.932646e+02 
3.860400e-01 3.915176e+02 
3.872400e-01 3.897546e+02 
3.884600e-01 3.879841e+02 
3.896500e-01 3.862735e+02 
3.908700e-01 3.845331e+02 
3.920600e-01 3.828485e+02 
3.933100e-01 3.810925e+02 
3.945300e-01 3.793920e+02 
3.957200e-01 3.777538e+02 
3.969300e-01 3.761028e+02 
3.981700e-01 3.744238e+02 
3.993500e-01 3.728380e+02 
4.094840e-01 3.596954e+02 
4.272360e-01 3.386944e+02 
4.454600e-01 3.193509e+02 
4.630560e-01 3.024866e+02 
4.804610e-01 2.873165e+02 
4.980690e-01 2.732996e+02 
5.159230e-01 2.602912e+02 
5.317440e-01 2.496640e+02 
5.489640e-01 2.389699e+02 
5.671990e-01 2.285448e+02 
5.838690e-01 2.197340e+02 
6.018840e-01 2.109180e+02 
6.202330e-01 2.026258e+02 
6.379250e-01 1.952069e+02 
6.545410e-01 1.887378e+02 
6.714560e-01 1.825739e+02 
6.892080e-01 1.765361e+02 
7.066010e-01 1.710125e+02 
7.240540e-01 1.658154e+02 
7.420450e-01 1.608010e+02 
7.593780e-01 1.562621e+02 
7.764720e-01 1.520386e+02 
7.942840e-01 1.478871e+02 
8.116170e-01 1.440727e+02 
8.288310e-01 1.404860e+02 
8.462240e-01 1.370440e+02 
8.631980e-01 1.338489e+02 
8.810700e-01 1.306466e+02 
8.989410e-01 1.275990e+02 
9.166330e-01 1.247193e+02 
9.345640e-01 1.219321e+02 
9.515980e-01 1.193964e+02 
9.688720e-01 1.169290e+02 
9.865640e-01 1.145022e+02 
1.031870e+00 1.087066e+02 
1.063490e+00 1.049768e+02 
1.097920e+00 1.011770e+02 
1.134370e+00 9.741241e+01 
1.167730e+00 9.418148e+01 
1.203830e+00 9.088231e+01 
1.240470e+00 8.773329e+01 
1.275790e+00 8.486156e+01 
1.309140e+00 8.229621e+01 
1.342970e+00 7.981141e+01 
1.378420e+00 7.734077e+01 
1.413200e+00 7.502919e+01 
1.448110e+00 7.281594e+01 
1.484090e+00 7.064337e+01 
1.518820e+00 6.863921e+01 
1.552880e+00 6.675393e+01 
1.588630e+00 6.485964e+01 
1.623230e+00 6.310474e+01 
1.657720e+00 6.142595e+01 
1.692450e+00 5.980385e+01 
1.726400e+00 5.827579e+01 
1.762200e+00 5.672662e+01 
1.797880e+00 5.524375e+01 
1.833270e+00 5.382872e+01 
1.869070e+00 5.245106e+01 
1.903200e+00 5.118572e+01 
1.937740e+00 4.995051e+01 
1.973190e+00 4.872667e+01 
2.007440e+00 4.758603e+01 
2.042160e+00 4.646888e+01 
2.077900e+00 4.535739e+01 
2.112390e+00 4.432227e+01 
2.146220e+00 4.333784e+01 
2.181600e+00 4.234134e+01 
2.216930e+00 4.137955e+01 
2.250760e+00 4.048777e+01 
2.286500e+00 3.957524e+01 
2.321770e+00 3.870358e+01 
2.355950e+00 3.788442e+01 
2.391280e+00 3.706231e+01 
2.426240e+00 3.627359e+01 
2.460670e+00 3.552052e+01 
2.495640e+00 3.477893e+01 
2.531080e+00 3.404734e+01 
2.566220e+00 3.334354e+01 
2.600830e+00 3.267071e+01 
2.635080e+00 3.202396e+01 
2.670340e+00 3.137562e+01 
2.705970e+00 3.073935e+01 
2.740040e+00 3.014806e+01 
2.774520e+00 2.956468e+01 
2.809730e+00 2.898510e+01 
2.844390e+00 2.843051e+01 
2.879960e+00 2.787629e+01 
2.914860e+00 2.734677e+01 
2.949410e+00 2.683673e+01 
2.984440e+00 2.633227e+01 
3.019760e+00 2.583707e+01 
3.054730e+00 2.536005e+01 
3.089030e+00 2.490261e+01 
3.124060e+00 2.444764e+01 
3.159560e+00 2.399823e+01 
3.194710e+00 2.356411e+01 
3.229010e+00 2.315147e+01 
3.263320e+00 2.274772e+01 
3.297930e+00 2.235070e+01 
3.332830e+00 2.195974e+01 
3.368040e+00 2.157468e+01 
3.403300e+00 2.119848e+01 
3.438450e+00 2.083202e+01 
3.473060e+00 2.048021e+01 
3.508440e+00 2.012832e+01 
3.543110e+00 1.979204e+01 
3.577470e+00 1.946578e+01 
3.613040e+00 1.913612e+01 
3.648120e+00 1.881811e+01 
3.682910e+00 1.851009e+01 
3.718050e+00 1.820582e+01 
3.753320e+00 1.790750e+01 
3.787980e+00 1.762082e+01 
3.822290e+00 1.734326e+01 
3.857020e+00 1.706817e+01 
3.891920e+00 1.679783e+01 
3.926650e+00 1.653441e+01 
3.961970e+00 1.627251e+01 
3.997360e+00 1.601569e+01 
4.031670e+00 1.577221e+01 
4.066330e+00 1.553111e+01 
4.101420e+00 1.529246e+01 
4.136200e+00 1.506055e+01 
4.170810e+00 1.483483e+01 
4.206250e+00 1.460820e+01 
4.241580e+00 1.438714e+01 
4.276300e+00 1.417430e+01 
4.310970e+00 1.396613e+01 
4.346120e+00 1.375945e+01 
4.380600e+00 1.356079e+01 
4.414730e+00 1.336819e+01 
4.450350e+00 1.317096e+01 
4.485320e+00 1.298138e+01 
4.519810e+00 1.279800e+01 
4.555430e+00 1.261239e+01 
4.590870e+00 1.243147e+01 
4.625480e+00 1.225824e+01 
4.659910e+00 1.208933e+01 
4.695230e+00 1.191925e+01 
4.729960e+00 1.175529e+01 
4.764450e+00 1.159556e+01 
4.799530e+00 1.143615e+01 
4.834910e+00 1.127852e+01 
4.869700e+00 1.112645e+01 
4.904370e+00 1.097777e+01 
4.939450e+00 1.083018e+01 
4.973940e+00 1.068779e+01 
5.008430e+00 1.054803e+01 
5.043810e+00 1.040725e+01 
5.078840e+00 1.027042e+01 
5.113500e+00 1.013753e+01 
5.148890e+00 1.000439e+01 
5.184210e+00 9.873963e+00 
5.219060e+00 9.747604e+00 
5.253660e+00 9.624391e+00 
5.288570e+00 9.502279e+00 
5.323420e+00 9.382574e+00 
5.358440e+00 9.264449e+00 
5.393590e+00 9.147970e+00 
5.428310e+00 9.034989e+00 
5.462800e+00 8.924716e+00 
5.497640e+00 8.815226e+00 
5.532670e+00 8.707078e+00 
5.567280e+00 8.602056e+00 
5.602000e+00 8.498468e+00 
5.637270e+00 8.395136e+00 
5.672410e+00 8.293948e+00 
5.707020e+00 8.195940e+00 
5.742040e+00 8.098490e+00 
5.777430e+00 8.001660e+00 
5.812210e+00 7.908061e+00 
5.846820e+00 7.816531e+00 
5.881610e+00 7.726030e+00 
5.916510e+00 7.636698e+00 
5.951600e+00 7.548429e+00 
5.986560e+00 7.461938e+00 
6.021830e+00 7.376067e+00 
6.056490e+00 7.293108e+00 
6.091160e+00 7.211495e+00 
6.125830e+00 7.131141e+00 
6.161090e+00 7.050743e+00 
6.195760e+00 6.973029e+00 
6.230420e+00 6.896517e+00 
6.265690e+00 6.819851e+00 
6.300950e+00 6.744530e+00 
6.335620e+00 6.671587e+00 
6.370880e+00 6.598515e+00 
6.405550e+00 6.527877e+00 
6.440220e+00 6.458335e+00 
6.475480e+00 6.388655e+00 
6.510150e+00 6.321189e+00 
6.544810e+00 6.254813e+00 
6.580080e+00 6.188252e+00 
6.614750e+00 6.123771e+00 
6.649410e+00 6.060434e+00 
6.684080e+00 5.998019e+00 
6.719340e+00 5.935447e+00 
6.754010e+00 5.874838e+00 
6.788680e+00 5.815179e+00 
6.823940e+00 5.755356e+00 
6.859800e+00 5.695380e+00 
6.894470e+00 5.638346e+00 
6.929140e+00 5.582145e+00 
6.963800e+00 5.526727e+00 
6.999070e+00 5.471116e+00 
7.033730e+00 5.417334e+00 
7.068400e+00 5.364261e+00 
7.103660e+00 5.311015e+00 
7.138330e+00 5.259433e+00 
7.173600e+00 5.207802e+00 
7.208260e+00 5.157740e+00 
7.243530e+00 5.107473e+00 
7.277600e+00 5.059648e+00 
7.312860e+00 5.010885e+00 
7.348120e+00 4.962765e+00 
7.382790e+00 4.916066e+00 
7.417460e+00 4.870065e+00 
7.452720e+00 4.823935e+00 
7.487390e+00 4.779159e+00 
7.522650e+00 4.734204e+00 
7.557320e+00 4.690673e+00 
7.591990e+00 4.647728e+00 
7.627250e+00 4.604604e+00 
7.662510e+00 4.562027e+00 
7.697180e+00 4.520801e+00 
7.731850e+00 4.480129e+00 
7.766510e+00 4.439969e+00 
7.801180e+00 4.400288e+00 
7.836440e+00 4.360541e+00 
7.871110e+00 4.322006e+00 
7.906380e+00 4.283282e+00 
7.941040e+00 4.245690e+00 
7.976310e+00 4.207952e+00 
8.011570e+00 4.170749e+00 
8.046240e+00 4.134606e+00 
8.080900e+00 4.098901e+00 
8.115570e+00 4.063635e+00 
8.150830e+00 4.028306e+00 
8.185500e+00 3.993977e+00 
8.220770e+00 3.959464e+00 
8.255430e+00 3.925943e+00 
8.290100e+00 3.892920e+00 
8.324770e+00 3.860290e+00 
8.359430e+00 3.828042e+00 
8.394700e+00 3.795604e+00 
8.429960e+00 3.763622e+00 
8.464630e+00 3.732608e+00 
8.499890e+00 3.701423e+00 
8.534560e+00 3.671107e+00 
8.569200e+00 3.641154e+00 
