# Parameters:
# omega_b = 0.022319, omega_m = 0.128268, n_s = 0.994882, h = 77.440945, w = -1.000000, sigma_8 = 0.890000
# z = 1.000000
#
# k[1/Mpc] # P(k):
8.694000e-04 7.644955e+03 
2.077466e-03 1.657949e+04 
3.285532e-03 2.356504e+04 
4.493598e-03 2.887583e+04 
5.701664e-03 3.274738e+04 
6.909730e-03 3.541598e+04 
8.117797e-03 3.715036e+04 
9.325863e-03 3.808901e+04 
1.053393e-02 3.837028e+04 
1.174199e-02 3.812159e+04 
1.295006e-02 3.742641e+04 
1.415813e-02 3.639603e+04 
1.536619e-02 3.512355e+04 
1.657426e-02 3.366943e+04 
1.778233e-02 3.206024e+04 
1.899039e-02 3.035963e+04 
2.019846e-02 2.867132e+04 
2.140652e-02 2.707251e+04 
2.261459e-02 2.556791e+04 
2.382266e-02 2.416762e+04 
2.503072e-02 2.288306e+04 
2.623879e-02 2.171686e+04 
2.744685e-02 2.067136e+04 
2.865492e-02 1.974159e+04 
2.986299e-02 1.891989e+04 
3.100100e-02 1.824083e+04 
3.220400e-02 1.761255e+04 
3.288100e-02 1.729786e+04 
3.424300e-02 1.673566e+04 
3.555100e-02 1.626905e+04 
3.686000e-02 1.586237e+04 
3.795000e-02 1.555854e+04 
3.929100e-02 1.521813e+04 
4.039800e-02 1.495341e+04 
4.164000e-02 1.466556e+04 
4.294400e-02 1.435857e+04 
4.415000e-02 1.407080e+04 
4.542900e-02 1.374477e+04 
4.660900e-02 1.343277e+04 
4.782300e-02 1.308181e+04 
4.892900e-02 1.274953e+04 
5.031200e-02 1.231197e+04 
5.155900e-02 1.189787e+04 
5.238100e-02 1.161875e+04 
5.378200e-02 1.113664e+04 
5.513400e-02 1.066783e+04 
5.627600e-02 1.027516e+04 
5.735300e-02 9.912806e+03 
5.870100e-02 9.474864e+03 
5.988700e-02 9.108482e+03 
6.113500e-02 8.744482e+03 
6.225900e-02 8.438307e+03 
6.340100e-02 8.150076e+03 
6.480200e-02 7.826429e+03 
6.601100e-02 7.576629e+03 
6.725500e-02 7.346564e+03 
6.829100e-02 7.177357e+03 
6.958600e-02 6.987365e+03 
7.071100e-02 6.843359e+03 
7.192300e-02 6.706568e+03 
7.307400e-02 6.592169e+03 
7.412300e-02 6.499136e+03 
7.550400e-02 6.391444e+03 
7.663100e-02 6.311903e+03 
7.791200e-02 6.229734e+03 
7.912700e-02 6.155804e+03 
8.027600e-02 6.086956e+03 
8.138400e-02 6.020174e+03 
8.272200e-02 5.936980e+03 
8.406100e-02 5.849211e+03 
8.534100e-02 5.757639e+03 
8.653800e-02 5.664557e+03 
8.759800e-02 5.577815e+03 
8.900300e-02 5.455684e+03 
9.009000e-02 5.355078e+03 
9.113300e-02 5.253451e+03 
9.239600e-02 5.127782e+03 
9.358000e-02 5.006570e+03 
9.496100e-02 4.861861e+03 
9.608400e-02 4.744756e+03 
9.727500e-02 4.622083e+03 
9.852600e-02 4.494648e+03 
9.973800e-02 4.375653e+03 
1.009000e-01 4.265551e+03 
1.020900e-01 4.159640e+03 
1.034000e-01 4.049600e+03 
1.046000e-01 3.954993e+03 
1.057200e-01 3.875495e+03 
1.069100e-01 3.795921e+03 
1.082500e-01 3.716539e+03 
1.093900e-01 3.655915e+03 
1.105400e-01 3.599217e+03 
1.116900e-01 3.550582e+03 
1.129600e-01 3.500408e+03 
1.142000e-01 3.457826e+03 
1.153300e-01 3.421501e+03 
1.166400e-01 3.382805e+03 
1.177800e-01 3.350816e+03 
1.190000e-01 3.317813e+03 
1.201200e-01 3.287070e+03 
1.213400e-01 3.254175e+03 
1.227100e-01 3.214274e+03 
1.238900e-01 3.179660e+03 
1.250700e-01 3.142116e+03 
1.263200e-01 3.101620e+03 
1.275500e-01 3.059029e+03 
1.287500e-01 3.016591e+03 
1.299900e-01 2.970830e+03 
1.311300e-01 2.928246e+03 
1.323500e-01 2.881490e+03 
1.335900e-01 2.834127e+03 
1.347100e-01 2.791042e+03 
1.359800e-01 2.742942e+03 
1.372100e-01 2.696724e+03 
1.384300e-01 2.651996e+03 
1.395700e-01 2.611213e+03 
1.407700e-01 2.569331e+03 
1.420300e-01 2.527319e+03 
1.432800e-01 2.486610e+03 
1.444500e-01 2.450881e+03 
1.456300e-01 2.415607e+03 
1.468900e-01 2.380274e+03 
1.480500e-01 2.348879e+03 
1.491700e-01 2.319965e+03 
1.503800e-01 2.290368e+03 
1.516400e-01 2.260500e+03 
1.528200e-01 2.234476e+03 
1.540200e-01 2.208522e+03 
1.551900e-01 2.184784e+03 
1.564300e-01 2.160368e+03 
1.576600e-01 2.136997e+03 
1.588700e-01 2.114896e+03 
1.600900e-01 2.093041e+03 
1.612700e-01 2.072535e+03 
1.625400e-01 2.050873e+03 
1.637600e-01 2.030259e+03 
1.649500e-01 2.010399e+03 
1.662200e-01 1.989478e+03 
1.674000e-01 1.969766e+03 
1.685000e-01 1.951698e+03 
1.697500e-01 1.931017e+03 
1.710300e-01 1.909728e+03 
1.722200e-01 1.890289e+03 
1.734400e-01 1.869668e+03 
1.746400e-01 1.849696e+03 
1.758700e-01 1.829314e+03 
1.770900e-01 1.808909e+03 
1.782700e-01 1.789511e+03 
1.794600e-01 1.769982e+03 
1.807000e-01 1.749784e+03 
1.819100e-01 1.730415e+03 
1.830100e-01 1.712999e+03 
1.842200e-01 1.694132e+03 
1.855000e-01 1.674528e+03 
1.867000e-01 1.656670e+03 
1.879200e-01 1.638814e+03 
1.890900e-01 1.622039e+03 
1.902800e-01 1.605620e+03 
1.915200e-01 1.588787e+03 
1.926900e-01 1.573287e+03 
1.939000e-01 1.557930e+03 
1.951700e-01 1.542070e+03 
1.963100e-01 1.528180e+03 
1.975100e-01 1.514115e+03 
1.987800e-01 1.499461e+03 
2.000100e-01 1.485606e+03 
2.012500e-01 1.472125e+03 
2.023400e-01 1.460443e+03 
2.036100e-01 1.447068e+03 
2.048900e-01 1.433947e+03 
2.060400e-01 1.422331e+03 
2.072200e-01 1.410582e+03 
2.084200e-01 1.398837e+03 
2.096900e-01 1.386590e+03 
2.109200e-01 1.374902e+03 
2.121100e-01 1.363648e+03 
2.132700e-01 1.352822e+03 
2.145200e-01 1.341319e+03 
2.157200e-01 1.330331e+03 
2.168800e-01 1.319805e+03 
2.180700e-01 1.309151e+03 
2.193400e-01 1.297873e+03 
2.206000e-01 1.286720e+03 
2.217500e-01 1.276678e+03 
2.229500e-01 1.266337e+03 
2.241400e-01 1.256083e+03 
2.253500e-01 1.245791e+03 
2.264900e-01 1.236222e+03 
2.277100e-01 1.226065e+03 
2.289900e-01 1.215501e+03 
2.301500e-01 1.206054e+03 
2.313600e-01 1.196327e+03 
2.325600e-01 1.186766e+03 
2.337700e-01 1.177250e+03 
2.350000e-01 1.167704e+03 
2.362000e-01 1.158521e+03 
2.374100e-01 1.149392e+03 
2.386500e-01 1.140157e+03 
2.399100e-01 1.130897e+03 
2.410400e-01 1.122732e+03 
2.422500e-01 1.114101e+03 
2.435000e-01 1.105297e+03 
2.447300e-01 1.096761e+03 
2.458700e-01 1.089011e+03 
2.470600e-01 1.081017e+03 
2.483300e-01 1.072592e+03 
2.495600e-01 1.064569e+03 
2.507600e-01 1.056885e+03 
2.519600e-01 1.049293e+03 
2.532200e-01 1.041418e+03 
2.543700e-01 1.034370e+03 
2.555500e-01 1.027258e+03 
2.568000e-01 1.019814e+03 
2.580100e-01 1.012693e+03 
2.592400e-01 1.005598e+03 
2.604100e-01 9.989514e+02 
2.616100e-01 9.922114e+02 
2.628400e-01 9.853825e+02 
2.640600e-01 9.787309e+02 
2.652200e-01 9.724943e+02 
2.664300e-01 9.660607e+02 
2.676500e-01 9.596471e+02 
2.688400e-01 9.534924e+02 
2.700700e-01 9.472213e+02 
2.712400e-01 9.413216e+02 
2.724800e-01 9.351375e+02 
2.736700e-01 9.292832e+02 
2.748800e-01 9.234104e+02 
2.761000e-01 9.175536e+02 
2.773200e-01 9.117607e+02 
2.785400e-01 9.060367e+02 
2.797000e-01 9.006640e+02 
2.808900e-01 8.952095e+02 
2.821400e-01 8.895414e+02 
2.833900e-01 8.839353e+02 
2.845500e-01 8.787917e+02 
2.857800e-01 8.733942e+02 
2.870300e-01 8.679676e+02 
2.882100e-01 8.628983e+02 
2.893900e-01 8.578833e+02 
2.906300e-01 8.526692e+02 
2.918900e-01 8.474272e+02 
2.930500e-01 8.426506e+02 
2.942500e-01 8.377584e+02 
2.954200e-01 8.330363e+02 
2.966500e-01 8.281218e+02 
2.978900e-01 8.232181e+02 
2.990400e-01 8.187153e+02 
3.002700e-01 8.139477e+02 
3.015100e-01 8.091906e+02 
3.026800e-01 8.047462e+02 
3.038500e-01 8.003443e+02 
3.050300e-01 7.959471e+02 
3.062600e-01 7.914138e+02 
3.075000e-01 7.868891e+02 
3.087000e-01 7.825531e+02 
3.099100e-01 7.782231e+02 
3.111200e-01 7.739390e+02 
3.123100e-01 7.697729e+02 
3.135300e-01 7.655423e+02 
3.147300e-01 7.614207e+02 
3.159900e-01 7.571346e+02 
3.171800e-01 7.531337e+02 
3.183700e-01 7.491752e+02 
3.196300e-01 7.450236e+02 
3.208400e-01 7.410746e+02 
3.220300e-01 7.372267e+02 
3.232000e-01 7.334869e+02 
3.244300e-01 7.295949e+02 
3.256700e-01 7.257080e+02 
3.269200e-01 7.218266e+02 
3.280800e-01 7.182574e+02 
3.292500e-01 7.147027e+02 
3.304800e-01 7.110036e+02 
3.317100e-01 7.073383e+02 
3.328900e-01 7.038534e+02 
3.340700e-01 7.003989e+02 
3.353600e-01 6.966695e+02 
3.365300e-01 6.933223e+02 
3.377100e-01 6.899754e+02 
3.389200e-01 6.865733e+02 
3.401600e-01 6.831178e+02 
3.413700e-01 6.797885e+02 
3.425300e-01 6.766329e+02 
3.437700e-01 6.732886e+02 
3.449800e-01 6.700538e+02 
3.461800e-01 6.668732e+02 
3.473600e-01 6.637767e+02 
3.485800e-01 6.606141e+02 
3.498100e-01 6.574530e+02 
3.510200e-01 6.543699e+02 
3.522000e-01 6.513884e+02 
3.533900e-01 6.484064e+02 
3.546400e-01 6.453162e+02 
3.558400e-01 6.423757e+02 
3.570600e-01 6.394110e+02 
3.582700e-01 6.364952e+02 
3.595000e-01 6.335559e+02 
3.607100e-01 6.306963e+02 
3.618900e-01 6.279362e+02 
3.631200e-01 6.250826e+02 
3.643200e-01 6.223215e+02 
3.655500e-01 6.195144e+02 
3.667300e-01 6.168432e+02 
3.679500e-01 6.141180e+02 
3.691900e-01 6.113708e+02 
3.703600e-01 6.087994e+02 
3.715700e-01 6.061610e+02 
3.727700e-01 6.035651e+02 
3.739900e-01 6.009518e+02 
3.752000e-01 5.983891e+02 
3.763900e-01 5.958885e+02 
3.775800e-01 5.934073e+02 
3.788200e-01 5.908422e+02 
3.800300e-01 5.883589e+02 
3.812100e-01 5.859602e+02 
3.824200e-01 5.835223e+02 
3.836100e-01 5.811431e+02 
3.848600e-01 5.786633e+02 
3.860400e-01 5.763406e+02 
3.872400e-01 5.739962e+02 
3.884600e-01 5.716375e+02 
3.896500e-01 5.693566e+02 
3.908700e-01 5.670359e+02 
3.920600e-01 5.647893e+02 
3.933100e-01 5.624474e+02 
3.945300e-01 5.601792e+02 
3.957200e-01 5.579904e+02 
3.969300e-01 5.557832e+02 
3.981700e-01 5.535384e+02 
3.993500e-01 5.514180e+02 
4.094840e-01 5.338093e+02 
4.272360e-01 5.055374e+02 
4.454600e-01 4.793653e+02 
4.630560e-01 4.564456e+02 
4.804610e-01 4.357493e+02 
4.980690e-01 4.165630e+02 
5.159230e-01 3.987010e+02 
5.317440e-01 3.840673e+02 
5.489640e-01 3.692968e+02 
5.671990e-01 3.548584e+02 
5.838690e-01 3.426210e+02 
6.018840e-01 3.303299e+02 
6.202330e-01 3.187235e+02 
6.379250e-01 3.083162e+02 
6.545410e-01 2.991991e+02 
6.714560e-01 2.904781e+02 
6.892080e-01 2.819123e+02 
7.066010e-01 2.740325e+02 
7.240540e-01 2.666001e+02 
7.420450e-01 2.593838e+02 
7.593780e-01 2.528203e+02 
7.764720e-01 2.466869e+02 
7.942840e-01 2.406335e+02 
8.116170e-01 2.350366e+02 
8.288310e-01 2.297434e+02 
8.462240e-01 2.246382e+02 
8.631980e-01 2.198702e+02 
8.810700e-01 2.150703e+02 
8.989410e-01 2.104771e+02 
9.166330e-01 2.061132e+02 
9.345640e-01 2.018674e+02 
9.515980e-01 1.979794e+02 
9.688720e-01 1.941764e+02 
9.865640e-01 1.904133e+02 
1.031870e+00 1.813557e+02 
1.063490e+00 1.754606e+02 
1.097920e+00 1.694041e+02 
1.134370e+00 1.633527e+02 
1.167730e+00 1.581154e+02 
1.203830e+00 1.527269e+02 
1.240470e+00 1.475511e+02 
1.275790e+00 1.427943e+02 
1.309140e+00 1.385302e+02 
1.342970e+00 1.343732e+02 
1.378420e+00 1.302225e+02 
1.413200e+00 1.263219e+02 
1.448110e+00 1.225745e+02 
1.484090e+00 1.188824e+02 
1.518820e+00 1.154672e+02 
1.552880e+00 1.122458e+02 
1.588630e+00 1.090033e+02 
1.623230e+00 1.059908e+02 
1.657720e+00 1.031049e+02 
1.692450e+00 1.003142e+02 
1.726400e+00 9.767950e+01 
1.762200e+00 9.500370e+01 
1.797880e+00 9.244348e+01 
1.833270e+00 8.999544e+01 
1.869070e+00 8.761018e+01 
1.903200e+00 8.542104e+01 
1.937740e+00 8.328237e+01 
1.973190e+00 8.116116e+01 
2.007440e+00 7.918479e+01 
2.042160e+00 7.725060e+01 
2.077900e+00 7.532435e+01 
2.112390e+00 7.353250e+01 
2.146220e+00 7.182634e+01 
2.181600e+00 7.010156e+01 
2.216930e+00 6.843735e+01 
2.250760e+00 6.689452e+01 
2.286500e+00 6.531612e+01 
2.321770e+00 6.380907e+01 
2.355950e+00 6.239463e+01 
2.391280e+00 6.097557e+01 
2.426240e+00 5.961577e+01 
2.460670e+00 5.831831e+01 
2.495640e+00 5.704091e+01 
2.531080e+00 5.578131e+01 
2.566220e+00 5.457106e+01 
2.600830e+00 5.341540e+01 
2.635080e+00 5.230579e+01 
2.670340e+00 5.119517e+01 
2.705970e+00 5.010565e+01 
2.740040e+00 4.909353e+01 
2.774520e+00 4.809525e+01 
2.809730e+00 4.710561e+01 
2.844390e+00 4.615992e+01 
2.879960e+00 4.521603e+01 
2.914860e+00 4.431457e+01 
2.949410e+00 4.344704e+01 
2.984440e+00 4.259092e+01 
3.019760e+00 4.175077e+01 
3.054730e+00 4.094185e+01 
3.089030e+00 4.016821e+01 
3.124060e+00 3.939902e+01 
3.159560e+00 3.863949e+01 
3.194710e+00 3.790734e+01 
3.229010e+00 3.721216e+01 
3.263320e+00 3.653363e+01 
3.297930e+00 3.586661e+01 
3.332830e+00 3.520991e+01 
3.368040e+00 3.456422e+01 
3.403300e+00 3.393426e+01 
3.438450e+00 3.332185e+01 
3.473060e+00 3.273439e+01 
3.508440e+00 3.214751e+01 
3.543110e+00 3.158707e+01 
3.577470e+00 3.104449e+01 
3.613040e+00 3.049657e+01 
3.648120e+00 2.996853e+01 
3.682910e+00 2.945760e+01 
3.718050e+00 2.895373e+01 
3.753320e+00 2.846024e+01 
3.787980e+00 2.798671e+01 
3.822290e+00 2.752874e+01 
3.857020e+00 2.707553e+01 
3.891920e+00 2.663058e+01 
3.926650e+00 2.619765e+01 
3.961970e+00 2.576759e+01 
3.997360e+00 2.534655e+01 
4.031670e+00 2.494762e+01 
4.066330e+00 2.455326e+01 
4.101420e+00 2.416303e+01 
4.136200e+00 2.378457e+01 
4.170810e+00 2.341630e+01 
4.206250e+00 2.304707e+01 
4.241580e+00 2.268708e+01 
4.276300e+00 2.234109e+01 
4.310970e+00 2.200305e+01 
4.346120e+00 2.166773e+01 
4.380600e+00 2.134585e+01 
4.414730e+00 2.103388e+01 
4.450350e+00 2.071511e+01 
4.485320e+00 2.040877e+01 
4.519810e+00 2.011289e+01 
4.555430e+00 1.981365e+01 
4.590870e+00 1.952220e+01 
4.625480e+00 1.924357e+01 
4.659910e+00 1.897190e+01 
4.695230e+00 1.869886e+01 
4.729960e+00 1.843574e+01 
4.764450e+00 1.817964e+01 
4.799530e+00 1.792441e+01 
4.834910e+00 1.767206e+01 
4.869700e+00 1.742901e+01 
4.904370e+00 1.719147e+01 
4.939450e+00 1.695582e+01 
4.973940e+00 1.672881e+01 
5.008430e+00 1.650603e+01 
5.043810e+00 1.628190e+01 
5.078840e+00 1.606424e+01 
5.113500e+00 1.585285e+01 
5.148890e+00 1.564145e+01 
5.184210e+00 1.543439e+01 
5.219060e+00 1.523390e+01 
5.253660e+00 1.503867e+01 
5.288570e+00 1.484520e+01 
5.323420e+00 1.465569e+01 
5.358440e+00 1.446885e+01 
5.393590e+00 1.428462e+01 
5.428310e+00 1.410614e+01 
5.462800e+00 1.393205e+01 
5.497640e+00 1.375922e+01 
5.532670e+00 1.358870e+01 
5.567280e+00 1.342319e+01 
5.602000e+00 1.325995e+01 
5.637270e+00 1.309730e+01 
5.672410e+00 1.293806e+01 
5.707020e+00 1.278384e+01 
5.742040e+00 1.263069e+01 
5.777430e+00 1.247856e+01 
5.812210e+00 1.233151e+01 
5.846820e+00 1.218786e+01 
5.881610e+00 1.204586e+01 
5.916510e+00 1.190570e+01 
5.951600e+00 1.176732e+01 
5.986560e+00 1.163179e+01 
6.021830e+00 1.149724e+01 
6.056490e+00 1.136732e+01 
6.091160e+00 1.123958e+01 
6.125830e+00 1.111381e+01 
6.161090e+00 1.098802e+01 
6.195760e+00 1.086650e+01 
6.230420e+00 1.074687e+01 
6.265690e+00 1.062701e+01 
6.300950e+00 1.050935e+01 
6.335620e+00 1.039541e+01 
6.370880e+00 1.028127e+01 
6.405550e+00 1.017099e+01 
6.440220e+00 1.006244e+01 
6.475480e+00 9.953677e+00 
6.510150e+00 9.848396e+00 
6.544810e+00 9.744868e+00 
6.580080e+00 9.641051e+00 
6.614750e+00 9.540480e+00 
6.649410e+00 9.441733e+00 
6.684080e+00 9.344431e+00 
6.719340e+00 9.246885e+00 
6.754010e+00 9.152411e+00 
6.788680e+00 9.059443e+00 
6.823940e+00 8.966221e+00 
6.859800e+00 8.872761e+00 
6.894470e+00 8.783900e+00 
6.929140e+00 8.696342e+00 
6.963800e+00 8.610005e+00 
6.999070e+00 8.523368e+00 
7.033730e+00 8.439607e+00 
7.068400e+00 8.356949e+00 
7.103660e+00 8.274022e+00 
7.138330e+00 8.193683e+00 
7.173600e+00 8.113266e+00 
7.208260e+00 8.035292e+00 
7.243530e+00 7.956998e+00 
7.277600e+00 7.882509e+00 
7.312860e+00 7.806559e+00 
7.348120e+00 7.731611e+00 
7.382790e+00 7.658877e+00 
7.417460e+00 7.587217e+00 
7.452720e+00 7.515351e+00 
7.487390e+00 7.445595e+00 
7.522650e+00 7.375559e+00 
7.557320e+00 7.307726e+00 
7.591990e+00 7.240801e+00 
7.627250e+00 7.173597e+00 
7.662510e+00 7.107244e+00 
7.697180e+00 7.042986e+00 
7.731850e+00 6.979585e+00 
7.766510e+00 6.916981e+00 
7.801180e+00 6.855126e+00 
7.836440e+00 6.793143e+00 
7.871110e+00 6.733037e+00 
7.906380e+00 6.672636e+00 
7.941040e+00 6.613999e+00 
7.976310e+00 6.555120e+00 
8.011570e+00 6.497055e+00 
8.046240e+00 6.440644e+00 
8.080900e+00 6.384918e+00 
8.115570e+00 6.329870e+00 
8.150830e+00 6.274692e+00 
8.185500e+00 6.221076e+00 
8.220770e+00 6.167173e+00 
8.255430e+00 6.114822e+00 
8.290100e+00 6.063212e+00 
8.324770e+00 6.012214e+00 
8.359430e+00 5.961814e+00 
8.394700e+00 5.911117e+00 
8.429960e+00 5.861108e+00 
8.464630e+00 5.812587e+00 
8.499890e+00 5.763801e+00 
8.534560e+00 5.716375e+00 
8.569200e+00 5.669519e+00 
