# Parameters:
# omega_b = 0.021988, omega_m = 0.129094, n_s = 1.005906, h = 56.181102, w = -1.000000, sigma_8 = 0.884016
# z = 1.000000
#
# k[1/Mpc] # P(k):
8.694000e-04 8.720075e+03 
2.077466e-03 1.910420e+04 
3.285532e-03 2.733190e+04 
4.493598e-03 3.368054e+04 
5.701664e-03 3.839220e+04 
6.909730e-03 4.171143e+04 
8.117797e-03 4.393151e+04 
9.325863e-03 4.520389e+04 
1.053393e-02 4.568645e+04 
1.174199e-02 4.552957e+04 
1.295006e-02 4.482712e+04 
1.415813e-02 4.370824e+04 
1.536619e-02 4.228850e+04 
1.657426e-02 4.066501e+04 
1.778233e-02 3.902110e+04 
1.899039e-02 3.754450e+04 
2.019846e-02 3.607228e+04 
2.140652e-02 3.449885e+04 
2.261459e-02 3.290481e+04 
2.382266e-02 3.137329e+04 
2.503072e-02 2.993658e+04 
2.623879e-02 2.860318e+04 
2.744685e-02 2.737646e+04 
2.865492e-02 2.625832e+04 
2.986299e-02 2.524419e+04 
3.100100e-02 2.438009e+04 
3.220400e-02 2.355527e+04 
3.288100e-02 2.312881e+04 
3.424300e-02 2.234337e+04 
3.555100e-02 2.166567e+04 
3.686000e-02 2.105189e+04 
3.795000e-02 2.058016e+04 
3.929100e-02 2.003920e+04 
4.039800e-02 1.961662e+04 
4.164000e-02 1.916114e+04 
4.294400e-02 1.869194e+04 
4.415000e-02 1.826720e+04 
4.542900e-02 1.781303e+04 
4.660900e-02 1.739646e+04 
4.782300e-02 1.695600e+04 
4.892900e-02 1.655409e+04 
5.031200e-02 1.604556e+04 
5.155900e-02 1.558104e+04 
5.238100e-02 1.527398e+04 
5.378200e-02 1.475121e+04 
5.513400e-02 1.424807e+04 
5.627600e-02 1.382692e+04 
5.735300e-02 1.343592e+04 
5.870100e-02 1.295722e+04 
5.988700e-02 1.254892e+04 
6.113500e-02 1.213351e+04 
6.225900e-02 1.177341e+04 
6.340100e-02 1.142308e+04 
6.480200e-02 1.101578e+04 
6.601100e-02 1.068532e+04 
6.725500e-02 1.036678e+04 
6.829100e-02 1.011976e+04 
6.958600e-02 9.831296e+03 
7.071100e-02 9.600922e+03 
7.192300e-02 9.372292e+03 
7.307400e-02 9.173050e+03 
7.412300e-02 9.005641e+03 
7.550400e-02 8.805780e+03 
7.663100e-02 8.656164e+03 
7.791200e-02 8.502158e+03 
7.912700e-02 8.368244e+03 
8.027600e-02 8.249174e+03 
8.138400e-02 8.139419e+03 
8.272200e-02 8.011423e+03 
8.406100e-02 7.885590e+03 
8.534100e-02 7.763671e+03 
8.653800e-02 7.645868e+03 
8.759800e-02 7.538985e+03 
8.900300e-02 7.392081e+03 
9.009000e-02 7.273079e+03 
9.113300e-02 7.153740e+03 
9.239600e-02 7.006534e+03 
9.358000e-02 6.864629e+03 
9.496100e-02 6.694774e+03 
9.608400e-02 6.556772e+03 
9.727500e-02 6.411663e+03 
9.852600e-02 6.259746e+03 
9.973800e-02 6.116941e+03 
1.009000e-01 5.983996e+03 
1.020900e-01 5.853936e+03 
1.034000e-01 5.717273e+03 
1.046000e-01 5.598178e+03 
1.057200e-01 5.494795e+03 
1.069100e-01 5.389829e+03 
1.082500e-01 5.280631e+03 
1.093900e-01 5.193951e+03 
1.105400e-01 5.110842e+03 
1.116900e-01 5.034530e+03 
1.129600e-01 4.953978e+03 
1.142000e-01 4.881002e+03 
1.153300e-01 4.817331e+03 
1.166400e-01 4.747196e+03 
1.177800e-01 4.688593e+03 
1.190000e-01 4.627809e+03 
1.201200e-01 4.573166e+03 
1.213400e-01 4.515017e+03 
1.227100e-01 4.449980e+03 
1.238900e-01 4.394891e+03 
1.250700e-01 4.339433e+03 
1.263200e-01 4.281295e+03 
1.275500e-01 4.223728e+03 
1.287500e-01 4.167999e+03 
1.299900e-01 4.110367e+03 
1.311300e-01 4.057816e+03 
1.323500e-01 4.001684e+03 
1.335900e-01 3.945396e+03 
1.347100e-01 3.894948e+03 
1.359800e-01 3.838713e+03 
1.372100e-01 3.784909e+03 
1.384300e-01 3.732632e+03 
1.395700e-01 3.684584e+03 
1.407700e-01 3.635073e+03 
1.420300e-01 3.584274e+03 
1.432800e-01 3.534991e+03 
1.444500e-01 3.490090e+03 
1.456300e-01 3.445726e+03 
1.468900e-01 3.399779e+03 
1.480500e-01 3.358476e+03 
1.491700e-01 3.319581e+03 
1.503800e-01 3.278653e+03 
1.516400e-01 3.236996e+03 
1.528200e-01 3.199164e+03 
1.540200e-01 3.161435e+03 
1.551900e-01 3.125726e+03 
1.564300e-01 3.088698e+03 
1.576600e-01 3.052848e+03 
1.588700e-01 3.018451e+03 
1.600900e-01 2.984436e+03 
1.612700e-01 2.952363e+03 
1.625400e-01 2.918491e+03 
1.637600e-01 2.886643e+03 
1.649500e-01 2.856187e+03 
1.662200e-01 2.824287e+03 
1.674000e-01 2.795226e+03 
1.685000e-01 2.768591e+03 
1.697500e-01 2.738835e+03 
1.710300e-01 2.708916e+03 
1.722200e-01 2.681596e+03 
1.734400e-01 2.653968e+03 
1.746400e-01 2.627256e+03 
1.758700e-01 2.600327e+03 
1.770900e-01 2.574040e+03 
1.782700e-01 2.549040e+03 
1.794600e-01 2.524218e+03 
1.807000e-01 2.498770e+03 
1.819100e-01 2.474354e+03 
1.830100e-01 2.452490e+03 
1.842200e-01 2.428811e+03 
1.855000e-01 2.404182e+03 
1.867000e-01 2.381500e+03 
1.879200e-01 2.358808e+03 
1.890900e-01 2.337399e+03 
1.902800e-01 2.316020e+03 
1.915200e-01 2.294093e+03 
1.926900e-01 2.273755e+03 
1.939000e-01 2.253143e+03 
1.951700e-01 2.231850e+03 
1.963100e-01 2.213049e+03 
1.975100e-01 2.193606e+03 
1.987800e-01 2.173346e+03 
2.000100e-01 2.154071e+03 
2.012500e-01 2.135033e+03 
2.023400e-01 2.118536e+03 
2.036100e-01 2.099605e+03 
2.048900e-01 2.080875e+03 
2.060400e-01 2.064292e+03 
2.072200e-01 2.047518e+03 
2.084200e-01 2.030741e+03 
2.096900e-01 2.013245e+03 
2.109200e-01 1.996548e+03 
2.121100e-01 1.980554e+03 
2.132700e-01 1.965172e+03 
2.145200e-01 1.948826e+03 
2.157200e-01 1.933264e+03 
2.168800e-01 1.918381e+03 
2.180700e-01 1.903316e+03 
2.193400e-01 1.887356e+03 
2.206000e-01 1.871547e+03 
2.217500e-01 1.857313e+03 
2.229500e-01 1.842655e+03 
2.241400e-01 1.827948e+03 
2.253500e-01 1.813183e+03 
2.264900e-01 1.799452e+03 
2.277100e-01 1.784704e+03 
2.289900e-01 1.769171e+03 
2.301500e-01 1.755283e+03 
2.313600e-01 1.740978e+03 
2.325600e-01 1.726452e+03 
2.337700e-01 1.711996e+03 
2.350000e-01 1.697496e+03 
2.362000e-01 1.683318e+03 
2.374100e-01 1.668953e+03 
2.386500e-01 1.654425e+03 
2.399100e-01 1.639861e+03 
2.410400e-01 1.626658e+03 
2.422500e-01 1.612659e+03 
2.435000e-01 1.598386e+03 
2.447300e-01 1.584497e+03 
2.458700e-01 1.571667e+03 
2.470600e-01 1.558439e+03 
2.483300e-01 1.544503e+03 
2.495600e-01 1.531204e+03 
2.507600e-01 1.518420e+03 
2.519600e-01 1.505795e+03 
2.532200e-01 1.492707e+03 
2.543700e-01 1.481063e+03 
2.555500e-01 1.469362e+03 
2.568000e-01 1.457118e+03 
2.580100e-01 1.445413e+03 
2.592400e-01 1.433933e+03 
2.604100e-01 1.423264e+03 
2.616100e-01 1.412448e+03 
2.628400e-01 1.401492e+03 
2.640600e-01 1.391071e+03 
2.652200e-01 1.381400e+03 
2.664300e-01 1.371425e+03 
2.676500e-01 1.361484e+03 
2.688400e-01 1.352161e+03 
2.700700e-01 1.342797e+03 
2.712400e-01 1.333989e+03 
2.724800e-01 1.324757e+03 
2.736700e-01 1.316170e+03 
2.748800e-01 1.307711e+03 
2.761000e-01 1.299276e+03 
2.773200e-01 1.290933e+03 
2.785400e-01 1.282765e+03 
2.797000e-01 1.275255e+03 
2.808900e-01 1.267632e+03 
2.821400e-01 1.259709e+03 
2.833900e-01 1.251881e+03 
2.845500e-01 1.244850e+03 
2.857800e-01 1.237473e+03 
2.870300e-01 1.230055e+03 
2.882100e-01 1.223125e+03 
2.893900e-01 1.216337e+03 
2.906300e-01 1.209315e+03 
2.918900e-01 1.202255e+03 
2.930500e-01 1.195821e+03 
2.942500e-01 1.189244e+03 
2.954200e-01 1.182937e+03 
2.966500e-01 1.176373e+03 
2.978900e-01 1.169822e+03 
2.990400e-01 1.163807e+03 
3.002700e-01 1.157456e+03 
3.015100e-01 1.151128e+03 
3.026800e-01 1.145216e+03 
3.038500e-01 1.139359e+03 
3.050300e-01 1.133508e+03 
3.062600e-01 1.127483e+03 
3.075000e-01 1.121468e+03 
3.087000e-01 1.115704e+03 
3.099100e-01 1.109947e+03 
3.111200e-01 1.104249e+03 
3.123100e-01 1.098704e+03 
3.135300e-01 1.093074e+03 
3.147300e-01 1.087588e+03 
3.159900e-01 1.081882e+03 
3.171800e-01 1.076550e+03 
3.183700e-01 1.071271e+03 
3.196300e-01 1.065733e+03 
3.208400e-01 1.060466e+03 
3.220300e-01 1.055332e+03 
3.232000e-01 1.050333e+03 
3.244300e-01 1.045127e+03 
3.256700e-01 1.039927e+03 
3.269200e-01 1.034733e+03 
3.280800e-01 1.029958e+03 
3.292500e-01 1.025192e+03 
3.304800e-01 1.020229e+03 
3.317100e-01 1.015312e+03 
3.328900e-01 1.010636e+03 
3.340700e-01 1.006001e+03 
3.353600e-01 1.000988e+03 
3.365300e-01 9.964840e+02 
3.377100e-01 9.919808e+02 
3.389200e-01 9.874029e+02 
3.401600e-01 9.827530e+02 
3.413700e-01 9.782664e+02 
3.425300e-01 9.740093e+02 
3.437700e-01 9.694975e+02 
3.449800e-01 9.651331e+02 
3.461800e-01 9.608418e+02 
3.473600e-01 9.566617e+02 
3.485800e-01 9.523867e+02 
3.498100e-01 9.481137e+02 
3.510200e-01 9.439459e+02 
3.522000e-01 9.399153e+02 
3.533900e-01 9.358839e+02 
3.546400e-01 9.317007e+02 
3.558400e-01 9.277197e+02 
3.570600e-01 9.237058e+02 
3.582700e-01 9.197579e+02 
3.595000e-01 9.157782e+02 
3.607100e-01 9.119044e+02 
3.618900e-01 9.081641e+02 
3.631200e-01 9.042970e+02 
3.643200e-01 9.005550e+02 
3.655500e-01 8.967507e+02 
3.667300e-01 8.931304e+02 
3.679500e-01 8.894357e+02 
3.691900e-01 8.857112e+02 
3.703600e-01 8.822248e+02 
3.715700e-01 8.786476e+02 
3.727700e-01 8.751280e+02 
3.739900e-01 8.715847e+02 
3.752000e-01 8.681103e+02 
3.763900e-01 8.647200e+02 
3.775800e-01 8.613558e+02 
3.788200e-01 8.578778e+02 
3.800300e-01 8.545107e+02 
3.812100e-01 8.512591e+02 
3.824200e-01 8.479548e+02 
3.836100e-01 8.447301e+02 
3.848600e-01 8.413690e+02 
3.860400e-01 8.382206e+02 
3.872400e-01 8.350429e+02 
3.884600e-01 8.318462e+02 
3.896500e-01 8.287552e+02 
3.908700e-01 8.256101e+02 
3.920600e-01 8.225655e+02 
3.933100e-01 8.193916e+02 
3.945300e-01 8.163177e+02 
3.957200e-01 8.133537e+02 
3.969300e-01 8.103656e+02 
3.981700e-01 8.073265e+02 
3.993500e-01 8.044559e+02 
4.094840e-01 7.806090e+02 
4.272360e-01 7.423436e+02 
4.454600e-01 7.068740e+02 
4.630560e-01 6.757352e+02 
4.804610e-01 6.475275e+02 
4.980690e-01 6.212913e+02 
5.159230e-01 5.967922e+02 
5.317440e-01 5.766734e+02 
5.489640e-01 5.563237e+02 
5.671990e-01 5.364139e+02 
5.838690e-01 5.195284e+02 
6.018840e-01 5.025499e+02 
6.202330e-01 4.865092e+02 
6.379250e-01 4.721344e+02 
6.545410e-01 4.595315e+02 
6.714560e-01 4.474579e+02 
6.892080e-01 4.356034e+02 
7.066010e-01 4.246639e+02 
7.240540e-01 4.143401e+02 
7.420450e-01 4.042713e+02 
7.593780e-01 3.950791e+02 
7.764720e-01 3.864577e+02 
7.942840e-01 3.779176e+02 
8.116170e-01 3.699692e+02 
8.288310e-01 3.624041e+02 
8.462240e-01 3.550640e+02 
8.631980e-01 3.481584e+02 
8.810700e-01 3.411663e+02 
8.989410e-01 3.344273e+02 
9.166330e-01 3.279783e+02 
9.345640e-01 3.216594e+02 
9.515980e-01 3.158230e+02 
9.688720e-01 3.100734e+02 
9.865640e-01 3.043363e+02 
1.031870e+00 2.903790e+02 
1.063490e+00 2.811544e+02 
1.097920e+00 2.715666e+02 
1.134370e+00 2.618839e+02 
1.167730e+00 2.534132e+02 
1.203830e+00 2.446145e+02 
1.240470e+00 2.361010e+02 
1.275790e+00 2.282071e+02 
1.309140e+00 2.211015e+02 
1.342970e+00 2.141280e+02 
1.378420e+00 2.071375e+02 
1.413200e+00 2.005405e+02 
1.448110e+00 1.941845e+02 
1.484090e+00 1.879051e+02 
1.518820e+00 1.820859e+02 
1.552880e+00 1.765877e+02 
1.588630e+00 1.710501e+02 
1.623230e+00 1.658991e+02 
1.657720e+00 1.609633e+02 
1.692450e+00 1.561931e+02 
1.726400e+00 1.516879e+02 
1.762200e+00 1.471131e+02 
1.797880e+00 1.427433e+02 
1.833270e+00 1.385648e+02 
1.869070e+00 1.344989e+02 
1.903200e+00 1.307753e+02 
1.937740e+00 1.271411e+02 
1.973190e+00 1.235408e+02 
2.007440e+00 1.201934e+02 
2.042160e+00 1.169253e+02 
2.077900e+00 1.136747e+02 
2.112390e+00 1.106585e+02 
2.146220e+00 1.077904e+02 
2.181600e+00 1.048993e+02 
2.216930e+00 1.021161e+02 
2.250760e+00 9.954118e+01 
2.286500e+00 9.691247e+01 
2.321770e+00 9.440850e+01 
2.355950e+00 9.206513e+01 
2.391280e+00 8.972022e+01 
2.426240e+00 8.747964e+01 
2.460670e+00 8.534690e+01 
2.495640e+00 8.325146e+01 
2.531080e+00 8.119101e+01 
2.566220e+00 7.921694e+01 
2.600830e+00 7.733707e+01 
2.635080e+00 7.553695e+01 
2.670340e+00 7.374152e+01 
2.705970e+00 7.198423e+01 
2.740040e+00 7.035523e+01 
2.774520e+00 6.875228e+01 
2.809730e+00 6.716902e+01 
2.844390e+00 6.566019e+01 
2.879960e+00 6.415867e+01 
2.914860e+00 6.272830e+01 
2.949410e+00 6.135494e+01 
2.984440e+00 6.000472e+01 
3.019760e+00 5.868256e+01 
3.054730e+00 5.741202e+01 
3.089030e+00 5.620237e+01 
3.124060e+00 5.500190e+01 
3.159560e+00 5.381911e+01 
3.194710e+00 5.268307e+01 
3.229010e+00 5.160671e+01 
3.263320e+00 5.056056e+01 
3.297930e+00 4.953384e+01 
3.332830e+00 4.852524e+01 
3.368040e+00 4.753663e+01 
3.403300e+00 4.657460e+01 
3.438450e+00 4.564278e+01 
3.473060e+00 4.475047e+01 
3.508440e+00 4.386214e+01 
3.543110e+00 4.301521e+01 
3.577470e+00 4.219852e+01 
3.613040e+00 4.137514e+01 
3.648120e+00 4.058376e+01 
3.682910e+00 3.981972e+01 
3.718050e+00 3.906861e+01 
3.753320e+00 3.833462e+01 
3.787980e+00 3.763233e+01 
3.822290e+00 3.695468e+01 
3.857020e+00 3.628608e+01 
3.891920e+00 3.563100e+01 
3.926650e+00 3.499545e+01 
3.961970e+00 3.436529e+01 
3.997360e+00 3.375030e+01 
4.031670e+00 3.316849e+01 
4.066330e+00 3.259533e+01 
4.101420e+00 3.202875e+01 
4.136200e+00 3.148129e+01 
4.170810e+00 3.094905e+01 
4.206250e+00 3.041712e+01 
4.241580e+00 2.989920e+01 
4.276300e+00 2.940296e+01 
4.310970e+00 2.891914e+01 
4.346120e+00 2.844015e+01 
4.380600e+00 2.798160e+01 
4.414730e+00 2.753755e+01 
4.450350e+00 2.708564e+01 
4.485320e+00 2.665168e+01 
4.519810e+00 2.623378e+01 
4.555430e+00 2.581186e+01 
4.590870e+00 2.540163e+01 
4.625480e+00 2.501053e+01 
4.659910e+00 2.462949e+01 
4.695230e+00 2.424784e+01 
4.729960e+00 2.388049e+01 
4.764450e+00 2.352361e+01 
4.799530e+00 2.316887e+01 
4.834910e+00 2.281837e+01 
4.869700e+00 2.248186e+01 
4.904370e+00 2.215333e+01 
4.939450e+00 2.182790e+01 
4.973940e+00 2.151529e+01 
5.008430e+00 2.120870e+01 
5.043810e+00 2.090103e+01 
5.078840e+00 2.060274e+01 
5.113500e+00 2.031322e+01 
5.148890e+00 2.002470e+01 
5.184210e+00 1.974229e+01 
5.219060e+00 1.946920e+01 
5.253660e+00 1.920399e+01 
5.288570e+00 1.894133e+01 
5.323420e+00 1.868451e+01 
5.358440e+00 1.843182e+01 
5.393590e+00 1.818280e+01 
5.428310e+00 1.794213e+01 
5.462800e+00 1.770774e+01 
5.497640e+00 1.747514e+01 
5.532670e+00 1.724627e+01 
5.567280e+00 1.702437e+01 
5.602000e+00 1.680561e+01 
5.637270e+00 1.658819e+01 
5.672410e+00 1.637555e+01 
5.707020e+00 1.616969e+01 
5.742040e+00 1.596583e+01 
5.777430e+00 1.576351e+01 
5.812210e+00 1.556802e+01 
5.846820e+00 1.537752e+01 
5.881610e+00 1.518938e+01 
5.916510e+00 1.500375e+01 
5.951600e+00 1.482089e+01 
5.986560e+00 1.464199e+01 
6.021830e+00 1.446445e+01 
6.056490e+00 1.429332e+01 
6.091160e+00 1.412530e+01 
6.125830e+00 1.395993e+01 
6.161090e+00 1.379470e+01 
6.195760e+00 1.363542e+01 
6.230420e+00 1.347866e+01 
6.265690e+00 1.332165e+01 
6.300950e+00 1.316795e+01 
6.335620e+00 1.301914e+01 
6.370880e+00 1.287012e+01 
6.405550e+00 1.272640e+01 
6.440220e+00 1.258507e+01 
6.475480e+00 1.244351e+01 
6.510150e+00 1.230661e+01 
6.544810e+00 1.217224e+01 
6.580080e+00 1.203754e+01 
6.614750e+00 1.190708e+01 
6.649410e+00 1.177923e+01 
6.684080e+00 1.165333e+01 
6.719340e+00 1.152714e+01 
6.754010e+00 1.140503e+01 
6.788680e+00 1.128508e+01 
6.823940e+00 1.116482e+01 
6.859800e+00 1.104429e+01 
6.894470e+00 1.092987e+01 
6.929140e+00 1.081721e+01 
6.963800e+00 1.070614e+01 
6.999070e+00 1.059473e+01 
7.033730e+00 1.048724e+01 
7.068400e+00 1.038118e+01 
7.103660e+00 1.027480e+01 
7.138330e+00 1.017182e+01 
7.173600e+00 1.006887e+01 
7.208260e+00 9.969073e+00 
7.243530e+00 9.868885e+00 
7.277600e+00 9.773672e+00 
7.312860e+00 9.676691e+00 
7.348120e+00 9.581006e+00 
7.382790e+00 9.488165e+00 
7.417460e+00 9.396800e+00 
7.452720e+00 9.305234e+00 
7.487390e+00 9.216372e+00 
7.522650e+00 9.127169e+00 
7.557320e+00 9.040880e+00 
7.591990e+00 8.955796e+00 
7.627250e+00 8.870370e+00 
7.662510e+00 8.786041e+00 
7.697180e+00 8.704474e+00 
7.731850e+00 8.624042e+00 
7.766510e+00 8.544633e+00 
7.801180e+00 8.466186e+00 
7.836440e+00 8.387647e+00 
7.871110e+00 8.311535e+00 
7.906380e+00 8.235060e+00 
7.941040e+00 8.160830e+00 
7.976310e+00 8.086345e+00 
8.011570e+00 8.012945e+00 
8.046240e+00 7.941648e+00 
8.080900e+00 7.871225e+00 
8.115570e+00 7.801686e+00 
8.150830e+00 7.732057e+00 
8.185500e+00 7.664408e+00 
8.220770e+00 7.596406e+00 
8.255430e+00 7.530370e+00 
8.290100e+00 7.465342e+00 
8.324770e+00 7.401101e+00 
8.359430e+00 7.337621e+00 
8.394700e+00 7.273776e+00 
8.429960e+00 7.210832e+00 
8.464630e+00 7.149796e+00 
8.499890e+00 7.088433e+00 
8.534560e+00 7.028788e+00 
8.569200e+00 6.969867e+00 
