# Parameters:
# omega_b = 0.023469, omega_m = 0.122756, n_s = 0.985433, h = 56.889764, w = -1.000000, sigma_8 = 0.723937
# z = 1.000000
#
# k[1/Mpc] # P(k):
8.694000e-04 7.999323e+03 
2.077466e-03 1.712158e+04 
3.285532e-03 2.411620e+04 
4.493598e-03 2.934013e+04 
5.701664e-03 3.306236e+04 
6.909730e-03 3.554395e+04 
8.117797e-03 3.707261e+04 
9.325863e-03 3.779606e+04 
1.053393e-02 3.786098e+04 
1.174199e-02 3.740207e+04 
1.295006e-02 3.650553e+04 
1.415813e-02 3.528608e+04 
1.536619e-02 3.384410e+04 
1.657426e-02 3.226538e+04 
1.778233e-02 3.071396e+04 
1.899039e-02 2.935864e+04 
2.019846e-02 2.804551e+04 
2.140652e-02 2.666579e+04 
2.261459e-02 2.528729e+04 
2.382266e-02 2.398072e+04 
2.503072e-02 2.277003e+04 
2.623879e-02 2.165940e+04 
2.744685e-02 2.064991e+04 
2.865492e-02 1.973914e+04 
2.986299e-02 1.892098e+04 
3.100100e-02 1.823048e+04 
3.220400e-02 1.757683e+04 
3.288100e-02 1.724136e+04 
3.424300e-02 1.662701e+04 
3.555100e-02 1.610026e+04 
3.686000e-02 1.562551e+04 
3.795000e-02 1.526153e+04 
3.929100e-02 1.484444e+04 
4.039800e-02 1.451806e+04 
4.164000e-02 1.416538e+04 
4.294400e-02 1.379973e+04 
4.415000e-02 1.346703e+04 
4.542900e-02 1.310861e+04 
4.660900e-02 1.277834e+04 
4.782300e-02 1.242659e+04 
4.892900e-02 1.210453e+04 
5.031200e-02 1.169560e+04 
5.155900e-02 1.132125e+04 
5.238100e-02 1.107368e+04 
5.378200e-02 1.065248e+04 
5.513400e-02 1.024817e+04 
5.627600e-02 9.911198e+03 
5.735300e-02 9.599906e+03 
5.870100e-02 9.221469e+03 
5.988700e-02 8.901490e+03 
6.113500e-02 8.579089e+03 
6.225900e-02 8.302816e+03 
6.340100e-02 8.037206e+03 
6.480200e-02 7.732178e+03 
6.601100e-02 7.488900e+03 
6.725500e-02 7.257861e+03 
6.829100e-02 7.081677e+03 
6.958600e-02 6.878443e+03 
7.071100e-02 6.718594e+03 
7.192300e-02 6.561876e+03 
7.307400e-02 6.426749e+03 
7.412300e-02 6.314058e+03 
7.550400e-02 6.180284e+03 
7.663100e-02 6.080227e+03 
7.791200e-02 5.976573e+03 
7.912700e-02 5.885030e+03 
8.027600e-02 5.802148e+03 
8.138400e-02 5.724264e+03 
8.272200e-02 5.631183e+03 
8.406100e-02 5.537287e+03 
8.534100e-02 5.443914e+03 
8.653800e-02 5.352225e+03 
8.759800e-02 5.268440e+03 
8.900300e-02 5.152708e+03 
9.009000e-02 5.058869e+03 
9.113300e-02 4.965092e+03 
9.239600e-02 4.849853e+03 
9.358000e-02 4.739428e+03 
9.496100e-02 4.608429e+03 
9.608400e-02 4.502765e+03 
9.727500e-02 4.392300e+03 
9.852600e-02 4.278015e+03 
9.973800e-02 4.171289e+03 
1.009000e-01 4.072518e+03 
1.020900e-01 3.977184e+03 
1.034000e-01 3.877689e+03 
1.046000e-01 3.791675e+03 
1.057200e-01 3.718156e+03 
1.069100e-01 3.643967e+03 
1.082500e-01 3.568043e+03 
1.093900e-01 3.508547e+03 
1.105400e-01 3.451965e+03 
1.116900e-01 3.400990e+03 
1.129600e-01 3.347489e+03 
1.142000e-01 3.299701e+03 
1.153300e-01 3.258129e+03 
1.166400e-01 3.212530e+03 
1.177800e-01 3.174285e+03 
1.190000e-01 3.134548e+03 
1.201200e-01 3.098205e+03 
1.213400e-01 3.059419e+03 
1.227100e-01 3.014743e+03 
1.238900e-01 2.976597e+03 
1.250700e-01 2.937213e+03 
1.263200e-01 2.895551e+03 
1.275500e-01 2.853475e+03 
1.287500e-01 2.812374e+03 
1.299900e-01 2.769293e+03 
1.311300e-01 2.729790e+03 
1.323500e-01 2.687263e+03 
1.335900e-01 2.644546e+03 
1.347100e-01 2.606155e+03 
1.359800e-01 2.563409e+03 
1.372100e-01 2.522576e+03 
1.384300e-01 2.483032e+03 
1.395700e-01 2.446939e+03 
1.407700e-01 2.409823e+03 
1.420300e-01 2.372238e+03 
1.432800e-01 2.335803e+03 
1.444500e-01 2.303215e+03 
1.456300e-01 2.271036e+03 
1.468900e-01 2.238203e+03 
1.480500e-01 2.208846e+03 
1.491700e-01 2.181452e+03 
1.503800e-01 2.152946e+03 
1.516400e-01 2.124031e+03 
1.528200e-01 2.098174e+03 
1.540200e-01 2.072392e+03 
1.551900e-01 2.048264e+03 
1.564300e-01 2.023314e+03 
1.576600e-01 1.999235e+03 
1.588700e-01 1.976223e+03 
1.600900e-01 1.953468e+03 
1.612700e-01 1.931996e+03 
1.625400e-01 1.909321e+03 
1.637600e-01 1.887886e+03 
1.649500e-01 1.867321e+03 
1.662200e-01 1.845734e+03 
1.674000e-01 1.825790e+03 
1.685000e-01 1.807513e+03 
1.697500e-01 1.786910e+03 
1.710300e-01 1.766010e+03 
1.722200e-01 1.746930e+03 
1.734400e-01 1.727283e+03 
1.746400e-01 1.708278e+03 
1.758700e-01 1.689039e+03 
1.770900e-01 1.670086e+03 
1.782700e-01 1.652068e+03 
1.794600e-01 1.634099e+03 
1.807000e-01 1.615624e+03 
1.819100e-01 1.597906e+03 
1.830100e-01 1.582048e+03 
1.842200e-01 1.564881e+03 
1.855000e-01 1.547038e+03 
1.867000e-01 1.530712e+03 
1.879200e-01 1.514388e+03 
1.890900e-01 1.499022e+03 
1.902800e-01 1.483833e+03 
1.915200e-01 1.468261e+03 
1.926900e-01 1.453868e+03 
1.939000e-01 1.439434e+03 
1.951700e-01 1.424527e+03 
1.963100e-01 1.411416e+03 
1.975100e-01 1.397987e+03 
1.987800e-01 1.383997e+03 
2.000100e-01 1.370723e+03 
2.012500e-01 1.357692e+03 
2.023400e-01 1.346403e+03 
2.036100e-01 1.333461e+03 
2.048900e-01 1.320696e+03 
2.060400e-01 1.309398e+03 
2.072200e-01 1.297969e+03 
2.084200e-01 1.286528e+03 
2.096900e-01 1.274599e+03 
2.109200e-01 1.263217e+03 
2.121100e-01 1.252270e+03 
2.132700e-01 1.241742e+03 
2.145200e-01 1.230558e+03 
2.157200e-01 1.219866e+03 
2.168800e-01 1.209623e+03 
2.180700e-01 1.199257e+03 
2.193400e-01 1.188262e+03 
2.206000e-01 1.177347e+03 
2.217500e-01 1.167523e+03 
2.229500e-01 1.157408e+03 
2.241400e-01 1.147236e+03 
2.253500e-01 1.137026e+03 
2.264900e-01 1.127535e+03 
2.277100e-01 1.117355e+03 
2.289900e-01 1.106648e+03 
2.301500e-01 1.097079e+03 
2.313600e-01 1.087226e+03 
2.325600e-01 1.077270e+03 
2.337700e-01 1.067367e+03 
2.350000e-01 1.057437e+03 
2.362000e-01 1.047759e+03 
2.374100e-01 1.037990e+03 
2.386500e-01 1.028115e+03 
2.399100e-01 1.018218e+03 
2.410400e-01 1.009305e+03 
2.422500e-01 9.998646e+02 
2.435000e-01 9.902434e+02 
2.447300e-01 9.808946e+02 
2.458700e-01 9.723022e+02 
2.470600e-01 9.634463e+02 
2.483300e-01 9.541206e+02 
2.495600e-01 9.452372e+02 
2.507600e-01 9.367202e+02 
2.519600e-01 9.283117e+02 
2.532200e-01 9.195977e+02 
2.543700e-01 9.118529e+02 
2.555500e-01 9.040757e+02 
2.568000e-01 8.959406e+02 
2.580100e-01 8.881657e+02 
2.592400e-01 8.805365e+02 
2.604100e-01 8.734445e+02 
2.616100e-01 8.662572e+02 
2.628400e-01 8.589797e+02 
2.640600e-01 8.520414e+02 
2.652200e-01 8.455972e+02 
2.664300e-01 8.389528e+02 
2.676500e-01 8.323325e+02 
2.688400e-01 8.261040e+02 
2.700700e-01 8.198365e+02 
2.712400e-01 8.139423e+02 
2.724800e-01 8.077664e+02 
2.736700e-01 8.020060e+02 
2.748800e-01 7.963155e+02 
2.761000e-01 7.906422e+02 
2.773200e-01 7.850322e+02 
2.785400e-01 7.795306e+02 
2.797000e-01 7.744518e+02 
2.808900e-01 7.692967e+02 
2.821400e-01 7.639407e+02 
2.833900e-01 7.586481e+02 
2.845500e-01 7.538702e+02 
2.857800e-01 7.488572e+02 
2.870300e-01 7.438180e+02 
2.882100e-01 7.391115e+02 
2.893900e-01 7.344876e+02 
2.906300e-01 7.296980e+02 
2.918900e-01 7.248833e+02 
2.930500e-01 7.204967e+02 
2.942500e-01 7.160104e+02 
2.954200e-01 7.116993e+02 
2.966500e-01 7.072130e+02 
2.978900e-01 7.027373e+02 
2.990400e-01 6.986280e+02 
3.002700e-01 6.942840e+02 
3.015100e-01 6.899533e+02 
3.026800e-01 6.859079e+02 
3.038500e-01 6.819014e+02 
3.050300e-01 6.778998e+02 
3.062600e-01 6.737755e+02 
3.075000e-01 6.696594e+02 
3.087000e-01 6.657156e+02 
3.099100e-01 6.617776e+02 
3.111200e-01 6.578807e+02 
3.123100e-01 6.540898e+02 
3.135300e-01 6.502408e+02 
3.147300e-01 6.464913e+02 
3.159900e-01 6.425926e+02 
3.171800e-01 6.389515e+02 
3.183700e-01 6.353478e+02 
3.196300e-01 6.315688e+02 
3.208400e-01 6.279747e+02 
3.220300e-01 6.244729e+02 
3.232000e-01 6.210676e+02 
3.244300e-01 6.175232e+02 
3.256700e-01 6.139838e+02 
3.269200e-01 6.104499e+02 
3.280800e-01 6.072005e+02 
3.292500e-01 6.039624e+02 
3.304800e-01 6.005924e+02 
3.317100e-01 5.972536e+02 
3.328900e-01 5.940795e+02 
3.340700e-01 5.909333e+02 
3.353600e-01 5.875371e+02 
3.365300e-01 5.844892e+02 
3.377100e-01 5.814420e+02 
3.389200e-01 5.783448e+02 
3.401600e-01 5.751993e+02 
3.413700e-01 5.721696e+02 
3.425300e-01 5.692986e+02 
3.437700e-01 5.662562e+02 
3.449800e-01 5.633138e+02 
3.461800e-01 5.604209e+02 
3.473600e-01 5.576058e+02 
3.485800e-01 5.547328e+02 
3.498100e-01 5.518616e+02 
3.510200e-01 5.490614e+02 
3.522000e-01 5.463538e+02 
3.533900e-01 5.436460e+02 
3.546400e-01 5.408444e+02 
3.558400e-01 5.381790e+02 
3.570600e-01 5.354919e+02 
3.582700e-01 5.328494e+02 
3.595000e-01 5.301858e+02 
3.607100e-01 5.275976e+02 
3.618900e-01 5.251021e+02 
3.631200e-01 5.225223e+02 
3.643200e-01 5.200263e+02 
3.655500e-01 5.174890e+02 
3.667300e-01 5.150747e+02 
3.679500e-01 5.126179e+02 
3.691900e-01 5.101414e+02 
3.703600e-01 5.078236e+02 
3.715700e-01 5.054457e+02 
3.727700e-01 5.031062e+02 
3.739900e-01 5.007533e+02 
3.752000e-01 4.984502e+02 
3.763900e-01 4.962030e+02 
3.775800e-01 4.939734e+02 
3.788200e-01 4.916685e+02 
3.800300e-01 4.894373e+02 
3.812100e-01 4.872862e+02 
3.824200e-01 4.851028e+02 
3.836100e-01 4.829721e+02 
3.848600e-01 4.807515e+02 
3.860400e-01 4.786716e+02 
3.872400e-01 4.765725e+02 
3.884600e-01 4.744651e+02 
3.896500e-01 4.724291e+02 
3.908700e-01 4.703577e+02 
3.920600e-01 4.683526e+02 
3.933100e-01 4.662625e+02 
3.945300e-01 4.642384e+02 
3.957200e-01 4.622897e+02 
3.969300e-01 4.603261e+02 
3.981700e-01 4.583292e+02 
3.993500e-01 4.564430e+02 
4.094840e-01 4.408105e+02 
4.272360e-01 4.158462e+02 
4.454600e-01 3.928427e+02 
4.630560e-01 3.727654e+02 
4.804610e-01 3.546775e+02 
4.980690e-01 3.379373e+02 
5.159230e-01 3.223787e+02 
5.317440e-01 3.096531e+02 
5.489640e-01 2.968346e+02 
5.671990e-01 2.843334e+02 
5.838690e-01 2.737649e+02 
6.018840e-01 2.631853e+02 
6.202330e-01 2.532330e+02 
6.379250e-01 2.443309e+02 
6.545410e-01 2.365666e+02 
6.714560e-01 2.291638e+02 
6.892080e-01 2.219135e+02 
7.066010e-01 2.152715e+02 
7.240540e-01 2.090201e+02 
7.420450e-01 2.029765e+02 
7.593780e-01 1.974966e+02 
7.764720e-01 1.923887e+02 
7.942840e-01 1.873589e+02 
8.116170e-01 1.827236e+02 
8.288310e-01 1.783520e+02 
8.462240e-01 1.741450e+02 
8.631980e-01 1.702262e+02 
8.810700e-01 1.662876e+02 
8.989410e-01 1.625265e+02 
9.166330e-01 1.589601e+02 
9.345640e-01 1.554964e+02 
9.515980e-01 1.523320e+02 
9.688720e-01 1.492422e+02 
9.865640e-01 1.461905e+02 
1.031870e+00 1.388640e+02 
1.063490e+00 1.341123e+02 
1.097920e+00 1.292425e+02 
1.134370e+00 1.243913e+02 
1.167730e+00 1.202042e+02 
1.203830e+00 1.159074e+02 
1.240470e+00 1.117902e+02 
1.275790e+00 1.080177e+02 
1.309140e+00 1.046403e+02 
1.342970e+00 1.013574e+02 
1.378420e+00 9.808601e+01 
1.413200e+00 9.501840e+01 
1.448110e+00 9.207699e+01 
1.484090e+00 8.918530e+01 
1.518820e+00 8.651541e+01 
1.552880e+00 8.400176e+01 
1.588630e+00 8.147569e+01 
1.623230e+00 7.913397e+01 
1.657720e+00 7.689378e+01 
1.692450e+00 7.473033e+01 
1.726400e+00 7.269217e+01 
1.762200e+00 7.062617e+01 
1.797880e+00 6.865104e+01 
1.833270e+00 6.676626e+01 
1.869070e+00 6.493302e+01 
1.903200e+00 6.325172e+01 
1.937740e+00 6.161151e+01 
1.973190e+00 5.998776e+01 
2.007440e+00 5.847649e+01 
2.042160e+00 5.699879e+01 
2.077900e+00 5.552980e+01 
2.112390e+00 5.416397e+01 
2.146220e+00 5.286619e+01 
2.181600e+00 5.155502e+01 
2.216930e+00 5.029143e+01 
2.250760e+00 4.912139e+01 
2.286500e+00 4.792575e+01 
2.321770e+00 4.678542e+01 
2.355950e+00 4.571580e+01 
2.391280e+00 4.464419e+01 
2.426240e+00 4.361802e+01 
2.460670e+00 4.263975e+01 
2.495640e+00 4.167766e+01 
2.531080e+00 4.073029e+01 
2.566220e+00 3.982064e+01 
2.600830e+00 3.895255e+01 
2.635080e+00 3.811956e+01 
2.670340e+00 3.728652e+01 
2.705970e+00 3.647018e+01 
2.740040e+00 3.571255e+01 
2.774520e+00 3.496618e+01 
2.809730e+00 3.422649e+01 
2.844390e+00 3.351996e+01 
2.879960e+00 3.281526e+01 
2.914860e+00 3.214306e+01 
2.949410e+00 3.149656e+01 
2.984440e+00 3.085872e+01 
3.019760e+00 3.023346e+01 
3.054730e+00 2.963188e+01 
3.089030e+00 2.905676e+01 
3.124060e+00 2.848540e+01 
3.159560e+00 2.792181e+01 
3.194710e+00 2.737871e+01 
3.229010e+00 2.686317e+01 
3.263320e+00 2.636017e+01 
3.297930e+00 2.586606e+01 
3.332830e+00 2.538020e+01 
3.368040e+00 2.490263e+01 
3.403300e+00 2.443683e+01 
3.438450e+00 2.398419e+01 
3.473060e+00 2.355011e+01 
3.508440e+00 2.311695e+01 
3.543110e+00 2.270342e+01 
3.577470e+00 2.230326e+01 
3.613040e+00 2.189934e+01 
3.648120e+00 2.151040e+01 
3.682910e+00 2.113420e+01 
3.718050e+00 2.076336e+01 
3.753320e+00 2.040029e+01 
3.787980e+00 2.005205e+01 
3.822290e+00 1.971537e+01 
3.857020e+00 1.938235e+01 
3.891920e+00 1.905551e+01 
3.926650e+00 1.873764e+01 
3.961970e+00 1.842198e+01 
3.997360e+00 1.811308e+01 
4.031670e+00 1.782050e+01 
4.066330e+00 1.753147e+01 
4.101420e+00 1.724553e+01 
4.136200e+00 1.696835e+01 
4.170810e+00 1.669871e+01 
4.206250e+00 1.642856e+01 
4.241580e+00 1.616526e+01 
4.276300e+00 1.591227e+01 
4.310970e+00 1.566517e+01 
4.346120e+00 1.542014e+01 
4.380600e+00 1.518504e+01 
4.414730e+00 1.495723e+01 
4.450350e+00 1.472456e+01 
4.485320e+00 1.450101e+01 
4.519810e+00 1.428520e+01 
4.555430e+00 1.406700e+01 
4.590870e+00 1.385455e+01 
4.625480e+00 1.365151e+01 
4.659910e+00 1.345361e+01 
4.695230e+00 1.325480e+01 
4.729960e+00 1.306328e+01 
4.764450e+00 1.287692e+01 
4.799530e+00 1.269126e+01 
4.834910e+00 1.250773e+01 
4.869700e+00 1.233106e+01 
4.904370e+00 1.215845e+01 
4.939450e+00 1.198726e+01 
4.973940e+00 1.182240e+01 
5.008430e+00 1.166065e+01 
5.043810e+00 1.149800e+01 
5.078840e+00 1.134008e+01 
5.113500e+00 1.118675e+01 
5.148890e+00 1.103350e+01 
5.184210e+00 1.088342e+01 
5.219060e+00 1.073816e+01 
5.253660e+00 1.059676e+01 
5.288570e+00 1.045667e+01 
5.323420e+00 1.031951e+01 
5.358440e+00 1.018433e+01 
5.393590e+00 1.005108e+01 
5.428310e+00 9.922036e+00 
5.462800e+00 9.796210e+00 
5.497640e+00 9.671315e+00 
5.532670e+00 9.548157e+00 
5.567280e+00 9.428649e+00 
5.602000e+00 9.310806e+00 
5.637270e+00 9.193453e+00 
5.672410e+00 9.078603e+00 
5.707020e+00 8.967394e+00 
5.742040e+00 8.857018e+00 
5.777430e+00 8.747406e+00 
5.812210e+00 8.641480e+00 
5.846820e+00 8.538062e+00 
5.881610e+00 8.435869e+00 
5.916510e+00 8.335020e+00 
5.951600e+00 8.235512e+00 
5.986560e+00 8.138084e+00 
6.021830e+00 8.041377e+00 
6.056490e+00 7.948050e+00 
6.091160e+00 7.856325e+00 
6.125830e+00 7.766037e+00 
6.161090e+00 7.675763e+00 
6.195760e+00 7.588619e+00 
6.230420e+00 7.502841e+00 
6.265690e+00 7.416914e+00 
6.300950e+00 7.332640e+00 
6.335620e+00 7.251042e+00 
6.370880e+00 7.169317e+00 
6.405550e+00 7.090410e+00 
6.440220e+00 7.012776e+00 
6.475480e+00 6.935002e+00 
6.510150e+00 6.859748e+00 
6.544810e+00 6.785803e+00 
6.580080e+00 6.711665e+00 
6.614750e+00 6.639856e+00 
6.649410e+00 6.569412e+00 
6.684080e+00 6.500021e+00 
6.719340e+00 6.430467e+00 
6.754010e+00 6.363135e+00 
6.788680e+00 6.296934e+00 
6.823940e+00 6.230563e+00 
6.859800e+00 6.164033e+00 
6.894470e+00 6.100833e+00 
6.929140e+00 6.038586e+00 
6.963800e+00 5.977216e+00 
6.999070e+00 5.915646e+00 
7.033730e+00 5.856184e+00 
7.068400e+00 5.797514e+00 
7.103660e+00 5.738661e+00 
7.138330e+00 5.681677e+00 
7.173600e+00 5.624692e+00 
7.208260e+00 5.569447e+00 
7.243530e+00 5.513983e+00 
7.277600e+00 5.461254e+00 
7.312860e+00 5.407530e+00 
7.348120e+00 5.354520e+00 
7.382790e+00 5.303083e+00 
7.417460e+00 5.252454e+00 
7.452720e+00 5.201708e+00 
7.487390e+00 5.152458e+00 
7.522650e+00 5.103016e+00 
7.557320e+00 5.055184e+00 
7.591990e+00 5.008017e+00 
7.627250e+00 4.960657e+00 
7.662510e+00 4.913903e+00 
7.697180e+00 4.868673e+00 
7.731850e+00 4.824069e+00 
7.766510e+00 4.780030e+00 
7.801180e+00 4.736522e+00 
7.836440e+00 4.692971e+00 
7.871110e+00 4.650768e+00 
7.906380e+00 4.608362e+00 
7.941040e+00 4.567199e+00 
7.976310e+00 4.525899e+00 
8.011570e+00 4.485207e+00 
8.046240e+00 4.445679e+00 
8.080900e+00 4.406634e+00 
8.115570e+00 4.368080e+00 
8.150830e+00 4.329488e+00 
8.185500e+00 4.291992e+00 
8.220770e+00 4.254297e+00 
8.255430e+00 4.217691e+00 
8.290100e+00 4.181660e+00 
8.324770e+00 4.146064e+00 
8.359430e+00 4.110889e+00 
8.394700e+00 4.075508e+00 
8.429960e+00 4.040641e+00 
8.464630e+00 4.006844e+00 
8.499890e+00 3.972865e+00 
8.534560e+00 3.939834e+00 
8.569200e+00 3.907202e+00 
