# Parameters:
# omega_b = 0.022776, omega_m = 0.135984, n_s = 0.864173, h = 74.842520, w = -1.000000, sigma_8 = 0.818189
# z = 1.000000
#
# k[1/Mpc] # P(k):
8.694000e-04 1.043616e+04 
2.077466e-03 2.030460e+04 
3.285532e-03 2.732502e+04 
4.493598e-03 3.233449e+04 
5.701664e-03 3.575287e+04 
6.909730e-03 3.792657e+04 
8.117797e-03 3.918480e+04 
9.325863e-03 3.969229e+04 
1.053393e-02 3.959770e+04 
1.174199e-02 3.902843e+04 
1.295006e-02 3.806807e+04 
1.415813e-02 3.682373e+04 
1.536619e-02 3.538090e+04 
1.657426e-02 3.379115e+04 
1.778233e-02 3.206103e+04 
1.899039e-02 3.024854e+04 
2.019846e-02 2.847970e+04 
2.140652e-02 2.683079e+04 
2.261459e-02 2.529020e+04 
2.382266e-02 2.385849e+04 
2.503072e-02 2.254331e+04 
2.623879e-02 2.134538e+04 
2.744685e-02 2.026452e+04 
2.865492e-02 1.929629e+04 
2.986299e-02 1.843302e+04 
3.100100e-02 1.771107e+04 
3.220400e-02 1.703456e+04 
3.288100e-02 1.669127e+04 
3.424300e-02 1.607022e+04 
3.555100e-02 1.554701e+04 
3.686000e-02 1.508465e+04 
3.795000e-02 1.473634e+04 
3.929100e-02 1.434502e+04 
4.039800e-02 1.404280e+04 
4.164000e-02 1.371843e+04 
4.294400e-02 1.338230e+04 
4.415000e-02 1.307450e+04 
4.542900e-02 1.273763e+04 
4.660900e-02 1.242268e+04 
4.782300e-02 1.207887e+04 
4.892900e-02 1.175879e+04 
5.031200e-02 1.134439e+04 
5.155900e-02 1.095775e+04 
5.238100e-02 1.069910e+04 
5.378200e-02 1.025489e+04 
5.513400e-02 9.824880e+03 
5.627600e-02 9.465239e+03 
5.735300e-02 9.133169e+03 
5.870100e-02 8.730957e+03 
5.988700e-02 8.393266e+03 
6.113500e-02 8.056182e+03 
6.225900e-02 7.770829e+03 
6.340100e-02 7.500201e+03 
6.480200e-02 7.193907e+03 
6.601100e-02 6.954568e+03 
6.725500e-02 6.731407e+03 
6.829100e-02 6.564681e+03 
6.958600e-02 6.375176e+03 
7.071100e-02 6.228885e+03 
7.192300e-02 6.087552e+03 
7.307400e-02 5.967253e+03 
7.412300e-02 5.867863e+03 
7.550400e-02 5.750771e+03 
7.663100e-02 5.663372e+03 
7.791200e-02 5.572505e+03 
7.912700e-02 5.491373e+03 
8.027600e-02 5.416999e+03 
8.138400e-02 5.346253e+03 
8.272200e-02 5.260484e+03 
8.406100e-02 5.172786e+03 
8.534100e-02 5.084524e+03 
8.653800e-02 4.997308e+03 
8.759800e-02 4.917405e+03 
8.900300e-02 4.806830e+03 
9.009000e-02 4.717108e+03 
9.113300e-02 4.627404e+03 
9.239600e-02 4.517122e+03 
9.358000e-02 4.411346e+03 
9.496100e-02 4.285516e+03 
9.608400e-02 4.183752e+03 
9.727500e-02 4.077152e+03 
9.852600e-02 3.966050e+03 
9.973800e-02 3.861972e+03 
1.009000e-01 3.765394e+03 
1.020900e-01 3.671511e+03 
1.034000e-01 3.573391e+03 
1.046000e-01 3.488408e+03 
1.057200e-01 3.415754e+03 
1.069100e-01 3.342551e+03 
1.082500e-01 3.268010e+03 
1.093900e-01 3.210081e+03 
1.105400e-01 3.155286e+03 
1.116900e-01 3.106859e+03 
1.129600e-01 3.056422e+03 
1.142000e-01 3.012458e+03 
1.153300e-01 2.974676e+03 
1.166400e-01 2.933965e+03 
1.177800e-01 2.900403e+03 
1.190000e-01 2.865807e+03 
1.201200e-01 2.834508e+03 
1.213400e-01 2.801165e+03 
1.227100e-01 2.762680e+03 
1.238900e-01 2.729717e+03 
1.250700e-01 2.695315e+03 
1.263200e-01 2.658686e+03 
1.275500e-01 2.621182e+03 
1.287500e-01 2.584209e+03 
1.299900e-01 2.544935e+03 
1.311300e-01 2.508577e+03 
1.323500e-01 2.468930e+03 
1.335900e-01 2.428770e+03 
1.347100e-01 2.392243e+03 
1.359800e-01 2.351344e+03 
1.372100e-01 2.311811e+03 
1.384300e-01 2.273392e+03 
1.395700e-01 2.237984e+03 
1.407700e-01 2.201564e+03 
1.420300e-01 2.164396e+03 
1.432800e-01 2.128392e+03 
1.444500e-01 2.096140e+03 
1.456300e-01 2.064312e+03 
1.468900e-01 2.032013e+03 
1.480500e-01 2.003196e+03 
1.491700e-01 1.976493e+03 
1.503800e-01 1.948942e+03 
1.516400e-01 1.921114e+03 
1.528200e-01 1.896701e+03 
1.540200e-01 1.872364e+03 
1.551900e-01 1.850078e+03 
1.564300e-01 1.827156e+03 
1.576600e-01 1.805272e+03 
1.588700e-01 1.784646e+03 
1.600900e-01 1.764268e+03 
1.612700e-01 1.745374e+03 
1.625400e-01 1.725421e+03 
1.637600e-01 1.706624e+03 
1.649500e-01 1.688627e+03 
1.662200e-01 1.669716e+03 
1.674000e-01 1.652144e+03 
1.685000e-01 1.636039e+03 
1.697500e-01 1.617735e+03 
1.710300e-01 1.599019e+03 
1.722200e-01 1.581934e+03 
1.734400e-01 1.563975e+03 
1.746400e-01 1.546591e+03 
1.758700e-01 1.528878e+03 
1.770900e-01 1.511199e+03 
1.782700e-01 1.494395e+03 
1.794600e-01 1.477479e+03 
1.807000e-01 1.459986e+03 
1.819100e-01 1.443214e+03 
1.830100e-01 1.428088e+03 
1.842200e-01 1.411698e+03 
1.855000e-01 1.394667e+03 
1.867000e-01 1.379057e+03 
1.879200e-01 1.363453e+03 
1.890900e-01 1.348779e+03 
1.902800e-01 1.334325e+03 
1.915200e-01 1.319512e+03 
1.926900e-01 1.305851e+03 
1.939000e-01 1.292238e+03 
1.951700e-01 1.278184e+03 
1.963100e-01 1.265859e+03 
1.975100e-01 1.253329e+03 
1.987800e-01 1.240279e+03 
2.000100e-01 1.227933e+03 
2.012500e-01 1.215895e+03 
2.023400e-01 1.205468e+03 
2.036100e-01 1.193533e+03 
2.048900e-01 1.181837e+03 
2.060400e-01 1.171485e+03 
2.072200e-01 1.161020e+03 
2.084200e-01 1.150603e+03 
2.096900e-01 1.139742e+03 
2.109200e-01 1.129381e+03 
2.121100e-01 1.119471e+03 
2.132700e-01 1.109944e+03 
2.145200e-01 1.099824e+03 
2.157200e-01 1.090205e+03 
2.168800e-01 1.081015e+03 
2.180700e-01 1.071716e+03 
2.193400e-01 1.061900e+03 
2.206000e-01 1.052243e+03 
2.217500e-01 1.043551e+03 
2.229500e-01 1.034601e+03 
2.241400e-01 1.025782e+03 
2.253500e-01 1.016934e+03 
2.264900e-01 1.008707e+03 
2.277100e-01 9.999997e+02 
2.289900e-01 9.909699e+02 
2.301500e-01 9.828969e+02 
2.313600e-01 9.745855e+02 
2.325600e-01 9.664497e+02 
2.337700e-01 9.583537e+02 
2.350000e-01 9.502325e+02 
2.362000e-01 9.424317e+02 
2.374100e-01 9.346896e+02 
2.386500e-01 9.268590e+02 
2.399100e-01 9.190073e+02 
2.410400e-01 9.120963e+02 
2.422500e-01 9.047919e+02 
2.435000e-01 8.973427e+02 
2.447300e-01 8.901214e+02 
2.458700e-01 8.835685e+02 
2.470600e-01 8.768097e+02 
2.483300e-01 8.696870e+02 
2.495600e-01 8.629033e+02 
2.507600e-01 8.564035e+02 
2.519600e-01 8.499818e+02 
2.532200e-01 8.433217e+02 
2.543700e-01 8.373537e+02 
2.555500e-01 8.313262e+02 
2.568000e-01 8.250172e+02 
2.580100e-01 8.189833e+02 
2.592400e-01 8.129587e+02 
2.604100e-01 8.073102e+02 
2.616100e-01 8.015829e+02 
2.628400e-01 7.957806e+02 
2.640600e-01 7.901139e+02 
2.652200e-01 7.847951e+02 
2.664300e-01 7.793090e+02 
2.676500e-01 7.738406e+02 
2.688400e-01 7.685805e+02 
2.700700e-01 7.632133e+02 
2.712400e-01 7.581646e+02 
2.724800e-01 7.528733e+02 
2.736700e-01 7.478561e+02 
2.748800e-01 7.428148e+02 
2.761000e-01 7.377880e+02 
2.773200e-01 7.328167e+02 
2.785400e-01 7.279005e+02 
2.797000e-01 7.232770e+02 
2.808900e-01 7.185838e+02 
2.821400e-01 7.137074e+02 
2.833900e-01 7.088846e+02 
2.845500e-01 7.044502e+02 
2.857800e-01 6.997976e+02 
2.870300e-01 6.951206e+02 
2.882100e-01 6.907522e+02 
2.893900e-01 6.864261e+02 
2.906300e-01 6.819263e+02 
2.918900e-01 6.774031e+02 
2.930500e-01 6.732820e+02 
2.942500e-01 6.690607e+02 
2.954200e-01 6.649833e+02 
2.966500e-01 6.607403e+02 
2.978900e-01 6.565074e+02 
2.990400e-01 6.526211e+02 
3.002700e-01 6.485041e+02 
3.015100e-01 6.443956e+02 
3.026800e-01 6.405578e+02 
3.038500e-01 6.367571e+02 
3.050300e-01 6.329610e+02 
3.062600e-01 6.290451e+02 
3.075000e-01 6.251371e+02 
3.087000e-01 6.213927e+02 
3.099100e-01 6.176540e+02 
3.111200e-01 6.139549e+02 
3.123100e-01 6.103570e+02 
3.135300e-01 6.067040e+02 
3.147300e-01 6.031457e+02 
3.159900e-01 5.994459e+02 
3.171800e-01 5.959925e+02 
3.183700e-01 5.925760e+02 
3.196300e-01 5.889933e+02 
3.208400e-01 5.855860e+02 
3.220300e-01 5.822664e+02 
3.232000e-01 5.790407e+02 
3.244300e-01 5.756844e+02 
3.256700e-01 5.723329e+02 
3.269200e-01 5.689867e+02 
3.280800e-01 5.659101e+02 
3.292500e-01 5.628466e+02 
3.304800e-01 5.596592e+02 
3.317100e-01 5.565014e+02 
3.328900e-01 5.534994e+02 
3.340700e-01 5.505240e+02 
3.353600e-01 5.473144e+02 
3.365300e-01 5.444348e+02 
3.377100e-01 5.415560e+02 
3.389200e-01 5.386300e+02 
3.401600e-01 5.356585e+02 
3.413700e-01 5.327975e+02 
3.425300e-01 5.300872e+02 
3.437700e-01 5.272153e+02 
3.449800e-01 5.244377e+02 
3.461800e-01 5.217070e+02 
3.473600e-01 5.190501e+02 
3.485800e-01 5.163395e+02 
3.498100e-01 5.136305e+02 
3.510200e-01 5.109887e+02 
3.522000e-01 5.084343e+02 
3.533900e-01 5.058797e+02 
3.546400e-01 5.032371e+02 
3.558400e-01 5.007230e+02 
3.570600e-01 4.981885e+02 
3.582700e-01 4.956961e+02 
3.595000e-01 4.931840e+02 
3.607100e-01 4.907428e+02 
3.618900e-01 4.883891e+02 
3.631200e-01 4.859559e+02 
3.643200e-01 4.836017e+02 
3.655500e-01 4.812087e+02 
3.667300e-01 4.789317e+02 
3.679500e-01 4.766139e+02 
3.691900e-01 4.742777e+02 
3.703600e-01 4.720911e+02 
3.715700e-01 4.698478e+02 
3.727700e-01 4.676410e+02 
3.739900e-01 4.654211e+02 
3.752000e-01 4.632475e+02 
3.763900e-01 4.611267e+02 
3.775800e-01 4.590225e+02 
3.788200e-01 4.568474e+02 
3.800300e-01 4.547419e+02 
3.812100e-01 4.527113e+02 
3.824200e-01 4.506497e+02 
3.836100e-01 4.486378e+02 
3.848600e-01 4.465412e+02 
3.860400e-01 4.445774e+02 
3.872400e-01 4.425956e+02 
3.884600e-01 4.406052e+02 
3.896500e-01 4.386818e+02 
3.908700e-01 4.367251e+02 
3.920600e-01 4.348310e+02 
3.933100e-01 4.328567e+02 
3.945300e-01 4.309447e+02 
3.957200e-01 4.291030e+02 
3.969300e-01 4.272469e+02 
3.981700e-01 4.253593e+02 
3.993500e-01 4.235765e+02 
4.094840e-01 4.087994e+02 
4.272360e-01 3.851871e+02 
4.454600e-01 3.634364e+02 
4.630560e-01 3.444691e+02 
4.804610e-01 3.274031e+02 
4.980690e-01 3.116313e+02 
5.159230e-01 2.969932e+02 
5.317440e-01 2.850337e+02 
5.489640e-01 2.729978e+02 
5.671990e-01 2.612671e+02 
5.838690e-01 2.513532e+02 
6.018840e-01 2.414313e+02 
6.202330e-01 2.320974e+02 
6.379250e-01 2.237478e+02 
6.545410e-01 2.164637e+02 
6.714560e-01 2.095192e+02 
6.892080e-01 2.027160e+02 
7.066010e-01 1.964844e+02 
7.240540e-01 1.906196e+02 
7.420450e-01 1.849518e+02 
7.593780e-01 1.798149e+02 
7.764720e-01 1.750294e+02 
7.942840e-01 1.703199e+02 
8.116170e-01 1.659841e+02 
8.288310e-01 1.618993e+02 
8.462240e-01 1.579727e+02 
8.631980e-01 1.543198e+02 
8.810700e-01 1.506530e+02 
8.989410e-01 1.471566e+02 
9.166330e-01 1.438461e+02 
9.345640e-01 1.406359e+02 
9.515980e-01 1.377081e+02 
9.688720e-01 1.348541e+02 
9.865640e-01 1.320405e+02 
1.031870e+00 1.253035e+02 
1.063490e+00 1.209504e+02 
1.097920e+00 1.165023e+02 
1.134370e+00 1.120841e+02 
1.167730e+00 1.082815e+02 
1.203830e+00 1.043904e+02 
1.240470e+00 1.006700e+02 
1.275790e+00 9.727031e+01 
1.309140e+00 9.423111e+01 
1.342970e+00 9.128375e+01 
1.378420e+00 8.835049e+01 
1.413200e+00 8.560441e+01 
1.448110e+00 8.297486e+01 
1.484090e+00 8.039240e+01 
1.518820e+00 7.801058e+01 
1.552880e+00 7.577035e+01 
1.588630e+00 7.352061e+01 
1.623230e+00 7.143639e+01 
1.657720e+00 6.944351e+01 
1.692450e+00 6.751978e+01 
1.726400e+00 6.570836e+01 
1.762200e+00 6.387276e+01 
1.797880e+00 6.211823e+01 
1.833270e+00 6.044434e+01 
1.869070e+00 5.881641e+01 
1.903200e+00 5.732330e+01 
1.937740e+00 5.586678e+01 
1.973190e+00 5.442487e+01 
2.007440e+00 5.308267e+01 
2.042160e+00 5.177007e+01 
2.077900e+00 5.046505e+01 
2.112390e+00 4.925142e+01 
2.146220e+00 4.809806e+01 
2.181600e+00 4.693242e+01 
2.216930e+00 4.580880e+01 
2.250760e+00 4.476807e+01 
2.286500e+00 4.370422e+01 
2.321770e+00 4.268924e+01 
2.355950e+00 4.173684e+01 
2.391280e+00 4.078228e+01 
2.426240e+00 3.986777e+01 
2.460670e+00 3.899560e+01 
2.495640e+00 3.813756e+01 
2.531080e+00 3.729220e+01 
2.566220e+00 3.648014e+01 
2.600830e+00 3.570482e+01 
2.635080e+00 3.496049e+01 
2.670340e+00 3.421570e+01 
2.705970e+00 3.348549e+01 
2.740040e+00 3.280750e+01 
2.774520e+00 3.213923e+01 
2.809730e+00 3.147656e+01 
2.844390e+00 3.084327e+01 
2.879960e+00 3.021128e+01 
2.914860e+00 2.960809e+01 
2.949410e+00 2.902767e+01 
2.984440e+00 2.845466e+01 
3.019760e+00 2.789266e+01 
3.054730e+00 2.735171e+01 
3.089030e+00 2.683412e+01 
3.124060e+00 2.631970e+01 
3.159560e+00 2.581200e+01 
3.194710e+00 2.532242e+01 
3.229010e+00 2.485749e+01 
3.263320e+00 2.440348e+01 
3.297930e+00 2.395733e+01 
3.332830e+00 2.351841e+01 
3.368040e+00 2.308667e+01 
3.403300e+00 2.266533e+01 
3.438450e+00 2.225559e+01 
3.473060e+00 2.186252e+01 
3.508440e+00 2.146997e+01 
3.543110e+00 2.109507e+01 
3.577470e+00 2.073199e+01 
3.613040e+00 2.036536e+01 
3.648120e+00 2.001208e+01 
3.682910e+00 1.967022e+01 
3.718050e+00 1.933300e+01 
3.753320e+00 1.900267e+01 
3.787980e+00 1.868564e+01 
3.822290e+00 1.837898e+01 
3.857020e+00 1.807544e+01 
3.891920e+00 1.777739e+01 
3.926650e+00 1.748735e+01 
3.961970e+00 1.719918e+01 
3.997360e+00 1.691697e+01 
4.031670e+00 1.664959e+01 
4.066330e+00 1.638525e+01 
4.101420e+00 1.612367e+01 
4.136200e+00 1.586988e+01 
4.170810e+00 1.562295e+01 
4.206250e+00 1.537533e+01 
4.241580e+00 1.513392e+01 
4.276300e+00 1.490181e+01 
4.310970e+00 1.467500e+01 
4.346120e+00 1.444999e+01 
4.380600e+00 1.423395e+01 
4.414730e+00 1.402456e+01 
4.450350e+00 1.381051e+01 
4.485320e+00 1.360481e+01 
4.519810e+00 1.340609e+01 
4.555430e+00 1.320510e+01 
4.590870e+00 1.300933e+01 
4.625480e+00 1.282210e+01 
4.659910e+00 1.263957e+01 
4.695230e+00 1.245605e+01 
4.729960e+00 1.227921e+01 
4.764450e+00 1.210707e+01 
4.799530e+00 1.193546e+01 
4.834910e+00 1.176580e+01 
4.869700e+00 1.160234e+01 
4.904370e+00 1.144260e+01 
4.939450e+00 1.128413e+01 
4.973940e+00 1.113141e+01 
5.008430e+00 1.098155e+01 
5.043810e+00 1.083075e+01 
5.078840e+00 1.068428e+01 
5.113500e+00 1.054205e+01 
5.148890e+00 1.039978e+01 
5.184210e+00 1.026044e+01 
5.219060e+00 1.012552e+01 
5.253660e+00 9.994094e+00 
5.288570e+00 9.863873e+00 
5.323420e+00 9.736313e+00 
5.358440e+00 9.610540e+00 
5.393590e+00 9.486544e+00 
5.428310e+00 9.366392e+00 
5.462800e+00 9.249194e+00 
5.497640e+00 9.132850e+00 
5.532670e+00 9.018052e+00 
5.567280e+00 8.906625e+00 
5.602000e+00 8.796740e+00 
5.637270e+00 8.687239e+00 
5.672410e+00 8.580051e+00 
5.707020e+00 8.476250e+00 
5.742040e+00 8.373156e+00 
5.777430e+00 8.270756e+00 
5.812210e+00 8.171788e+00 
5.846820e+00 8.075108e+00 
5.881610e+00 7.979552e+00 
5.916510e+00 7.885245e+00 
5.951600e+00 7.792141e+00 
5.986560e+00 7.700957e+00 
6.021830e+00 7.610439e+00 
6.056490e+00 7.523048e+00 
6.091160e+00 7.437125e+00 
6.125830e+00 7.352541e+00 
6.161090e+00 7.267950e+00 
6.195760e+00 7.186254e+00 
6.230420e+00 7.105834e+00 
6.265690e+00 7.025266e+00 
6.300950e+00 6.946193e+00 
6.335620e+00 6.869625e+00 
6.370880e+00 6.792933e+00 
6.405550e+00 6.718854e+00 
6.440220e+00 6.645954e+00 
6.475480e+00 6.572918e+00 
6.510150e+00 6.502232e+00 
6.544810e+00 6.432741e+00 
6.580080e+00 6.363065e+00 
6.614750e+00 6.295574e+00 
6.649410e+00 6.229335e+00 
6.684080e+00 6.164077e+00 
6.719340e+00 6.098662e+00 
6.754010e+00 6.035324e+00 
6.788680e+00 5.973026e+00 
6.823940e+00 5.910565e+00 
6.859800e+00 5.847950e+00 
6.894470e+00 5.788446e+00 
6.929140e+00 5.729829e+00 
6.963800e+00 5.672035e+00 
6.999070e+00 5.614047e+00 
7.033730e+00 5.558016e+00 
7.068400e+00 5.502728e+00 
7.103660e+00 5.447265e+00 
7.138330e+00 5.393555e+00 
7.173600e+00 5.339828e+00 
7.208260e+00 5.287738e+00 
7.243530e+00 5.235440e+00 
7.277600e+00 5.185709e+00 
7.312860e+00 5.135027e+00 
7.348120e+00 5.085017e+00 
7.382790e+00 5.036489e+00 
7.417460e+00 4.988709e+00 
7.452720e+00 4.940810e+00 
7.487390e+00 4.894321e+00 
7.522650e+00 4.847649e+00 
7.557320e+00 4.802485e+00 
7.591990e+00 4.757942e+00 
7.627250e+00 4.713217e+00 
7.662510e+00 4.669061e+00 
7.697180e+00 4.626333e+00 
7.731850e+00 4.584190e+00 
7.766510e+00 4.542579e+00 
7.801180e+00 4.501469e+00 
7.836440e+00 4.460308e+00 
7.871110e+00 4.420416e+00 
7.906380e+00 4.380331e+00 
7.941040e+00 4.341419e+00 
7.976310e+00 4.302372e+00 
8.011570e+00 4.263895e+00 
8.046240e+00 4.226516e+00 
8.080900e+00 4.189593e+00 
8.115570e+00 4.153131e+00 
8.150830e+00 4.116624e+00 
8.185500e+00 4.081151e+00 
8.220770e+00 4.045490e+00 
8.255430e+00 4.010858e+00 
8.290100e+00 3.976763e+00 
8.324770e+00 3.943078e+00 
8.359430e+00 3.909789e+00 
8.394700e+00 3.876306e+00 
8.429960e+00 3.843304e+00 
8.464630e+00 3.811311e+00 
8.499890e+00 3.779144e+00 
8.534560e+00 3.747874e+00 
8.569200e+00 3.716981e+00 
