# Parameters:
# omega_b = 0.022177, omega_m = 0.139567, n_s = 0.887795, h = 77.204724, w = -1.000000, sigma_8 = 0.782283
# z = 1.000000
#
# k[1/Mpc] # P(k):
8.694000e-04 7.478774e+03 
2.077466e-03 1.490178e+04 
3.285532e-03 2.035203e+04 
4.493598e-03 2.434496e+04 
5.701664e-03 2.716618e+04 
6.909730e-03 2.904820e+04 
8.117797e-03 3.022269e+04 
9.325863e-03 3.080787e+04 
1.053393e-02 3.091481e+04 
1.174199e-02 3.064125e+04 
1.295006e-02 3.005039e+04 
1.415813e-02 2.922361e+04 
1.536619e-02 2.822649e+04 
1.657426e-02 2.709728e+04 
1.778233e-02 2.583077e+04 
1.899039e-02 2.445613e+04 
2.019846e-02 2.308860e+04 
2.140652e-02 2.181074e+04 
2.261459e-02 2.061313e+04 
2.382266e-02 1.949335e+04 
2.503072e-02 1.845826e+04 
2.623879e-02 1.750997e+04 
2.744685e-02 1.664944e+04 
2.865492e-02 1.587505e+04 
2.986299e-02 1.518208e+04 
3.100100e-02 1.460094e+04 
3.220400e-02 1.405567e+04 
3.288100e-02 1.377908e+04 
3.424300e-02 1.327966e+04 
3.555100e-02 1.286078e+04 
3.686000e-02 1.249334e+04 
3.795000e-02 1.221878e+04 
3.929100e-02 1.191403e+04 
4.039800e-02 1.168113e+04 
4.164000e-02 1.143308e+04 
4.294400e-02 1.117777e+04 
4.415000e-02 1.094408e+04 
4.542900e-02 1.068717e+04 
4.660900e-02 1.044540e+04 
4.782300e-02 1.017798e+04 
4.892900e-02 9.926388e+03 
5.031200e-02 9.596298e+03 
5.155900e-02 9.283804e+03 
5.238100e-02 9.072594e+03 
5.378200e-02 8.706300e+03 
5.513400e-02 8.347551e+03 
5.627600e-02 8.044813e+03 
5.735300e-02 7.763531e+03 
5.870100e-02 7.420948e+03 
5.988700e-02 7.132155e+03 
6.113500e-02 6.843081e+03 
6.225900e-02 6.597997e+03 
6.340100e-02 6.365495e+03 
6.480200e-02 6.102541e+03 
6.601100e-02 5.897533e+03 
6.725500e-02 5.706944e+03 
6.829100e-02 5.565167e+03 
6.958600e-02 5.404631e+03 
7.071100e-02 5.281384e+03 
7.192300e-02 5.162938e+03 
7.307400e-02 5.062682e+03 
7.412300e-02 4.980277e+03 
7.550400e-02 4.883802e+03 
7.663100e-02 4.812132e+03 
7.791200e-02 4.738031e+03 
7.912700e-02 4.672122e+03 
8.027600e-02 4.611845e+03 
8.138400e-02 4.554595e+03 
8.272200e-02 4.485263e+03 
8.406100e-02 4.414411e+03 
8.534100e-02 4.343136e+03 
8.653800e-02 4.272683e+03 
8.759800e-02 4.208091e+03 
8.900300e-02 4.118585e+03 
9.009000e-02 4.045791e+03 
9.113300e-02 3.972766e+03 
9.239600e-02 3.882698e+03 
9.358000e-02 3.795884e+03 
9.496100e-02 3.691809e+03 
9.608400e-02 3.607085e+03 
9.727500e-02 3.517876e+03 
9.852600e-02 3.423671e+03 
9.973800e-02 3.334834e+03 
1.009000e-01 3.251919e+03 
1.020900e-01 3.170181e+03 
1.034000e-01 3.084284e+03 
1.046000e-01 3.009400e+03 
1.057200e-01 2.944720e+03 
1.069100e-01 2.879375e+03 
1.082500e-01 2.812372e+03 
1.093900e-01 2.760176e+03 
1.105400e-01 2.710730e+03 
1.116900e-01 2.667085e+03 
1.129600e-01 2.621713e+03 
1.142000e-01 2.582497e+03 
1.153300e-01 2.549049e+03 
1.166400e-01 2.513411e+03 
1.177800e-01 2.484564e+03 
1.190000e-01 2.455087e+03 
1.201200e-01 2.429093e+03 
1.213400e-01 2.401524e+03 
1.227100e-01 2.370495e+03 
1.238900e-01 2.344021e+03 
1.250700e-01 2.316688e+03 
1.263200e-01 2.287603e+03 
1.275500e-01 2.257860e+03 
1.287500e-01 2.228430e+03 
1.299900e-01 2.197004e+03 
1.311300e-01 2.167687e+03 
1.323500e-01 2.135393e+03 
1.335900e-01 2.102367e+03 
1.347100e-01 2.071928e+03 
1.359800e-01 2.037555e+03 
1.372100e-01 2.003770e+03 
1.384300e-01 1.970708e+03 
1.395700e-01 1.939705e+03 
1.407700e-01 1.907757e+03 
1.420300e-01 1.874522e+03 
1.432800e-01 1.842337e+03 
1.444500e-01 1.813071e+03 
1.456300e-01 1.784203e+03 
1.468900e-01 1.754783e+03 
1.480500e-01 1.728506e+03 
1.491700e-01 1.704200e+03 
1.503800e-01 1.679178e+03 
1.516400e-01 1.653969e+03 
1.528200e-01 1.632112e+03 
1.540200e-01 1.610328e+03 
1.551900e-01 1.590734e+03 
1.564300e-01 1.570670e+03 
1.576600e-01 1.551724e+03 
1.588700e-01 1.534121e+03 
1.600900e-01 1.516750e+03 
1.612700e-01 1.501011e+03 
1.625400e-01 1.484388e+03 
1.637600e-01 1.468855e+03 
1.649500e-01 1.454056e+03 
1.662200e-01 1.438506e+03 
1.674000e-01 1.424068e+03 
1.685000e-01 1.410834e+03 
1.697500e-01 1.395712e+03 
1.710300e-01 1.380170e+03 
1.722200e-01 1.365979e+03 
1.734400e-01 1.350813e+03 
1.746400e-01 1.336121e+03 
1.758700e-01 1.321060e+03 
1.770900e-01 1.305848e+03 
1.782700e-01 1.291389e+03 
1.794600e-01 1.276698e+03 
1.807000e-01 1.261415e+03 
1.819100e-01 1.246764e+03 
1.830100e-01 1.233427e+03 
1.842200e-01 1.218957e+03 
1.855000e-01 1.203920e+03 
1.867000e-01 1.190064e+03 
1.879200e-01 1.176215e+03 
1.890900e-01 1.163193e+03 
1.902800e-01 1.150364e+03 
1.915200e-01 1.137217e+03 
1.926900e-01 1.125105e+03 
1.939000e-01 1.113069e+03 
1.951700e-01 1.100643e+03 
1.963100e-01 1.089767e+03 
1.975100e-01 1.078761e+03 
1.987800e-01 1.067299e+03 
2.000100e-01 1.056479e+03 
2.012500e-01 1.045981e+03 
2.023400e-01 1.036889e+03 
2.036100e-01 1.026496e+03 
2.048900e-01 1.016362e+03 
2.060400e-01 1.007394e+03 
2.072200e-01 9.983304e+02 
2.084200e-01 9.893497e+02 
2.096900e-01 9.799861e+02 
2.109200e-01 9.710529e+02 
2.121100e-01 9.625354e+02 
2.132700e-01 9.543479e+02 
2.145200e-01 9.456501e+02 
2.157200e-01 9.373958e+02 
2.168800e-01 9.295151e+02 
2.180700e-01 9.215405e+02 
2.193400e-01 9.131305e+02 
2.206000e-01 9.048713e+02 
2.217500e-01 8.974366e+02 
2.229500e-01 8.897821e+02 
2.241400e-01 8.822681e+02 
2.253500e-01 8.747301e+02 
2.264900e-01 8.677215e+02 
2.277100e-01 8.603268e+02 
2.289900e-01 8.526839e+02 
2.301500e-01 8.458504e+02 
2.313600e-01 8.388152e+02 
2.325600e-01 8.319868e+02 
2.337700e-01 8.251911e+02 
2.350000e-01 8.183737e+02 
2.362000e-01 8.118527e+02 
2.374100e-01 8.054133e+02 
2.386500e-01 7.988995e+02 
2.399100e-01 7.923675e+02 
2.410400e-01 7.866598e+02 
2.422500e-01 7.806318e+02 
2.435000e-01 7.744835e+02 
2.447300e-01 7.685283e+02 
2.458700e-01 7.631465e+02 
2.470600e-01 7.575950e+02 
2.483300e-01 7.517436e+02 
2.495600e-01 7.461701e+02 
2.507600e-01 7.408291e+02 
2.519600e-01 7.355516e+02 
2.532200e-01 7.300775e+02 
2.543700e-01 7.251563e+02 
2.555500e-01 7.201750e+02 
2.568000e-01 7.149605e+02 
2.580100e-01 7.099729e+02 
2.592400e-01 7.049601e+02 
2.604100e-01 7.002456e+02 
2.616100e-01 6.954648e+02 
2.628400e-01 6.906210e+02 
2.640600e-01 6.858507e+02 
2.652200e-01 6.813573e+02 
2.664300e-01 6.767222e+02 
2.676500e-01 6.721018e+02 
2.688400e-01 6.676245e+02 
2.700700e-01 6.630354e+02 
2.712400e-01 6.587184e+02 
2.724800e-01 6.541937e+02 
2.736700e-01 6.498816e+02 
2.748800e-01 6.455262e+02 
2.761000e-01 6.411832e+02 
2.773200e-01 6.368881e+02 
2.785400e-01 6.326302e+02 
2.797000e-01 6.286040e+02 
2.808900e-01 6.245171e+02 
2.821400e-01 6.202706e+02 
2.833900e-01 6.160700e+02 
2.845500e-01 6.121871e+02 
2.857800e-01 6.081131e+02 
2.870300e-01 6.040178e+02 
2.882100e-01 6.001928e+02 
2.893900e-01 5.963958e+02 
2.906300e-01 5.924415e+02 
2.918900e-01 5.884667e+02 
2.930500e-01 5.848454e+02 
2.942500e-01 5.811342e+02 
2.954200e-01 5.775436e+02 
2.966500e-01 5.738072e+02 
2.978900e-01 5.700799e+02 
2.990400e-01 5.666579e+02 
3.002700e-01 5.630295e+02 
3.015100e-01 5.594072e+02 
3.026800e-01 5.560236e+02 
3.038500e-01 5.526729e+02 
3.050300e-01 5.493263e+02 
3.062600e-01 5.458715e+02 
3.075000e-01 5.424239e+02 
3.087000e-01 5.391208e+02 
3.099100e-01 5.358228e+02 
3.111200e-01 5.325593e+02 
3.123100e-01 5.293845e+02 
3.135300e-01 5.261612e+02 
3.147300e-01 5.230215e+02 
3.159900e-01 5.197572e+02 
3.171800e-01 5.167096e+02 
3.183700e-01 5.136942e+02 
3.196300e-01 5.105323e+02 
3.208400e-01 5.075254e+02 
3.220300e-01 5.045959e+02 
3.232000e-01 5.017496e+02 
3.244300e-01 4.987881e+02 
3.256700e-01 4.958311e+02 
3.269200e-01 4.928789e+02 
3.280800e-01 4.901645e+02 
3.292500e-01 4.874619e+02 
3.304800e-01 4.846499e+02 
3.317100e-01 4.818643e+02 
3.328900e-01 4.792162e+02 
3.340700e-01 4.765916e+02 
3.353600e-01 4.737608e+02 
3.365300e-01 4.712214e+02 
3.377100e-01 4.686827e+02 
3.389200e-01 4.661025e+02 
3.401600e-01 4.634822e+02 
3.413700e-01 4.609601e+02 
3.425300e-01 4.585713e+02 
3.437700e-01 4.560402e+02 
3.449800e-01 4.535923e+02 
3.461800e-01 4.511858e+02 
3.473600e-01 4.488446e+02 
3.485800e-01 4.464568e+02 
3.498100e-01 4.440705e+02 
3.510200e-01 4.417435e+02 
3.522000e-01 4.394935e+02 
3.533900e-01 4.372434e+02 
3.546400e-01 4.349169e+02 
3.558400e-01 4.327037e+02 
3.570600e-01 4.304726e+02 
3.582700e-01 4.282787e+02 
3.595000e-01 4.260673e+02 
3.607100e-01 4.239191e+02 
3.618900e-01 4.218483e+02 
3.631200e-01 4.197077e+02 
3.643200e-01 4.176366e+02 
3.655500e-01 4.155314e+02 
3.667300e-01 4.135284e+02 
3.679500e-01 4.114905e+02 
3.691900e-01 4.094365e+02 
3.703600e-01 4.075141e+02 
3.715700e-01 4.055419e+02 
3.727700e-01 4.036017e+02 
3.739900e-01 4.016505e+02 
3.752000e-01 3.997406e+02 
3.763900e-01 3.978772e+02 
3.775800e-01 3.960285e+02 
3.788200e-01 3.941174e+02 
3.800300e-01 3.922676e+02 
3.812100e-01 3.904840e+02 
3.824200e-01 3.886736e+02 
3.836100e-01 3.869069e+02 
3.848600e-01 3.850658e+02 
3.860400e-01 3.833414e+02 
3.872400e-01 3.816012e+02 
3.884600e-01 3.798542e+02 
3.896500e-01 3.781663e+02 
3.908700e-01 3.764492e+02 
3.920600e-01 3.747871e+02 
3.933100e-01 3.730546e+02 
3.945300e-01 3.713768e+02 
3.957200e-01 3.697611e+02 
3.969300e-01 3.681329e+02 
3.981700e-01 3.664770e+02 
3.993500e-01 3.649131e+02 
4.094840e-01 3.519555e+02 
4.272360e-01 3.312649e+02 
4.454600e-01 3.122182e+02 
4.630560e-01 2.956191e+02 
4.804610e-01 2.806908e+02 
4.980690e-01 2.668994e+02 
5.159230e-01 2.541020e+02 
5.317440e-01 2.436488e+02 
5.489640e-01 2.331320e+02 
5.671990e-01 2.228826e+02 
5.838690e-01 2.142231e+02 
6.018840e-01 2.055620e+02 
6.202330e-01 1.974195e+02 
6.379250e-01 1.901371e+02 
6.545410e-01 1.837905e+02 
6.714560e-01 1.777458e+02 
6.892080e-01 1.718272e+02 
7.066010e-01 1.664154e+02 
7.240540e-01 1.613250e+02 
7.420450e-01 1.564160e+02 
7.593780e-01 1.519742e+02 
7.764720e-01 1.478423e+02 
7.942840e-01 1.437818e+02 
8.116170e-01 1.400524e+02 
8.288310e-01 1.365466e+02 
8.462240e-01 1.331830e+02 
8.631980e-01 1.300615e+02 
8.810700e-01 1.269334e+02 
8.989410e-01 1.239570e+02 
9.166330e-01 1.211449e+02 
9.345640e-01 1.184236e+02 
9.515980e-01 1.159482e+02 
9.688720e-01 1.135399e+02 
9.865640e-01 1.111715e+02 
1.031870e+00 1.055162e+02 
1.063490e+00 1.018776e+02 
1.097920e+00 9.817103e+01 
1.134370e+00 9.449948e+01 
1.167730e+00 9.134895e+01 
1.203830e+00 8.813228e+01 
1.240470e+00 8.506250e+01 
1.275790e+00 8.226357e+01 
1.309140e+00 7.976339e+01 
1.342970e+00 7.734219e+01 
1.378420e+00 7.493518e+01 
1.413200e+00 7.268347e+01 
1.448110e+00 7.052782e+01 
1.484090e+00 6.841221e+01 
1.518820e+00 6.646086e+01 
1.552880e+00 6.462553e+01 
1.588630e+00 6.278168e+01 
1.623230e+00 6.107389e+01 
1.657720e+00 5.944037e+01 
1.692450e+00 5.786217e+01 
1.726400e+00 5.637579e+01 
1.762200e+00 5.486918e+01 
1.797880e+00 5.342715e+01 
1.833270e+00 5.205140e+01 
1.869070e+00 5.071223e+01 
1.903200e+00 4.948232e+01 
1.937740e+00 4.828189e+01 
1.973190e+00 4.709278e+01 
2.007440e+00 4.598463e+01 
2.042160e+00 4.489941e+01 
2.077900e+00 4.381993e+01 
2.112390e+00 4.281466e+01 
2.146220e+00 4.185887e+01 
2.181600e+00 4.089144e+01 
2.216930e+00 3.995783e+01 
2.250760e+00 3.909232e+01 
2.286500e+00 3.820681e+01 
2.321770e+00 3.736107e+01 
2.355950e+00 3.656633e+01 
2.391280e+00 3.576887e+01 
2.426240e+00 3.500388e+01 
2.460670e+00 3.427354e+01 
2.495640e+00 3.355445e+01 
2.531080e+00 3.284519e+01 
2.566220e+00 3.216294e+01 
2.600830e+00 3.151076e+01 
2.635080e+00 3.088391e+01 
2.670340e+00 3.025561e+01 
2.705970e+00 2.963909e+01 
2.740040e+00 2.906624e+01 
2.774520e+00 2.850115e+01 
2.809730e+00 2.793976e+01 
2.844390e+00 2.740262e+01 
2.879960e+00 2.686589e+01 
2.914860e+00 2.635317e+01 
2.949410e+00 2.585937e+01 
2.984440e+00 2.537098e+01 
3.019760e+00 2.489165e+01 
3.054730e+00 2.442996e+01 
3.089030e+00 2.398725e+01 
3.124060e+00 2.354699e+01 
3.159560e+00 2.311217e+01 
3.194710e+00 2.269218e+01 
3.229010e+00 2.229298e+01 
3.263320e+00 2.190242e+01 
3.297930e+00 2.151840e+01 
3.332830e+00 2.114032e+01 
3.368040e+00 2.076797e+01 
3.403300e+00 2.040420e+01 
3.438450e+00 2.004988e+01 
3.473060e+00 1.970974e+01 
3.508440e+00 1.936959e+01 
3.543110e+00 1.904454e+01 
3.577470e+00 1.872920e+01 
3.613040e+00 1.841060e+01 
3.648120e+00 1.810331e+01 
3.682910e+00 1.780569e+01 
3.718050e+00 1.751171e+01 
3.753320e+00 1.722350e+01 
3.787980e+00 1.694657e+01 
3.822290e+00 1.667845e+01 
3.857020e+00 1.641275e+01 
3.891920e+00 1.615165e+01 
3.926650e+00 1.589726e+01 
3.961970e+00 1.564435e+01 
3.997360e+00 1.539636e+01 
4.031670e+00 1.516127e+01 
4.066330e+00 1.492852e+01 
4.101420e+00 1.469812e+01 
4.136200e+00 1.447426e+01 
4.170810e+00 1.425639e+01 
4.206250e+00 1.403767e+01 
4.241580e+00 1.382433e+01 
4.276300e+00 1.361894e+01 
4.310970e+00 1.341807e+01 
4.346120e+00 1.321864e+01 
4.380600e+00 1.302698e+01 
4.414730e+00 1.284116e+01 
4.450350e+00 1.265091e+01 
4.485320e+00 1.246803e+01 
4.519810e+00 1.229115e+01 
4.555430e+00 1.211213e+01 
4.590870e+00 1.193765e+01 
4.625480e+00 1.177060e+01 
4.659910e+00 1.160771e+01 
4.695230e+00 1.144372e+01 
4.729960e+00 1.128564e+01 
4.764450e+00 1.113164e+01 
4.799530e+00 1.097797e+01 
4.834910e+00 1.082600e+01 
4.869700e+00 1.067942e+01 
4.904370e+00 1.053612e+01 
4.939450e+00 1.039387e+01 
4.973940e+00 1.025664e+01 
5.008430e+00 1.012195e+01 
5.043810e+00 9.986298e+00 
5.078840e+00 9.854457e+00 
5.113500e+00 9.726406e+00 
5.148890e+00 9.598139e+00 
5.184210e+00 9.472486e+00 
5.219060e+00 9.350758e+00 
5.253660e+00 9.232073e+00 
5.288570e+00 9.114452e+00 
5.323420e+00 8.999158e+00 
5.358440e+00 8.885395e+00 
5.393590e+00 8.773220e+00 
5.428310e+00 8.664423e+00 
5.462800e+00 8.558241e+00 
5.497640e+00 8.452815e+00 
5.532670e+00 8.348691e+00 
5.567280e+00 8.247582e+00 
5.602000e+00 8.147856e+00 
5.637270e+00 8.048388e+00 
5.672410e+00 7.950989e+00 
5.707020e+00 7.856652e+00 
5.742040e+00 7.762864e+00 
5.777430e+00 7.669676e+00 
5.812210e+00 7.579599e+00 
5.846820e+00 7.491524e+00 
5.881610e+00 7.404443e+00 
5.916510e+00 7.318490e+00 
5.951600e+00 7.233568e+00 
5.986560e+00 7.150362e+00 
6.021830e+00 7.067754e+00 
6.056490e+00 6.987953e+00 
6.091160e+00 6.909454e+00 
6.125830e+00 6.832169e+00 
6.161090e+00 6.754844e+00 
6.195760e+00 6.680110e+00 
6.230420e+00 6.606533e+00 
6.265690e+00 6.532811e+00 
6.300950e+00 6.460392e+00 
6.335620e+00 6.390261e+00 
6.370880e+00 6.320008e+00 
6.405550e+00 6.252103e+00 
6.440220e+00 6.185256e+00 
6.475480e+00 6.118277e+00 
6.510150e+00 6.053431e+00 
6.544810e+00 5.989640e+00 
6.580080e+00 5.925673e+00 
6.614750e+00 5.863706e+00 
6.649410e+00 5.802847e+00 
6.684080e+00 5.742876e+00 
6.719340e+00 5.682756e+00 
6.754010e+00 5.624526e+00 
6.788680e+00 5.567216e+00 
6.823940e+00 5.509750e+00 
6.859800e+00 5.452139e+00 
6.894470e+00 5.397360e+00 
6.929140e+00 5.343385e+00 
6.963800e+00 5.290163e+00 
6.999070e+00 5.236756e+00 
7.033730e+00 5.185116e+00 
7.068400e+00 5.134157e+00 
7.103660e+00 5.083032e+00 
7.138330e+00 5.033509e+00 
7.173600e+00 4.983947e+00 
7.208260e+00 4.935891e+00 
7.243530e+00 4.887639e+00 
7.277600e+00 4.841737e+00 
7.312860e+00 4.794938e+00 
7.348120e+00 4.748758e+00 
7.382790e+00 4.703942e+00 
7.417460e+00 4.659802e+00 
7.452720e+00 4.615541e+00 
7.487390e+00 4.572581e+00 
7.522650e+00 4.529450e+00 
7.557320e+00 4.487691e+00 
7.591990e+00 4.446498e+00 
7.627250e+00 4.405133e+00 
7.662510e+00 4.364292e+00 
7.697180e+00 4.324755e+00 
7.731850e+00 4.285752e+00 
7.766510e+00 4.247239e+00 
7.801180e+00 4.209187e+00 
7.836440e+00 4.171077e+00 
7.871110e+00 4.134133e+00 
7.906380e+00 4.097008e+00 
7.941040e+00 4.060968e+00 
7.976310e+00 4.024793e+00 
8.011570e+00 3.989135e+00 
8.046240e+00 3.954493e+00 
8.080900e+00 3.920271e+00 
8.115570e+00 3.886473e+00 
8.150830e+00 3.852620e+00 
8.185500e+00 3.819725e+00 
8.220770e+00 3.786655e+00 
8.255430e+00 3.754536e+00 
8.290100e+00 3.722900e+00 
8.324770e+00 3.691642e+00 
8.359430e+00 3.660750e+00 
8.394700e+00 3.629676e+00 
8.429960e+00 3.599043e+00 
8.464630e+00 3.569341e+00 
8.499890e+00 3.539476e+00 
8.534560e+00 3.510442e+00 
8.569200e+00 3.481758e+00 
