# Parameters:
# omega_b = 0.022618, omega_m = 0.123858, n_s = 0.856299, h = 84.291339, w = -1.000000, sigma_8 = 0.732913
# z = 1.000000
#
# k[1/Mpc] # P(k):
8.694000e-04 1.100998e+04 
2.077466e-03 2.098771e+04 
3.285532e-03 2.785323e+04 
4.493598e-03 3.252367e+04 
5.701664e-03 3.552392e+04 
6.909730e-03 3.724913e+04 
8.117797e-03 3.805801e+04 
9.325863e-03 3.813149e+04 
1.053393e-02 3.763174e+04 
1.174199e-02 3.669632e+04 
1.295006e-02 3.541382e+04 
1.415813e-02 3.389459e+04 
1.536619e-02 3.222527e+04 
1.657426e-02 3.045700e+04 
1.778233e-02 2.859179e+04 
1.899039e-02 2.667319e+04 
2.019846e-02 2.482892e+04 
2.140652e-02 2.314262e+04 
2.261459e-02 2.160063e+04 
2.382266e-02 2.019608e+04 
2.503072e-02 1.892981e+04 
2.623879e-02 1.779761e+04 
2.744685e-02 1.679687e+04 
2.865492e-02 1.591710e+04 
2.986299e-02 1.514723e+04 
3.100100e-02 1.451644e+04 
3.220400e-02 1.393672e+04 
3.288100e-02 1.364792e+04 
3.424300e-02 1.313383e+04 
3.555100e-02 1.270893e+04 
3.686000e-02 1.233967e+04 
3.795000e-02 1.206428e+04 
3.929100e-02 1.175621e+04 
4.039800e-02 1.151692e+04 
4.164000e-02 1.125725e+04 
4.294400e-02 1.098111e+04 
4.415000e-02 1.072291e+04 
4.542900e-02 1.043174e+04 
4.660900e-02 1.015437e+04 
4.782300e-02 9.844137e+03 
4.892900e-02 9.551935e+03 
5.031200e-02 9.169624e+03 
5.155900e-02 8.810641e+03 
5.238100e-02 8.570210e+03 
5.378200e-02 8.157862e+03 
5.513400e-02 7.760937e+03 
5.627600e-02 7.431742e+03 
5.735300e-02 7.130691e+03 
5.870100e-02 6.770651e+03 
5.988700e-02 6.472872e+03 
6.113500e-02 6.180443e+03 
6.225900e-02 5.937525e+03 
6.340100e-02 5.711607e+03 
6.480200e-02 5.461076e+03 
6.601100e-02 5.270887e+03 
6.725500e-02 5.098208e+03 
6.829100e-02 4.973214e+03 
6.958600e-02 4.834545e+03 
7.071100e-02 4.730973e+03 
7.192300e-02 4.633724e+03 
7.307400e-02 4.553167e+03 
7.412300e-02 4.488015e+03 
7.550400e-02 4.412681e+03 
7.663100e-02 4.356775e+03 
7.791200e-02 4.298014e+03 
7.912700e-02 4.243744e+03 
8.027600e-02 4.192002e+03 
8.138400e-02 4.140788e+03 
8.272200e-02 4.075682e+03 
8.406100e-02 4.005919e+03 
8.534100e-02 3.932427e+03 
8.653800e-02 3.857663e+03 
8.759800e-02 3.788185e+03 
8.900300e-02 3.690886e+03 
9.009000e-02 3.611392e+03 
9.113300e-02 3.531854e+03 
9.239600e-02 3.434252e+03 
9.358000e-02 3.341029e+03 
9.496100e-02 3.231029e+03 
9.608400e-02 3.142780e+03 
9.727500e-02 3.050970e+03 
9.852600e-02 2.956707e+03 
9.973800e-02 2.869255e+03 
1.009000e-01 2.788812e+03 
1.020900e-01 2.712259e+03 
1.034000e-01 2.633171e+03 
1.046000e-01 2.565610e+03 
1.057200e-01 2.509463e+03 
1.069100e-01 2.453533e+03 
1.082500e-01 2.398403e+03 
1.093900e-01 2.356724e+03 
1.105400e-01 2.318006e+03 
1.116900e-01 2.285351e+03 
1.129600e-01 2.251853e+03 
1.142000e-01 2.223867e+03 
1.153300e-01 2.200091e+03 
1.166400e-01 2.174923e+03 
1.177800e-01 2.154064e+03 
1.190000e-01 2.132519e+03 
1.201200e-01 2.112102e+03 
1.213400e-01 2.090193e+03 
1.227100e-01 2.062869e+03 
1.238900e-01 2.039000e+03 
1.250700e-01 2.012594e+03 
1.263200e-01 1.983930e+03 
1.275500e-01 1.953404e+03 
1.287500e-01 1.922830e+03 
1.299900e-01 1.889627e+03 
1.311300e-01 1.858660e+03 
1.323500e-01 1.824554e+03 
1.335900e-01 1.790012e+03 
1.347100e-01 1.758582e+03 
1.359800e-01 1.723550e+03 
1.372100e-01 1.689949e+03 
1.384300e-01 1.657525e+03 
1.395700e-01 1.628098e+03 
1.407700e-01 1.597945e+03 
1.420300e-01 1.567939e+03 
1.432800e-01 1.538907e+03 
1.444500e-01 1.513722e+03 
1.456300e-01 1.488888e+03 
1.468900e-01 1.464278e+03 
1.480500e-01 1.442507e+03 
1.491700e-01 1.422606e+03 
1.503800e-01 1.402424e+03 
1.516400e-01 1.382128e+03 
1.528200e-01 1.364708e+03 
1.540200e-01 1.347342e+03 
1.551900e-01 1.331662e+03 
1.564300e-01 1.315590e+03 
1.576600e-01 1.300280e+03 
1.588700e-01 1.285890e+03 
1.600900e-01 1.271666e+03 
1.612700e-01 1.258359e+03 
1.625400e-01 1.244305e+03 
1.637600e-01 1.230885e+03 
1.649500e-01 1.217930e+03 
1.662200e-01 1.204258e+03 
1.674000e-01 1.191222e+03 
1.685000e-01 1.179277e+03 
1.697500e-01 1.165501e+03 
1.710300e-01 1.151224e+03 
1.722200e-01 1.138193e+03 
1.734400e-01 1.124176e+03 
1.746400e-01 1.110600e+03 
1.758700e-01 1.096708e+03 
1.770900e-01 1.082717e+03 
1.782700e-01 1.069428e+03 
1.794600e-01 1.056014e+03 
1.807000e-01 1.042124e+03 
1.819100e-01 1.028816e+03 
1.830100e-01 1.016866e+03 
1.842200e-01 1.003934e+03 
1.855000e-01 9.905119e+02 
1.867000e-01 9.783537e+02 
1.879200e-01 9.662072e+02 
1.890900e-01 9.548216e+02 
1.902800e-01 9.437699e+02 
1.915200e-01 9.324481e+02 
1.926900e-01 9.220555e+02 
1.939000e-01 9.118476e+02 
1.951700e-01 9.013116e+02 
1.963100e-01 8.921163e+02 
1.975100e-01 8.828807e+02 
1.987800e-01 8.732631e+02 
2.000100e-01 8.641934e+02 
2.012500e-01 8.554140e+02 
2.023400e-01 8.478102e+02 
2.036100e-01 8.391130e+02 
2.048900e-01 8.306069e+02 
2.060400e-01 8.230793e+02 
2.072200e-01 8.154674e+02 
2.084200e-01 8.078577e+02 
2.096900e-01 7.999247e+02 
2.109200e-01 7.923574e+02 
2.121100e-01 7.850567e+02 
2.132700e-01 7.780358e+02 
2.145200e-01 7.705787e+02 
2.157200e-01 7.634428e+02 
2.168800e-01 7.566038e+02 
2.180700e-01 7.496849e+02 
2.193400e-01 7.423652e+02 
2.206000e-01 7.351327e+02 
2.217500e-01 7.286241e+02 
2.229500e-01 7.219251e+02 
2.241400e-01 7.153016e+02 
2.253500e-01 7.086578e+02 
2.264900e-01 7.024827e+02 
2.277100e-01 6.959574e+02 
2.289900e-01 6.892018e+02 
2.301500e-01 6.831638e+02 
2.313600e-01 6.769497e+02 
2.325600e-01 6.709116e+02 
2.337700e-01 6.649045e+02 
2.350000e-01 6.588804e+02 
2.362000e-01 6.531223e+02 
2.374100e-01 6.474406e+02 
2.386500e-01 6.416952e+02 
2.399100e-01 6.359357e+02 
2.410400e-01 6.309179e+02 
2.422500e-01 6.256219e+02 
2.435000e-01 6.202219e+02 
2.447300e-01 6.149972e+02 
2.458700e-01 6.102940e+02 
2.470600e-01 6.054437e+02 
2.483300e-01 6.003329e+02 
2.495600e-01 5.954778e+02 
2.507600e-01 5.908426e+02 
2.519600e-01 5.862636e+02 
2.532200e-01 5.815152e+02 
2.543700e-01 5.772635e+02 
2.555500e-01 5.729718e+02 
2.568000e-01 5.684801e+02 
2.580100e-01 5.641848e+02 
2.592400e-01 5.598877e+02 
2.604100e-01 5.558556e+02 
2.616100e-01 5.517676e+02 
2.628400e-01 5.476265e+02 
2.640600e-01 5.435650e+02 
2.652200e-01 5.397462e+02 
2.664300e-01 5.358077e+02 
2.676500e-01 5.318825e+02 
2.688400e-01 5.280890e+02 
2.700700e-01 5.242073e+02 
2.712400e-01 5.205565e+02 
2.724800e-01 5.167308e+02 
2.736700e-01 5.130901e+02 
2.748800e-01 5.094184e+02 
2.761000e-01 5.057578e+02 
2.773200e-01 5.021382e+02 
2.785400e-01 4.985518e+02 
2.797000e-01 4.951634e+02 
2.808900e-01 4.917245e+02 
2.821400e-01 4.881521e+02 
2.833900e-01 4.846190e+02 
2.845500e-01 4.813538e+02 
2.857800e-01 4.779286e+02 
2.870300e-01 4.744862e+02 
2.882100e-01 4.712716e+02 
2.893900e-01 4.680804e+02 
2.906300e-01 4.647573e+02 
2.918900e-01 4.614176e+02 
2.930500e-01 4.583756e+02 
2.942500e-01 4.552586e+02 
2.954200e-01 4.522434e+02 
2.966500e-01 4.491064e+02 
2.978900e-01 4.459776e+02 
2.990400e-01 4.431057e+02 
3.002700e-01 4.400615e+02 
3.015100e-01 4.370230e+02 
3.026800e-01 4.341854e+02 
3.038500e-01 4.313759e+02 
3.050300e-01 4.285705e+02 
3.062600e-01 4.256769e+02 
3.075000e-01 4.227899e+02 
3.087000e-01 4.200244e+02 
3.099100e-01 4.172638e+02 
3.111200e-01 4.145337e+02 
3.123100e-01 4.118804e+02 
3.135300e-01 4.091870e+02 
3.147300e-01 4.065640e+02 
3.159900e-01 4.038374e+02 
3.171800e-01 4.012950e+02 
3.183700e-01 3.987816e+02 
3.196300e-01 3.961466e+02 
3.208400e-01 3.936411e+02 
3.220300e-01 3.912007e+02 
3.232000e-01 3.888330e+02 
3.244300e-01 3.863712e+02 
3.256700e-01 3.839135e+02 
3.269200e-01 3.814601e+02 
3.280800e-01 3.792049e+02 
3.292500e-01 3.769628e+02 
3.304800e-01 3.746313e+02 
3.317100e-01 3.723220e+02 
3.328900e-01 3.701271e+02 
3.340700e-01 3.679520e+02 
3.353600e-01 3.656097e+02 
3.365300e-01 3.635099e+02 
3.377100e-01 3.614111e+02 
3.389200e-01 3.592783e+02 
3.401600e-01 3.571128e+02 
3.413700e-01 3.550305e+02 
3.425300e-01 3.530599e+02 
3.437700e-01 3.509721e+02 
3.449800e-01 3.489534e+02 
3.461800e-01 3.469690e+02 
3.473600e-01 3.450396e+02 
3.485800e-01 3.430739e+02 
3.498100e-01 3.411098e+02 
3.510200e-01 3.391947e+02 
3.522000e-01 3.373432e+02 
3.533900e-01 3.354920e+02 
3.546400e-01 3.335801e+02 
3.558400e-01 3.317615e+02 
3.570600e-01 3.299287e+02 
3.582700e-01 3.281265e+02 
3.595000e-01 3.263103e+02 
3.607100e-01 3.245470e+02 
3.618900e-01 3.228481e+02 
3.631200e-01 3.210921e+02 
3.643200e-01 3.193935e+02 
3.655500e-01 3.176670e+02 
3.667300e-01 3.160246e+02 
3.679500e-01 3.143547e+02 
3.691900e-01 3.126717e+02 
3.703600e-01 3.110968e+02 
3.715700e-01 3.094812e+02 
3.727700e-01 3.078922e+02 
3.739900e-01 3.062944e+02 
3.752000e-01 3.047309e+02 
3.763900e-01 3.032056e+02 
3.775800e-01 3.016926e+02 
3.788200e-01 3.001287e+02 
3.800300e-01 2.986151e+02 
3.812100e-01 2.971561e+02 
3.824200e-01 2.956754e+02 
3.836100e-01 2.942307e+02 
3.848600e-01 2.927253e+02 
3.860400e-01 2.913156e+02 
3.872400e-01 2.898930e+02 
3.884600e-01 2.884652e+02 
3.896500e-01 2.870861e+02 
3.908700e-01 2.856831e+02 
3.920600e-01 2.843253e+02 
3.933100e-01 2.829102e+02 
3.945300e-01 2.815399e+02 
3.957200e-01 2.802204e+02 
3.969300e-01 2.788907e+02 
3.981700e-01 2.775387e+02 
3.993500e-01 2.762619e+02 
4.094840e-01 2.656938e+02 
4.272360e-01 2.488508e+02 
4.454600e-01 2.334007e+02 
4.630560e-01 2.199899e+02 
4.804610e-01 2.079808e+02 
4.980690e-01 1.969338e+02 
5.159230e-01 1.867262e+02 
5.317440e-01 1.784182e+02 
5.489640e-01 1.700873e+02 
5.671990e-01 1.619921e+02 
5.838690e-01 1.551692e+02 
6.018840e-01 1.483626e+02 
6.202330e-01 1.419782e+02 
6.379250e-01 1.362773e+02 
6.545410e-01 1.313190e+02 
6.714560e-01 1.266069e+02 
6.892080e-01 1.219992e+02 
7.066010e-01 1.177969e+02 
7.240540e-01 1.138505e+02 
7.420450e-01 1.100563e+02 
7.593780e-01 1.066324e+02 
7.764720e-01 1.034557e+02 
7.942840e-01 1.003420e+02 
8.116170e-01 9.749280e+01 
8.288310e-01 9.482400e+01 
8.462240e-01 9.227251e+01 
8.631980e-01 8.991381e+01 
8.810700e-01 8.755829e+01 
8.989410e-01 8.532607e+01 
9.166330e-01 8.322570e+01 
9.345640e-01 8.120121e+01 
9.515980e-01 7.936837e+01 
9.688720e-01 7.759271e+01 
9.865640e-01 7.585477e+01 
1.031870e+00 7.173319e+01 
1.063490e+00 6.910660e+01 
1.097920e+00 6.645110e+01 
1.134370e+00 6.384089e+01 
1.167730e+00 6.161787e+01 
1.203830e+00 5.936542e+01 
1.240470e+00 5.722871e+01 
1.275790e+00 5.529527e+01 
1.309140e+00 5.357514e+01 
1.342970e+00 5.192073e+01 
1.378420e+00 5.028253e+01 
1.413200e+00 4.875765e+01 
1.448110e+00 4.730399e+01 
1.484090e+00 4.588249e+01 
1.518820e+00 4.457607e+01 
1.552880e+00 4.335152e+01 
1.588630e+00 4.212447e+01 
1.623230e+00 4.099119e+01 
1.657720e+00 3.990940e+01 
1.692450e+00 3.886621e+01 
1.726400e+00 3.788619e+01 
1.762200e+00 3.689474e+01 
1.797880e+00 3.594672e+01 
1.833270e+00 3.504393e+01 
1.869070e+00 3.416635e+01 
1.903200e+00 3.336062e+01 
1.937740e+00 3.257505e+01 
1.973190e+00 3.179783e+01 
2.007440e+00 3.107380e+01 
2.042160e+00 3.036488e+01 
2.077900e+00 2.966034e+01 
2.112390e+00 2.900411e+01 
2.146220e+00 2.838078e+01 
2.181600e+00 2.774960e+01 
2.216930e+00 2.714061e+01 
2.250760e+00 2.657608e+01 
2.286500e+00 2.599849e+01 
2.321770e+00 2.544680e+01 
2.355950e+00 2.492811e+01 
2.391280e+00 2.440759e+01 
2.426240e+00 2.390791e+01 
2.460670e+00 2.343071e+01 
2.495640e+00 2.296079e+01 
2.531080e+00 2.249711e+01 
2.566220e+00 2.205079e+01 
2.600830e+00 2.162385e+01 
2.635080e+00 2.121317e+01 
2.670340e+00 2.080118e+01 
2.705970e+00 2.039675e+01 
2.740040e+00 2.002079e+01 
2.774520e+00 1.964975e+01 
2.809730e+00 1.928065e+01 
2.844390e+00 1.892719e+01 
2.879960e+00 1.857368e+01 
2.914860e+00 1.823575e+01 
2.949410e+00 1.791005e+01 
2.984440e+00 1.758745e+01 
3.019760e+00 1.727065e+01 
3.054730e+00 1.696535e+01 
3.089030e+00 1.667206e+01 
3.124060e+00 1.638024e+01 
3.159560e+00 1.609185e+01 
3.194710e+00 1.581287e+01 
3.229010e+00 1.554747e+01 
3.263320e+00 1.528733e+01 
3.297930e+00 1.503144e+01 
3.332830e+00 1.477939e+01 
3.368040e+00 1.453078e+01 
3.403300e+00 1.428761e+01 
3.438450e+00 1.405037e+01 
3.473060e+00 1.382249e+01 
3.508440e+00 1.359429e+01 
3.543110e+00 1.337610e+01 
3.577470e+00 1.316402e+01 
3.613040e+00 1.294963e+01 
3.648120e+00 1.274261e+01 
3.682910e+00 1.254192e+01 
3.718050e+00 1.234340e+01 
3.753320e+00 1.214859e+01 
3.787980e+00 1.196116e+01 
3.822290e+00 1.177950e+01 
3.857020e+00 1.159921e+01 
3.891920e+00 1.142191e+01 
3.926650e+00 1.124892e+01 
3.961970e+00 1.107680e+01 
3.997360e+00 1.090775e+01 
4.031670e+00 1.074740e+01 
4.066330e+00 1.058841e+01 
4.101420e+00 1.043098e+01 
4.136200e+00 1.027771e+01 
4.170810e+00 1.012849e+01 
4.206250e+00 9.978444e+00 
4.241580e+00 9.832018e+00 
4.276300e+00 9.690842e+00 
4.310970e+00 9.552639e+00 
4.346120e+00 9.415310e+00 
4.380600e+00 9.283142e+00 
4.414730e+00 9.154968e+00 
4.450350e+00 9.023451e+00 
4.485320e+00 8.897004e+00 
4.519810e+00 8.774534e+00 
4.555430e+00 8.650487e+00 
4.590870e+00 8.529486e+00 
4.625480e+00 8.413475e+00 
4.659910e+00 8.300324e+00 
4.695230e+00 8.186211e+00 
4.729960e+00 8.076153e+00 
4.764450e+00 7.968849e+00 
4.799530e+00 7.861623e+00 
4.834910e+00 7.755571e+00 
4.869700e+00 7.653111e+00 
4.904370e+00 7.552898e+00 
4.939450e+00 7.453356e+00 
4.973940e+00 7.357187e+00 
5.008430e+00 7.262782e+00 
5.043810e+00 7.167576e+00 
5.078840e+00 7.074968e+00 
5.113500e+00 6.985006e+00 
5.148890e+00 6.894748e+00 
5.184210e+00 6.806309e+00 
5.219060e+00 6.720582e+00 
5.253660e+00 6.636876e+00 
5.288570e+00 6.553908e+00 
5.323420e+00 6.472513e+00 
5.358440e+00 6.392123e+00 
5.393590e+00 6.312846e+00 
5.428310e+00 6.235865e+00 
5.462800e+00 6.160684e+00 
5.497640e+00 6.086029e+00 
5.532670e+00 6.012204e+00 
5.567280e+00 5.940483e+00 
5.602000e+00 5.869735e+00 
5.637270e+00 5.799083e+00 
5.672410e+00 5.729876e+00 
5.707020e+00 5.662838e+00 
5.742040e+00 5.596103e+00 
5.777430e+00 5.529771e+00 
5.812210e+00 5.465649e+00 
5.846820e+00 5.402887e+00 
5.881610e+00 5.340813e+00 
5.916510e+00 5.279538e+00 
5.951600e+00 5.218938e+00 
5.986560e+00 5.159534e+00 
6.021830e+00 5.100552e+00 
6.056490e+00 5.043534e+00 
6.091160e+00 4.987409e+00 
6.125830e+00 4.932149e+00 
6.161090e+00 4.876842e+00 
6.195760e+00 4.823348e+00 
6.230420e+00 4.770681e+00 
6.265690e+00 4.717904e+00 
6.300950e+00 4.665999e+00 
6.335620e+00 4.615731e+00 
6.370880e+00 4.565373e+00 
6.405550e+00 4.516669e+00 
6.440220e+00 4.468709e+00 
6.475480e+00 4.420653e+00 
6.510150e+00 4.374112e+00 
6.544810e+00 4.328296e+00 
6.580080e+00 4.282351e+00 
6.614750e+00 4.237841e+00 
6.649410e+00 4.194100e+00 
6.684080e+00 4.150992e+00 
6.719340e+00 4.107775e+00 
6.754010e+00 4.065908e+00 
6.788680e+00 4.024685e+00 
6.823940e+00 3.983348e+00 
6.859800e+00 3.941906e+00 
6.894470e+00 3.902484e+00 
6.929140e+00 3.863632e+00 
6.963800e+00 3.825322e+00 
6.999070e+00 3.786877e+00 
7.033730e+00 3.749680e+00 
7.068400e+00 3.712973e+00 
7.103660e+00 3.676146e+00 
7.138330e+00 3.640470e+00 
7.173600e+00 3.604759e+00 
7.208260e+00 3.570133e+00 
7.243530e+00 3.535365e+00 
7.277600e+00 3.502285e+00 
7.312860e+00 3.468554e+00 
7.348120e+00 3.435268e+00 
7.382790e+00 3.402965e+00 
7.417460e+00 3.371144e+00 
7.452720e+00 3.339233e+00 
7.487390e+00 3.308258e+00 
7.522650e+00 3.277159e+00 
7.557320e+00 3.247050e+00 
7.591990e+00 3.217349e+00 
7.627250e+00 3.187524e+00 
7.662510e+00 3.158076e+00 
7.697180e+00 3.129565e+00 
7.731850e+00 3.101437e+00 
7.766510e+00 3.073662e+00 
7.801180e+00 3.046220e+00 
7.836440e+00 3.018737e+00 
7.871110e+00 2.992097e+00 
7.906380e+00 2.965326e+00 
7.941040e+00 2.939336e+00 
7.976310e+00 2.913253e+00 
8.011570e+00 2.887546e+00 
8.046240e+00 2.862571e+00 
8.080900e+00 2.837898e+00 
8.115570e+00 2.813531e+00 
8.150830e+00 2.789128e+00 
8.185500e+00 2.765415e+00 
8.220770e+00 2.741575e+00 
8.255430e+00 2.718420e+00 
8.290100e+00 2.695623e+00 
8.324770e+00 2.673098e+00 
8.359430e+00 2.650837e+00 
8.394700e+00 2.628444e+00 
8.429960e+00 2.606373e+00 
8.464630e+00 2.584978e+00 
8.499890e+00 2.563464e+00 
8.534560e+00 2.542549e+00 
8.569200e+00 2.521885e+00 
