# Parameters:
# omega_b = 0.022902, omega_m = 0.152795, n_s = 0.901969, h = 80.039370, w = -1.000000, sigma_8 = 0.750866
# z = 1.000000
#
# k[1/Mpc] # P(k):
8.694000e-04 4.746687e+03 
2.077466e-03 9.659662e+03 
3.285532e-03 1.339656e+04 
4.493598e-03 1.624617e+04 
5.701664e-03 1.835173e+04 
6.909730e-03 1.984582e+04 
8.117797e-03 2.086956e+04 
9.325863e-03 2.149409e+04 
1.053393e-02 2.178703e+04 
1.174199e-02 2.180827e+04 
1.295006e-02 2.159773e+04 
1.415813e-02 2.120815e+04 
1.536619e-02 2.068115e+04 
1.657426e-02 2.003684e+04 
1.778233e-02 1.924237e+04 
1.899039e-02 1.830008e+04 
2.019846e-02 1.734329e+04 
2.140652e-02 1.646332e+04 
2.261459e-02 1.563957e+04 
2.382266e-02 1.486026e+04 
2.503072e-02 1.413016e+04 
2.623879e-02 1.345261e+04 
2.744685e-02 1.282939e+04 
2.865492e-02 1.226219e+04 
2.986299e-02 1.174954e+04 
3.100100e-02 1.131563e+04 
3.220400e-02 1.090576e+04 
3.288100e-02 1.069702e+04 
3.424300e-02 1.031963e+04 
3.555100e-02 1.000370e+04 
3.686000e-02 9.728476e+03 
3.795000e-02 9.524864e+03 
3.929100e-02 9.302915e+03 
4.039800e-02 9.136506e+03 
4.164000e-02 8.962196e+03 
4.294400e-02 8.786448e+03 
4.415000e-02 8.626973e+03 
4.542900e-02 8.452253e+03 
4.660900e-02 8.287177e+03 
4.782300e-02 8.102102e+03 
4.892900e-02 7.925708e+03 
5.031200e-02 7.690123e+03 
5.155900e-02 7.462420e+03 
5.238100e-02 7.306144e+03 
5.378200e-02 7.031033e+03 
5.513400e-02 6.756502e+03 
5.627600e-02 6.521324e+03 
5.735300e-02 6.300344e+03 
5.870100e-02 6.028290e+03 
5.988700e-02 5.796871e+03 
6.113500e-02 5.563494e+03 
6.225900e-02 5.364403e+03 
6.340100e-02 5.174665e+03 
6.480200e-02 4.959377e+03 
6.601100e-02 4.791052e+03 
6.725500e-02 4.634346e+03 
6.829100e-02 4.517726e+03 
6.958600e-02 4.385735e+03 
7.071100e-02 4.284512e+03 
7.192300e-02 4.187402e+03 
7.307400e-02 4.105409e+03 
7.412300e-02 4.038215e+03 
7.550400e-02 3.959930e+03 
7.663100e-02 3.902072e+03 
7.791200e-02 3.842789e+03 
7.912700e-02 3.790643e+03 
8.027600e-02 3.743466e+03 
8.138400e-02 3.699121e+03 
8.272200e-02 3.646068e+03 
8.406100e-02 3.592519e+03 
8.534100e-02 3.539364e+03 
8.653800e-02 3.487274e+03 
8.759800e-02 3.439711e+03 
8.900300e-02 3.373983e+03 
9.009000e-02 3.320526e+03 
9.113300e-02 3.266700e+03 
9.239600e-02 3.200011e+03 
9.358000e-02 3.135229e+03 
9.496100e-02 3.056518e+03 
9.608400e-02 2.991685e+03 
9.727500e-02 2.922786e+03 
9.852600e-02 2.848298e+03 
9.973800e-02 2.777198e+03 
1.009000e-01 2.710138e+03 
1.020900e-01 2.642338e+03 
1.034000e-01 2.570348e+03 
1.046000e-01 2.506824e+03 
1.057200e-01 2.450847e+03 
1.069100e-01 2.393959e+03 
1.082500e-01 2.334711e+03 
1.093900e-01 2.288167e+03 
1.105400e-01 2.243846e+03 
1.116900e-01 2.204449e+03 
1.129600e-01 2.163483e+03 
1.142000e-01 2.128179e+03 
1.153300e-01 2.098289e+03 
1.166400e-01 2.066788e+03 
1.177800e-01 2.041901e+03 
1.190000e-01 2.016770e+03 
1.201200e-01 1.995569e+03 
1.213400e-01 1.973260e+03 
1.227100e-01 1.949517e+03 
1.238900e-01 1.929487e+03 
1.250700e-01 1.909496e+03 
1.263200e-01 1.888370e+03 
1.275500e-01 1.867076e+03 
1.287500e-01 1.845980e+03 
1.299900e-01 1.823412e+03 
1.311300e-01 1.802131e+03 
1.323500e-01 1.778357e+03 
1.335900e-01 1.753652e+03 
1.347100e-01 1.730385e+03 
1.359800e-01 1.703720e+03 
1.372100e-01 1.676755e+03 
1.384300e-01 1.650044e+03 
1.395700e-01 1.624248e+03 
1.407700e-01 1.597574e+03 
1.420300e-01 1.568905e+03 
1.432800e-01 1.541152e+03 
1.444500e-01 1.515230e+03 
1.456300e-01 1.489677e+03 
1.468900e-01 1.463374e+03 
1.480500e-01 1.439812e+03 
1.491700e-01 1.418017e+03 
1.503800e-01 1.395571e+03 
1.516400e-01 1.373020e+03 
1.528200e-01 1.353684e+03 
1.540200e-01 1.334421e+03 
1.551900e-01 1.317454e+03 
1.564300e-01 1.300176e+03 
1.576600e-01 1.284099e+03 
1.588700e-01 1.269453e+03 
1.600900e-01 1.255025e+03 
1.612700e-01 1.242418e+03 
1.625400e-01 1.229101e+03 
1.637600e-01 1.216852e+03 
1.649500e-01 1.205296e+03 
1.662200e-01 1.193168e+03 
1.674000e-01 1.181992e+03 
1.685000e-01 1.171746e+03 
1.697500e-01 1.159980e+03 
1.710300e-01 1.147829e+03 
1.722200e-01 1.136732e+03 
1.734400e-01 1.124628e+03 
1.746400e-01 1.112890e+03 
1.758700e-01 1.100760e+03 
1.770900e-01 1.088314e+03 
1.782700e-01 1.076482e+03 
1.794600e-01 1.064303e+03 
1.807000e-01 1.051531e+03 
1.819100e-01 1.039287e+03 
1.830100e-01 1.027983e+03 
1.842200e-01 1.015694e+03 
1.855000e-01 1.002919e+03 
1.867000e-01 9.910315e+02 
1.879200e-01 9.791525e+02 
1.890900e-01 9.679772e+02 
1.902800e-01 9.569308e+02 
1.915200e-01 9.456134e+02 
1.926900e-01 9.351903e+02 
1.939000e-01 9.248417e+02 
1.951700e-01 9.141605e+02 
1.963100e-01 9.048262e+02 
1.975100e-01 8.954183e+02 
1.987800e-01 8.856215e+02 
2.000100e-01 8.763952e+02 
2.012500e-01 8.674932e+02 
2.023400e-01 8.597832e+02 
2.036100e-01 8.509866e+02 
2.048900e-01 8.424692e+02 
2.060400e-01 8.349312e+02 
2.072200e-01 8.273186e+02 
2.084200e-01 8.198318e+02 
2.096900e-01 8.120259e+02 
2.109200e-01 8.045790e+02 
2.121100e-01 7.975251e+02 
2.132700e-01 7.907469e+02 
2.145200e-01 7.835462e+02 
2.157200e-01 7.767391e+02 
2.168800e-01 7.702522e+02 
2.180700e-01 7.636879e+02 
2.193400e-01 7.567797e+02 
2.206000e-01 7.500220e+02 
2.217500e-01 7.439387e+02 
2.229500e-01 7.376753e+02 
2.241400e-01 7.315706e+02 
2.253500e-01 7.254472e+02 
2.264900e-01 7.197535e+02 
2.277100e-01 7.137748e+02 
2.289900e-01 7.076272e+02 
2.301500e-01 7.021301e+02 
2.313600e-01 6.964708e+02 
2.325600e-01 6.910445e+02 
2.337700e-01 6.856435e+02 
2.350000e-01 6.802245e+02 
2.362000e-01 6.750715e+02 
2.374100e-01 6.700192e+02 
2.386500e-01 6.649077e+02 
2.399100e-01 6.597811e+02 
2.410400e-01 6.553462e+02 
2.422500e-01 6.506677e+02 
2.435000e-01 6.458949e+02 
2.447300e-01 6.412769e+02 
2.458700e-01 6.371264e+02 
2.470600e-01 6.328442e+02 
2.483300e-01 6.283300e+02 
2.495600e-01 6.240274e+02 
2.507600e-01 6.199010e+02 
2.519600e-01 6.158230e+02 
2.532200e-01 6.115924e+02 
2.543700e-01 6.077680e+02 
2.555500e-01 6.038826e+02 
2.568000e-01 5.998146e+02 
2.580100e-01 5.959230e+02 
2.592400e-01 5.919708e+02 
2.604100e-01 5.882356e+02 
2.616100e-01 5.844474e+02 
2.628400e-01 5.806089e+02 
2.640600e-01 5.767801e+02 
2.652200e-01 5.731543e+02 
2.664300e-01 5.694140e+02 
2.676500e-01 5.656851e+02 
2.688400e-01 5.620324e+02 
2.700700e-01 5.582641e+02 
2.712400e-01 5.547190e+02 
2.724800e-01 5.510031e+02 
2.736700e-01 5.474361e+02 
2.748800e-01 5.438070e+02 
2.761000e-01 5.401882e+02 
2.773200e-01 5.366091e+02 
2.785400e-01 5.330491e+02 
2.797000e-01 5.296578e+02 
2.808900e-01 5.262154e+02 
2.821400e-01 5.226386e+02 
2.833900e-01 5.190994e+02 
2.845500e-01 5.158045e+02 
2.857800e-01 5.123475e+02 
2.870300e-01 5.088726e+02 
2.882100e-01 5.056271e+02 
2.893900e-01 5.023952e+02 
2.906300e-01 4.990240e+02 
2.918900e-01 4.956355e+02 
2.930500e-01 4.925485e+02 
2.942500e-01 4.893828e+02 
2.954200e-01 4.863132e+02 
2.966500e-01 4.831191e+02 
2.978900e-01 4.799329e+02 
2.990400e-01 4.770077e+02 
3.002700e-01 4.739025e+02 
3.015100e-01 4.708007e+02 
3.026800e-01 4.679034e+02 
3.038500e-01 4.650345e+02 
3.050300e-01 4.621691e+02 
3.062600e-01 4.592078e+02 
3.075000e-01 4.562528e+02 
3.087000e-01 4.534218e+02 
3.099100e-01 4.505953e+02 
3.111200e-01 4.477978e+02 
3.123100e-01 4.450750e+02 
3.135300e-01 4.423109e+02 
3.147300e-01 4.396185e+02 
3.159900e-01 4.368194e+02 
3.171800e-01 4.342050e+02 
3.183700e-01 4.316177e+02 
3.196300e-01 4.289047e+02 
3.208400e-01 4.263248e+02 
3.220300e-01 4.238115e+02 
3.232000e-01 4.213693e+02 
3.244300e-01 4.188283e+02 
3.256700e-01 4.162913e+02 
3.269200e-01 4.137584e+02 
3.280800e-01 4.114298e+02 
3.292500e-01 4.091108e+02 
3.304800e-01 4.066980e+02 
3.317100e-01 4.043078e+02 
3.328900e-01 4.020358e+02 
3.340700e-01 3.997841e+02 
3.353600e-01 3.973556e+02 
3.365300e-01 3.951770e+02 
3.377100e-01 3.929992e+02 
3.389200e-01 3.907859e+02 
3.401600e-01 3.885384e+02 
3.413700e-01 3.863756e+02 
3.425300e-01 3.843275e+02 
3.437700e-01 3.821575e+02 
3.449800e-01 3.800590e+02 
3.461800e-01 3.779960e+02 
3.473600e-01 3.759894e+02 
3.485800e-01 3.739433e+02 
3.498100e-01 3.718987e+02 
3.510200e-01 3.699050e+02 
3.522000e-01 3.679772e+02 
3.533900e-01 3.660496e+02 
3.546400e-01 3.640577e+02 
3.558400e-01 3.621629e+02 
3.570600e-01 3.602529e+02 
3.582700e-01 3.583747e+02 
3.595000e-01 3.564818e+02 
3.607100e-01 3.546436e+02 
3.618900e-01 3.528723e+02 
3.631200e-01 3.510412e+02 
3.643200e-01 3.492698e+02 
3.655500e-01 3.474692e+02 
3.667300e-01 3.457561e+02 
3.679500e-01 3.440146e+02 
3.691900e-01 3.422592e+02 
3.703600e-01 3.406165e+02 
3.715700e-01 3.389313e+02 
3.727700e-01 3.372735e+02 
3.739900e-01 3.356067e+02 
3.752000e-01 3.339762e+02 
3.763900e-01 3.323855e+02 
3.775800e-01 3.308072e+02 
3.788200e-01 3.291759e+02 
3.800300e-01 3.275968e+02 
3.812100e-01 3.260750e+02 
3.824200e-01 3.245309e+02 
3.836100e-01 3.230242e+02 
3.848600e-01 3.214540e+02 
3.860400e-01 3.199833e+02 
3.872400e-01 3.184993e+02 
3.884600e-01 3.170104e+02 
3.896500e-01 3.155723e+02 
3.908700e-01 3.141093e+02 
3.920600e-01 3.126933e+02 
3.933100e-01 3.112173e+02 
3.945300e-01 3.097881e+02 
3.957200e-01 3.084122e+02 
3.969300e-01 3.070260e+02 
3.981700e-01 3.056163e+02 
3.993500e-01 3.042850e+02 
4.094840e-01 2.932598e+02 
4.272360e-01 2.756761e+02 
4.454600e-01 2.595046e+02 
4.630560e-01 2.454212e+02 
4.804610e-01 2.327603e+02 
4.980690e-01 2.210659e+02 
5.159230e-01 2.102147e+02 
5.317440e-01 2.013523e+02 
5.489640e-01 1.924388e+02 
5.671990e-01 1.837521e+02 
5.838690e-01 1.764160e+02 
6.018840e-01 1.690850e+02 
6.202330e-01 1.621995e+02 
6.379250e-01 1.560437e+02 
6.545410e-01 1.506871e+02 
6.714560e-01 1.455922e+02 
6.892080e-01 1.406075e+02 
7.066010e-01 1.360602e+02 
7.240540e-01 1.317863e+02 
7.420450e-01 1.276759e+02 
7.593780e-01 1.239643e+02 
7.764720e-01 1.205181e+02 
7.942840e-01 1.171371e+02 
8.116170e-01 1.140407e+02 
8.288310e-01 1.111377e+02 
8.462240e-01 1.083584e+02 
8.631980e-01 1.057867e+02 
8.810700e-01 1.032144e+02 
8.989410e-01 1.007730e+02 
9.166330e-01 9.847197e+01 
9.345640e-01 9.625034e+01 
9.515980e-01 9.423576e+01 
9.688720e-01 9.228013e+01 
9.865640e-01 9.036208e+01 
1.031870e+00 8.579648e+01 
1.063490e+00 8.287304e+01 
1.097920e+00 7.990550e+01 
1.134370e+00 7.697502e+01 
1.167730e+00 7.446898e+01 
1.203830e+00 7.191655e+01 
1.240470e+00 6.948593e+01 
1.275790e+00 6.727541e+01 
1.309140e+00 6.530237e+01 
1.342970e+00 6.339459e+01 
1.378420e+00 6.150049e+01 
1.413200e+00 5.973003e+01 
1.448110e+00 5.803531e+01 
1.484090e+00 5.637353e+01 
1.518820e+00 5.484045e+01 
1.552880e+00 5.339843e+01 
1.588630e+00 5.194890e+01 
1.623230e+00 5.060678e+01 
1.657720e+00 4.932247e+01 
1.692450e+00 4.808016e+01 
1.726400e+00 4.690987e+01 
1.762200e+00 4.572334e+01 
1.797880e+00 4.458558e+01 
1.833270e+00 4.350028e+01 
1.869070e+00 4.244267e+01 
1.903200e+00 4.146966e+01 
1.937740e+00 4.051935e+01 
1.973190e+00 3.957740e+01 
2.007440e+00 3.869831e+01 
2.042160e+00 3.783586e+01 
2.077900e+00 3.697757e+01 
2.112390e+00 3.617687e+01 
2.146220e+00 3.541527e+01 
2.181600e+00 3.464289e+01 
2.216930e+00 3.389648e+01 
2.250760e+00 3.320381e+01 
2.286500e+00 3.249440e+01 
2.321770e+00 3.181600e+01 
2.355950e+00 3.117734e+01 
2.391280e+00 3.053562e+01 
2.426240e+00 2.991903e+01 
2.460670e+00 2.932966e+01 
2.495640e+00 2.874880e+01 
2.531080e+00 2.817516e+01 
2.566220e+00 2.762242e+01 
2.600830e+00 2.709326e+01 
2.635080e+00 2.658393e+01 
2.670340e+00 2.607232e+01 
2.705970e+00 2.556983e+01 
2.740040e+00 2.510255e+01 
2.774520e+00 2.464122e+01 
2.809730e+00 2.418185e+01 
2.844390e+00 2.374164e+01 
2.879960e+00 2.330109e+01 
2.914860e+00 2.287985e+01 
2.949410e+00 2.247373e+01 
2.984440e+00 2.207114e+01 
3.019760e+00 2.167572e+01 
3.054730e+00 2.129459e+01 
3.089030e+00 2.092811e+01 
3.124060e+00 2.056342e+01 
3.159560e+00 2.020297e+01 
3.194710e+00 1.985411e+01 
3.229010e+00 1.952217e+01 
3.263320e+00 1.919662e+01 
3.297930e+00 1.887634e+01 
3.332830e+00 1.856077e+01 
3.368040e+00 1.824950e+01 
3.403300e+00 1.794504e+01 
3.438450e+00 1.764788e+01 
3.473060e+00 1.736241e+01 
3.508440e+00 1.707645e+01 
3.543110e+00 1.680301e+01 
3.577470e+00 1.653718e+01 
3.613040e+00 1.626844e+01 
3.648120e+00 1.600894e+01 
3.682910e+00 1.575737e+01 
3.718050e+00 1.550847e+01 
3.753320e+00 1.526420e+01 
3.787980e+00 1.502915e+01 
3.822290e+00 1.480136e+01 
3.857020e+00 1.457529e+01 
3.891920e+00 1.435294e+01 
3.926650e+00 1.413599e+01 
3.961970e+00 1.392014e+01 
3.997360e+00 1.370819e+01 
4.031670e+00 1.350713e+01 
4.066330e+00 1.330770e+01 
4.101420e+00 1.311023e+01 
4.136200e+00 1.291805e+01 
4.170810e+00 1.273094e+01 
4.206250e+00 1.254287e+01 
4.241580e+00 1.235934e+01 
4.276300e+00 1.218235e+01 
4.310970e+00 1.200907e+01 
4.346120e+00 1.183691e+01 
4.380600e+00 1.167125e+01 
4.414730e+00 1.151059e+01 
4.450350e+00 1.134579e+01 
4.485320e+00 1.118733e+01 
4.519810e+00 1.103386e+01 
4.555430e+00 1.087842e+01 
4.590870e+00 1.072680e+01 
4.625480e+00 1.058145e+01 
4.659910e+00 1.043969e+01 
4.695230e+00 1.029675e+01 
4.729960e+00 1.015890e+01 
4.764450e+00 1.002450e+01 
4.799530e+00 9.890220e+00 
4.834910e+00 9.757403e+00 
4.869700e+00 9.629114e+00 
4.904370e+00 9.503639e+00 
4.939450e+00 9.379008e+00 
4.973940e+00 9.258617e+00 
5.008430e+00 9.140430e+00 
5.043810e+00 9.021274e+00 
5.078840e+00 8.905385e+00 
5.113500e+00 8.792804e+00 
5.148890e+00 8.679847e+00 
5.184210e+00 8.569161e+00 
5.219060e+00 8.461879e+00 
5.253660e+00 8.357159e+00 
5.288570e+00 8.253359e+00 
5.323420e+00 8.151534e+00 
5.358440e+00 8.050976e+00 
5.393590e+00 7.951805e+00 
5.428310e+00 7.855516e+00 
5.462800e+00 7.761479e+00 
5.497640e+00 7.668097e+00 
5.532670e+00 7.575766e+00 
5.567280e+00 7.486064e+00 
5.602000e+00 7.397576e+00 
5.637270e+00 7.309224e+00 
5.672410e+00 7.222676e+00 
5.707020e+00 7.138838e+00 
5.742040e+00 7.055388e+00 
5.777430e+00 6.972442e+00 
5.812210e+00 6.892254e+00 
5.846820e+00 6.813764e+00 
5.881610e+00 6.736130e+00 
5.916510e+00 6.659491e+00 
5.951600e+00 6.583706e+00 
5.986560e+00 6.509418e+00 
6.021830e+00 6.435653e+00 
6.056490e+00 6.364350e+00 
6.091160e+00 6.294170e+00 
6.125830e+00 6.225066e+00 
6.161090e+00 6.155894e+00 
6.195760e+00 6.088979e+00 
6.230420e+00 6.023093e+00 
6.265690e+00 5.957066e+00 
6.300950e+00 5.892143e+00 
6.335620e+00 5.829264e+00 
6.370880e+00 5.766269e+00 
6.405550e+00 5.705331e+00 
6.440220e+00 5.645319e+00 
6.475480e+00 5.585183e+00 
6.510150e+00 5.526940e+00 
6.544810e+00 5.469603e+00 
6.580080e+00 5.412101e+00 
6.614750e+00 5.356392e+00 
6.649410e+00 5.301637e+00 
6.684080e+00 5.247669e+00 
6.719340e+00 5.193561e+00 
6.754010e+00 5.141135e+00 
6.788680e+00 5.089499e+00 
6.823940e+00 5.037719e+00 
6.859800e+00 4.985802e+00 
6.894470e+00 4.936411e+00 
6.929140e+00 4.887730e+00 
6.963800e+00 4.839725e+00 
6.999070e+00 4.791547e+00 
7.033730e+00 4.744926e+00 
7.068400e+00 4.698918e+00 
7.103660e+00 4.652755e+00 
7.138330e+00 4.608025e+00 
7.173600e+00 4.563235e+00 
7.208260e+00 4.519803e+00 
7.243530e+00 4.476190e+00 
7.277600e+00 4.434681e+00 
7.312860e+00 4.392344e+00 
7.348120e+00 4.350563e+00 
7.382790e+00 4.310013e+00 
7.417460e+00 4.270060e+00 
7.452720e+00 4.229989e+00 
7.487390e+00 4.191092e+00 
7.522650e+00 4.152038e+00 
7.557320e+00 4.114205e+00 
7.591990e+00 4.076876e+00 
7.627250e+00 4.039390e+00 
7.662510e+00 4.002376e+00 
7.697180e+00 3.966526e+00 
7.731850e+00 3.931153e+00 
7.766510e+00 3.896223e+00 
7.801180e+00 3.861709e+00 
7.836440e+00 3.827130e+00 
7.871110e+00 3.793602e+00 
7.906380e+00 3.759908e+00 
7.941040e+00 3.727196e+00 
7.976310e+00 3.694353e+00 
8.011570e+00 3.661967e+00 
8.046240e+00 3.630502e+00 
8.080900e+00 3.599417e+00 
8.115570e+00 3.568713e+00 
8.150830e+00 3.537948e+00 
8.185500e+00 3.508053e+00 
8.220770e+00 3.477996e+00 
8.255430e+00 3.448802e+00 
8.290100e+00 3.420032e+00 
8.324770e+00 3.391603e+00 
8.359430e+00 3.363505e+00 
8.394700e+00 3.335239e+00 
8.429960e+00 3.307370e+00 
8.464630e+00 3.280343e+00 
8.499890e+00 3.253167e+00 
8.534560e+00 3.226745e+00 
8.569200e+00 3.200641e+00 
