# Parameters:
# omega_b = 0.022335, omega_m = 0.140945, n_s = 0.917717, h = 64.685039, w = -1.000000, sigma_8 = 0.780787
# z = 1.000000
#
# k[1/Mpc] # P(k):
8.694000e-04 7.002374e+03 
2.077466e-03 1.437458e+04 
3.285532e-03 1.992099e+04 
4.493598e-03 2.407406e+04 
5.701664e-03 2.708020e+04 
6.909730e-03 2.914779e+04 
8.117797e-03 3.049556e+04 
9.325863e-03 3.123564e+04 
1.053393e-02 3.147709e+04 
1.174199e-02 3.131832e+04 
1.295006e-02 3.082170e+04 
1.415813e-02 3.006922e+04 
1.536619e-02 2.913003e+04 
1.657426e-02 2.805353e+04 
1.778233e-02 2.689307e+04 
1.899039e-02 2.572144e+04 
2.019846e-02 2.454729e+04 
2.140652e-02 2.338214e+04 
2.261459e-02 2.224581e+04 
2.382266e-02 2.116312e+04 
2.503072e-02 2.014855e+04 
2.623879e-02 1.920671e+04 
2.744685e-02 1.833912e+04 
2.865492e-02 1.754736e+04 
2.986299e-02 1.682861e+04 
3.100100e-02 1.621590e+04 
3.220400e-02 1.563154e+04 
3.288100e-02 1.533026e+04 
3.424300e-02 1.477772e+04 
3.555100e-02 1.430495e+04 
3.686000e-02 1.388185e+04 
3.795000e-02 1.356072e+04 
3.929100e-02 1.319903e+04 
4.039800e-02 1.292100e+04 
4.164000e-02 1.262515e+04 
4.294400e-02 1.232455e+04 
4.415000e-02 1.205368e+04 
4.542900e-02 1.176417e+04 
4.660900e-02 1.149755e+04 
4.782300e-02 1.121211e+04 
4.892900e-02 1.094877e+04 
5.031200e-02 1.061043e+04 
5.155900e-02 1.029589e+04 
5.238100e-02 1.008530e+04 
5.378200e-02 9.722460e+03 
5.513400e-02 9.368386e+03 
5.627600e-02 9.069190e+03 
5.735300e-02 8.789904e+03 
5.870100e-02 8.446948e+03 
5.988700e-02 8.154539e+03 
6.113500e-02 7.857912e+03 
6.225900e-02 7.602306e+03 
6.340100e-02 7.355594e+03 
6.480200e-02 7.071507e+03 
6.601100e-02 6.844382e+03 
6.725500e-02 6.628414e+03 
6.829100e-02 6.463582e+03 
6.958600e-02 6.273393e+03 
7.071100e-02 6.123755e+03 
7.192300e-02 5.977021e+03 
7.307400e-02 5.850504e+03 
7.412300e-02 5.745022e+03 
7.550400e-02 5.619930e+03 
7.663100e-02 5.526529e+03 
7.791200e-02 5.430213e+03 
7.912700e-02 5.345839e+03 
8.027600e-02 5.270178e+03 
8.138400e-02 5.199833e+03 
8.272200e-02 5.116946e+03 
8.406100e-02 5.034681e+03 
8.534100e-02 4.954440e+03 
8.653800e-02 4.876805e+03 
8.759800e-02 4.806451e+03 
8.900300e-02 4.710005e+03 
9.009000e-02 4.632189e+03 
9.113300e-02 4.554454e+03 
9.239600e-02 4.458763e+03 
9.358000e-02 4.366667e+03 
9.496100e-02 4.256336e+03 
9.608400e-02 4.166479e+03 
9.727500e-02 4.071794e+03 
9.852600e-02 3.971698e+03 
9.973800e-02 3.877095e+03 
1.009000e-01 3.788609e+03 
1.020900e-01 3.700846e+03 
1.034000e-01 3.608159e+03 
1.046000e-01 3.526885e+03 
1.057200e-01 3.455672e+03 
1.069100e-01 3.383247e+03 
1.082500e-01 3.307576e+03 
1.093900e-01 3.247569e+03 
1.105400e-01 3.190080e+03 
1.116900e-01 3.137721e+03 
1.129600e-01 3.082703e+03 
1.142000e-01 3.033623e+03 
1.153300e-01 2.991243e+03 
1.166400e-01 2.945242e+03 
1.177800e-01 2.907570e+03 
1.190000e-01 2.868860e+03 
1.201200e-01 2.834913e+03 
1.213400e-01 2.798940e+03 
1.227100e-01 2.759599e+03 
1.238900e-01 2.726374e+03 
1.250700e-01 2.693207e+03 
1.263200e-01 2.658418e+03 
1.275500e-01 2.623928e+03 
1.287500e-01 2.590344e+03 
1.299900e-01 2.555309e+03 
1.311300e-01 2.523020e+03 
1.323500e-01 2.488023e+03 
1.335900e-01 2.452467e+03 
1.347100e-01 2.420001e+03 
1.359800e-01 2.383397e+03 
1.372100e-01 2.347551e+03 
1.384300e-01 2.312420e+03 
1.395700e-01 2.279395e+03 
1.407700e-01 2.245305e+03 
1.420300e-01 2.209514e+03 
1.432800e-01 2.174824e+03 
1.444500e-01 2.142774e+03 
1.456300e-01 2.111138e+03 
1.468900e-01 2.078415e+03 
1.480500e-01 2.049031e+03 
1.491700e-01 2.021567e+03 
1.503800e-01 1.992925e+03 
1.516400e-01 1.963942e+03 
1.528200e-01 1.938276e+03 
1.540200e-01 1.912694e+03 
1.551900e-01 1.889225e+03 
1.564300e-01 1.865077e+03 
1.576600e-01 1.842091e+03 
1.588700e-01 1.820506e+03 
1.600900e-01 1.799198e+03 
1.612700e-01 1.779723e+03 
1.625400e-01 1.759156e+03 
1.637600e-01 1.740003e+03 
1.649500e-01 1.721796e+03 
1.662200e-01 1.702717e+03 
1.674000e-01 1.685289e+03 
1.685000e-01 1.669314e+03 
1.697500e-01 1.651298e+03 
1.710300e-01 1.633014e+03 
1.722200e-01 1.616319e+03 
1.734400e-01 1.598939e+03 
1.746400e-01 1.582117e+03 
1.758700e-01 1.564989e+03 
1.770900e-01 1.547920e+03 
1.782700e-01 1.531691e+03 
1.794600e-01 1.515320e+03 
1.807000e-01 1.498367e+03 
1.819100e-01 1.482107e+03 
1.830100e-01 1.467334e+03 
1.842200e-01 1.451306e+03 
1.855000e-01 1.434638e+03 
1.867000e-01 1.419190e+03 
1.879200e-01 1.403744e+03 
1.890900e-01 1.389188e+03 
1.902800e-01 1.374700e+03 
1.915200e-01 1.359848e+03 
1.926900e-01 1.346114e+03 
1.939000e-01 1.332307e+03 
1.951700e-01 1.318052e+03 
1.963100e-01 1.305522e+03 
1.975100e-01 1.292707e+03 
1.987800e-01 1.279359e+03 
2.000100e-01 1.266718e+03 
2.012500e-01 1.254361e+03 
2.023400e-01 1.243656e+03 
2.036100e-01 1.231408e+03 
2.048900e-01 1.219414e+03 
2.060400e-01 1.208799e+03 
2.072200e-01 1.198071e+03 
2.084200e-01 1.187441e+03 
2.096900e-01 1.176358e+03 
2.109200e-01 1.165784e+03 
2.121100e-01 1.155734e+03 
2.132700e-01 1.146075e+03 
2.145200e-01 1.135813e+03 
2.157200e-01 1.126097e+03 
2.168800e-01 1.116830e+03 
2.180700e-01 1.107451e+03 
2.193400e-01 1.097560e+03 
2.206000e-01 1.087843e+03 
2.217500e-01 1.079096e+03 
2.229500e-01 1.070089e+03 
2.241400e-01 1.061201e+03 
2.253500e-01 1.052283e+03 
2.264900e-01 1.043990e+03 
2.277100e-01 1.035189e+03 
2.289900e-01 1.026034e+03 
2.301500e-01 1.017849e+03 
2.313600e-01 1.009420e+03 
2.325600e-01 1.001097e+03 
2.337700e-01 9.928146e+02 
2.350000e-01 9.845057e+02 
2.362000e-01 9.764865e+02 
2.374100e-01 9.684826e+02 
2.386500e-01 9.603872e+02 
2.399100e-01 9.522700e+02 
2.410400e-01 9.450629e+02 
2.422500e-01 9.374378e+02 
2.435000e-01 9.296618e+02 
2.447300e-01 9.221136e+02 
2.458700e-01 9.152227e+02 
2.470600e-01 9.081158e+02 
2.483300e-01 9.006265e+02 
2.495600e-01 8.934829e+02 
2.507600e-01 8.866231e+02 
2.519600e-01 8.798463e+02 
2.532200e-01 8.728183e+02 
2.543700e-01 8.665227e+02 
2.555500e-01 8.601659e+02 
2.568000e-01 8.535125e+02 
2.580100e-01 8.471498e+02 
2.592400e-01 8.408134e+02 
2.604100e-01 8.348800e+02 
2.616100e-01 8.288640e+02 
2.628400e-01 8.227696e+02 
2.640600e-01 8.168449e+02 
2.652200e-01 8.112948e+02 
2.664300e-01 8.055703e+02 
2.676500e-01 7.998645e+02 
2.688400e-01 7.944006e+02 
2.700700e-01 7.888408e+02 
2.712400e-01 7.836110e+02 
2.724800e-01 7.781299e+02 
2.736700e-01 7.729507e+02 
2.748800e-01 7.677652e+02 
2.761000e-01 7.625945e+02 
2.773200e-01 7.574808e+02 
2.785400e-01 7.524330e+02 
2.797000e-01 7.477052e+02 
2.808900e-01 7.429058e+02 
2.821400e-01 7.379190e+02 
2.833900e-01 7.329879e+02 
2.845500e-01 7.284726e+02 
2.857800e-01 7.237349e+02 
2.870300e-01 7.189722e+02 
2.882100e-01 7.145236e+02 
2.893900e-01 7.101260e+02 
2.906300e-01 7.055558e+02 
2.918900e-01 7.009617e+02 
2.930500e-01 6.967759e+02 
2.942500e-01 6.924894e+02 
2.954200e-01 6.883530e+02 
2.966500e-01 6.840484e+02 
2.978900e-01 6.797538e+02 
2.990400e-01 6.758107e+02 
3.002700e-01 6.716343e+02 
3.015100e-01 6.674667e+02 
3.026800e-01 6.635735e+02 
3.038500e-01 6.597178e+02 
3.050300e-01 6.558666e+02 
3.062600e-01 6.518914e+02 
3.075000e-01 6.479242e+02 
3.087000e-01 6.441230e+02 
3.099100e-01 6.403273e+02 
3.111200e-01 6.365702e+02 
3.123100e-01 6.329134e+02 
3.135300e-01 6.292006e+02 
3.147300e-01 6.255837e+02 
3.159900e-01 6.218229e+02 
3.171800e-01 6.183093e+02 
3.183700e-01 6.148310e+02 
3.196300e-01 6.111835e+02 
3.208400e-01 6.077143e+02 
3.220300e-01 6.043344e+02 
3.232000e-01 6.010468e+02 
3.244300e-01 5.976248e+02 
3.256700e-01 5.942076e+02 
3.269200e-01 5.907956e+02 
3.280800e-01 5.876583e+02 
3.292500e-01 5.845313e+02 
3.304800e-01 5.812767e+02 
3.317100e-01 5.780522e+02 
3.328900e-01 5.749867e+02 
3.340700e-01 5.719483e+02 
3.353600e-01 5.686678e+02 
3.365300e-01 5.657236e+02 
3.377100e-01 5.627800e+02 
3.389200e-01 5.597881e+02 
3.401600e-01 5.567496e+02 
3.413700e-01 5.538229e+02 
3.425300e-01 5.510494e+02 
3.437700e-01 5.481104e+02 
3.449800e-01 5.452679e+02 
3.461800e-01 5.424733e+02 
3.473600e-01 5.397537e+02 
3.485800e-01 5.369782e+02 
3.498100e-01 5.342043e+02 
3.510200e-01 5.314992e+02 
3.522000e-01 5.288833e+02 
3.533900e-01 5.262673e+02 
3.546400e-01 5.235609e+02 
3.558400e-01 5.209859e+02 
3.570600e-01 5.183901e+02 
3.582700e-01 5.158372e+02 
3.595000e-01 5.132640e+02 
3.607100e-01 5.107638e+02 
3.618900e-01 5.083531e+02 
3.631200e-01 5.058610e+02 
3.643200e-01 5.034499e+02 
3.655500e-01 5.009988e+02 
3.667300e-01 4.986666e+02 
3.679500e-01 4.962936e+02 
3.691900e-01 4.939016e+02 
3.703600e-01 4.916628e+02 
3.715700e-01 4.893659e+02 
3.727700e-01 4.871063e+02 
3.739900e-01 4.848337e+02 
3.752000e-01 4.826095e+02 
3.763900e-01 4.804392e+02 
3.775800e-01 4.782859e+02 
3.788200e-01 4.760600e+02 
3.800300e-01 4.739052e+02 
3.812100e-01 4.718279e+02 
3.824200e-01 4.697195e+02 
3.836100e-01 4.676620e+02 
3.848600e-01 4.655177e+02 
3.860400e-01 4.635092e+02 
3.872400e-01 4.614821e+02 
3.884600e-01 4.594474e+02 
3.896500e-01 4.574817e+02 
3.908700e-01 4.554818e+02 
3.920600e-01 4.535458e+02 
3.933100e-01 4.515279e+02 
3.945300e-01 4.495736e+02 
3.957200e-01 4.476923e+02 
3.969300e-01 4.457966e+02 
3.981700e-01 4.438687e+02 
3.993500e-01 4.420478e+02 
4.094840e-01 4.269560e+02 
4.272360e-01 4.028559e+02 
4.454600e-01 3.806438e+02 
4.630560e-01 3.612517e+02 
4.804610e-01 3.437741e+02 
4.980690e-01 3.275915e+02 
5.159230e-01 3.125434e+02 
5.317440e-01 3.002304e+02 
5.489640e-01 2.878234e+02 
5.671990e-01 2.757186e+02 
5.838690e-01 2.654829e+02 
6.018840e-01 2.552357e+02 
6.202330e-01 2.455955e+02 
6.379250e-01 2.369715e+02 
6.545410e-01 2.294512e+02 
6.714560e-01 2.222821e+02 
6.892080e-01 2.152609e+02 
7.066010e-01 2.088320e+02 
7.240540e-01 2.027813e+02 
7.420450e-01 1.969351e+02 
7.593780e-01 1.916364e+02 
7.764720e-01 1.866990e+02 
7.942840e-01 1.818387e+02 
8.116170e-01 1.773623e+02 
8.288310e-01 1.731429e+02 
8.462240e-01 1.690839e+02 
8.631980e-01 1.653054e+02 
8.810700e-01 1.615090e+02 
8.989410e-01 1.578853e+02 
9.166330e-01 1.544507e+02 
9.345640e-01 1.511162e+02 
9.515980e-01 1.480718e+02 
9.688720e-01 1.451000e+02 
9.865640e-01 1.421662e+02 
1.031870e+00 1.351252e+02 
1.063490e+00 1.305614e+02 
1.097920e+00 1.258859e+02 
1.134370e+00 1.212292e+02 
1.167730e+00 1.172112e+02 
1.203830e+00 1.130875e+02 
1.240470e+00 1.091363e+02 
1.275790e+00 1.055156e+02 
1.309140e+00 1.022734e+02 
1.342970e+00 9.912070e+01 
1.378420e+00 9.597890e+01 
1.413200e+00 9.303162e+01 
1.448110e+00 9.020412e+01 
1.484090e+00 8.742377e+01 
1.518820e+00 8.485520e+01 
1.552880e+00 8.243569e+01 
1.588630e+00 8.000282e+01 
1.623230e+00 7.774673e+01 
1.657720e+00 7.558742e+01 
1.692450e+00 7.350060e+01 
1.726400e+00 7.153367e+01 
1.762200e+00 6.953900e+01 
1.797880e+00 6.763052e+01 
1.833270e+00 6.580880e+01 
1.869070e+00 6.403574e+01 
1.903200e+00 6.240849e+01 
1.937740e+00 6.082029e+01 
1.973190e+00 5.924725e+01 
2.007440e+00 5.778226e+01 
2.042160e+00 5.634879e+01 
2.077900e+00 5.492321e+01 
2.112390e+00 5.359686e+01 
2.146220e+00 5.233611e+01 
2.181600e+00 5.106148e+01 
2.216930e+00 4.983236e+01 
2.250760e+00 4.869372e+01 
2.286500e+00 4.752964e+01 
2.321770e+00 4.641882e+01 
2.355950e+00 4.537622e+01 
2.391280e+00 4.433108e+01 
2.426240e+00 4.332971e+01 
2.460670e+00 4.237464e+01 
2.495640e+00 4.143497e+01 
2.531080e+00 4.050922e+01 
2.566220e+00 3.961980e+01 
2.600830e+00 3.877059e+01 
2.635080e+00 3.795533e+01 
2.670340e+00 3.713944e+01 
2.705970e+00 3.633960e+01 
2.740040e+00 3.559704e+01 
2.774520e+00 3.486528e+01 
2.809730e+00 3.413955e+01 
2.844390e+00 3.344601e+01 
2.879960e+00 3.275392e+01 
2.914860e+00 3.209353e+01 
2.949410e+00 3.145814e+01 
2.984440e+00 3.083086e+01 
3.019760e+00 3.021576e+01 
3.054730e+00 2.962380e+01 
3.089030e+00 2.905743e+01 
3.124060e+00 2.849462e+01 
3.159560e+00 2.793930e+01 
3.194710e+00 2.740386e+01 
3.229010e+00 2.689543e+01 
3.263320e+00 2.639903e+01 
3.297930e+00 2.591129e+01 
3.332830e+00 2.543153e+01 
3.368040e+00 2.495977e+01 
3.403300e+00 2.449948e+01 
3.438450e+00 2.405193e+01 
3.473060e+00 2.362263e+01 
3.508440e+00 2.319402e+01 
3.543110e+00 2.278475e+01 
3.577470e+00 2.238849e+01 
3.613040e+00 2.198842e+01 
3.648120e+00 2.160305e+01 
3.682910e+00 2.123019e+01 
3.718050e+00 2.086248e+01 
3.753320e+00 2.050236e+01 
3.787980e+00 2.015682e+01 
3.822290e+00 1.982265e+01 
3.857020e+00 1.949198e+01 
3.891920e+00 1.916736e+01 
3.926650e+00 1.885152e+01 
3.961970e+00 1.853780e+01 
3.997360e+00 1.823069e+01 
4.031670e+00 1.793975e+01 
4.066330e+00 1.765217e+01 
4.101420e+00 1.736764e+01 
4.136200e+00 1.709172e+01 
4.170810e+00 1.682326e+01 
4.206250e+00 1.655421e+01 
4.241580e+00 1.629194e+01 
4.276300e+00 1.603983e+01 
4.310970e+00 1.579350e+01 
4.346120e+00 1.554919e+01 
4.380600e+00 1.531471e+01 
4.414730e+00 1.508746e+01 
4.450350e+00 1.485526e+01 
4.485320e+00 1.463215e+01 
4.519810e+00 1.441667e+01 
4.555430e+00 1.419876e+01 
4.590870e+00 1.398654e+01 
4.625480e+00 1.378366e+01 
4.659910e+00 1.358589e+01 
4.695230e+00 1.338713e+01 
4.729960e+00 1.319564e+01 
4.764450e+00 1.300927e+01 
4.799530e+00 1.282352e+01 
4.834910e+00 1.263990e+01 
4.869700e+00 1.246307e+01 
4.904370e+00 1.229029e+01 
4.939450e+00 1.211889e+01 
4.973940e+00 1.195378e+01 
5.008430e+00 1.179177e+01 
5.043810e+00 1.162880e+01 
5.078840e+00 1.147056e+01 
5.113500e+00 1.131689e+01 
5.148890e+00 1.116324e+01 
5.184210e+00 1.101276e+01 
5.219060e+00 1.086707e+01 
5.253660e+00 1.072522e+01 
5.288570e+00 1.058468e+01 
5.323420e+00 1.044704e+01 
5.358440e+00 1.031137e+01 
5.393590e+00 1.017762e+01 
5.428310e+00 1.004805e+01 
5.462800e+00 9.921685e+00 
5.497640e+00 9.796249e+00 
5.532670e+00 9.672521e+00 
5.567280e+00 9.552441e+00 
5.602000e+00 9.434028e+00 
5.637270e+00 9.316071e+00 
5.672410e+00 9.200618e+00 
5.707020e+00 9.088816e+00 
5.742040e+00 8.977816e+00 
5.777430e+00 8.867573e+00 
5.812210e+00 8.761029e+00 
5.846820e+00 8.656975e+00 
5.881610e+00 8.554140e+00 
5.916510e+00 8.452653e+00 
5.951600e+00 8.352490e+00 
5.986560e+00 8.254407e+00 
6.021830e+00 8.157044e+00 
6.056490e+00 8.063065e+00 
6.091160e+00 7.970685e+00 
6.125830e+00 7.879747e+00 
6.161090e+00 7.788808e+00 
6.195760e+00 7.700997e+00 
6.230420e+00 7.614558e+00 
6.265690e+00 7.527964e+00 
6.300950e+00 7.443011e+00 
6.335620e+00 7.360752e+00 
6.370880e+00 7.278361e+00 
6.405550e+00 7.198790e+00 
6.440220e+00 7.120492e+00 
6.475480e+00 7.042049e+00 
6.510150e+00 6.966138e+00 
6.544810e+00 6.891530e+00 
6.580080e+00 6.816724e+00 
6.614750e+00 6.744265e+00 
6.649410e+00 6.673165e+00 
6.684080e+00 6.603120e+00 
6.719340e+00 6.532909e+00 
6.754010e+00 6.464930e+00 
6.788680e+00 6.398076e+00 
6.823940e+00 6.331047e+00 
6.859800e+00 6.263856e+00 
6.894470e+00 6.200014e+00 
6.929140e+00 6.137128e+00 
6.963800e+00 6.075125e+00 
6.999070e+00 6.012918e+00 
7.033730e+00 5.952823e+00 
7.068400e+00 5.893527e+00 
7.103660e+00 5.834043e+00 
7.138330e+00 5.776441e+00 
7.173600e+00 5.718825e+00 
7.208260e+00 5.662965e+00 
7.243530e+00 5.606882e+00 
7.277600e+00 5.553555e+00 
7.312860e+00 5.499210e+00 
7.348120e+00 5.445587e+00 
7.382790e+00 5.393553e+00 
7.417460e+00 5.342328e+00 
7.452720e+00 5.290979e+00 
7.487390e+00 5.241142e+00 
7.522650e+00 5.191110e+00 
7.557320e+00 5.142694e+00 
7.591990e+00 5.094946e+00 
7.627250e+00 5.047001e+00 
7.662510e+00 4.999668e+00 
7.697180e+00 4.953869e+00 
7.731850e+00 4.908698e+00 
7.766510e+00 4.864099e+00 
7.801180e+00 4.820036e+00 
7.836440e+00 4.775921e+00 
7.871110e+00 4.733167e+00 
7.906380e+00 4.690206e+00 
7.941040e+00 4.648503e+00 
7.976310e+00 4.606654e+00 
8.011570e+00 4.565415e+00 
8.046240e+00 4.525354e+00 
8.080900e+00 4.485780e+00 
8.115570e+00 4.446702e+00 
8.150830e+00 4.407577e+00 
8.185500e+00 4.369563e+00 
8.220770e+00 4.331346e+00 
8.255430e+00 4.294231e+00 
8.290100e+00 4.257689e+00 
8.324770e+00 4.221585e+00 
8.359430e+00 4.185908e+00 
8.394700e+00 4.150021e+00 
8.429960e+00 4.114651e+00 
8.464630e+00 4.080362e+00 
8.499890e+00 4.045886e+00 
8.534560e+00 4.012373e+00 
8.569200e+00 3.979264e+00 
