# Parameters:
# omega_b = 0.023343, omega_m = 0.136260, n_s = 0.905118, h = 64.212598, w = -1.000000, sigma_8 = 0.786772
# z = 1.000000
#
# k[1/Mpc] # P(k):
8.694000e-04 8.667333e+03 
2.077466e-03 1.754521e+04 
3.285532e-03 2.408951e+04 
4.493598e-03 2.889928e+04 
5.701664e-03 3.228965e+04 
6.909730e-03 3.453958e+04 
8.117797e-03 3.593136e+04 
9.325863e-03 3.660723e+04 
1.053393e-02 3.670045e+04 
1.174199e-02 3.632851e+04 
1.295006e-02 3.556770e+04 
1.415813e-02 3.451790e+04 
1.536619e-02 3.326242e+04 
1.657426e-02 3.186176e+04 
1.778233e-02 3.038591e+04 
1.899039e-02 2.893638e+04 
2.019846e-02 2.751544e+04 
2.140652e-02 2.611726e+04 
2.261459e-02 2.476309e+04 
2.382266e-02 2.348342e+04 
2.503072e-02 2.229386e+04 
2.623879e-02 2.119806e+04 
2.744685e-02 2.019685e+04 
2.865492e-02 1.928951e+04 
2.986299e-02 1.847104e+04 
3.100100e-02 1.777758e+04 
3.220400e-02 1.711946e+04 
3.288100e-02 1.678138e+04 
3.424300e-02 1.616278e+04 
3.555100e-02 1.563428e+04 
3.686000e-02 1.516109e+04 
3.795000e-02 1.480124e+04 
3.929100e-02 1.439403e+04 
4.039800e-02 1.407926e+04 
4.164000e-02 1.374259e+04 
4.294400e-02 1.339797e+04 
4.415000e-02 1.308621e+04 
4.542900e-02 1.275176e+04 
4.660900e-02 1.244355e+04 
4.782300e-02 1.211398e+04 
4.892900e-02 1.181073e+04 
5.031200e-02 1.142282e+04 
5.155900e-02 1.106440e+04 
5.238100e-02 1.082568e+04 
5.378200e-02 1.041664e+04 
5.513400e-02 1.002054e+04 
5.627600e-02 9.688129e+03 
5.735300e-02 9.379577e+03 
5.870100e-02 9.002913e+03 
5.988700e-02 8.683527e+03 
6.113500e-02 8.361144e+03 
6.225900e-02 8.084642e+03 
6.340100e-02 7.818819e+03 
6.480200e-02 7.513765e+03 
6.601100e-02 7.270811e+03 
6.725500e-02 7.040434e+03 
6.829100e-02 6.865043e+03 
6.958600e-02 6.662975e+03 
7.071100e-02 6.504239e+03 
7.192300e-02 6.348724e+03 
7.307400e-02 6.214692e+03 
7.412300e-02 6.102934e+03 
7.550400e-02 5.970276e+03 
7.663100e-02 5.871074e+03 
7.791200e-02 5.768421e+03 
7.912700e-02 5.678039e+03 
8.027600e-02 5.596567e+03 
8.138400e-02 5.520418e+03 
8.272200e-02 5.430106e+03 
8.406100e-02 5.339859e+03 
8.534100e-02 5.251168e+03 
8.653800e-02 5.164920e+03 
8.759800e-02 5.086556e+03 
8.900300e-02 4.978905e+03 
9.009000e-02 4.891971e+03 
9.113300e-02 4.805197e+03 
9.239600e-02 4.698520e+03 
9.358000e-02 4.596108e+03 
9.496100e-02 4.473977e+03 
9.608400e-02 4.374933e+03 
9.727500e-02 4.270928e+03 
9.852600e-02 4.161948e+03 
9.973800e-02 4.059461e+03 
1.009000e-01 3.964022e+03 
1.020900e-01 3.870398e+03 
1.034000e-01 3.772015e+03 
1.046000e-01 3.686254e+03 
1.057200e-01 3.611895e+03 
1.069100e-01 3.536535e+03 
1.082500e-01 3.458519e+03 
1.093900e-01 3.397016e+03 
1.105400e-01 3.338308e+03 
1.116900e-01 3.285186e+03 
1.129600e-01 3.229439e+03 
1.142000e-01 3.179811e+03 
1.153300e-01 3.136882e+03 
1.166400e-01 3.090172e+03 
1.177800e-01 3.051609e+03 
1.190000e-01 3.011834e+03 
1.201200e-01 2.976376e+03 
1.213400e-01 2.938696e+03 
1.227100e-01 2.896552e+03 
1.238900e-01 2.860779e+03 
1.250700e-01 2.824495e+03 
1.263200e-01 2.786269e+03 
1.275500e-01 2.748006e+03 
1.287500e-01 2.710664e+03 
1.299900e-01 2.671580e+03 
1.311300e-01 2.635619e+03 
1.323500e-01 2.596726e+03 
1.335900e-01 2.557399e+03 
1.347100e-01 2.521721e+03 
1.359800e-01 2.481715e+03 
1.372100e-01 2.442953e+03 
1.384300e-01 2.405162e+03 
1.395700e-01 2.370087e+03 
1.407700e-01 2.333943e+03 
1.420300e-01 2.296585e+03 
1.432800e-01 2.260379e+03 
1.444500e-01 2.227397e+03 
1.456300e-01 2.194840e+03 
1.468900e-01 2.161379e+03 
1.480500e-01 2.131393e+03 
1.491700e-01 2.103401e+03 
1.503800e-01 2.074255e+03 
1.516400e-01 2.044742e+03 
1.528200e-01 2.018534e+03 
1.540200e-01 1.992410e+03 
1.551900e-01 1.968275e+03 
1.564300e-01 1.943400e+03 
1.576600e-01 1.919599e+03 
1.588700e-01 1.897101e+03 
1.600900e-01 1.874877e+03 
1.612700e-01 1.854306e+03 
1.625400e-01 1.832583e+03 
1.637600e-01 1.812228e+03 
1.649500e-01 1.792804e+03 
1.662200e-01 1.772435e+03 
1.674000e-01 1.753733e+03 
1.685000e-01 1.736594e+03 
1.697500e-01 1.717263e+03 
1.710300e-01 1.697644e+03 
1.722200e-01 1.679732e+03 
1.734400e-01 1.661162e+03 
1.746400e-01 1.643193e+03 
1.758700e-01 1.624940e+03 
1.770900e-01 1.606834e+03 
1.782700e-01 1.589621e+03 
1.794600e-01 1.572339e+03 
1.807000e-01 1.554496e+03 
1.819100e-01 1.537384e+03 
1.830100e-01 1.521935e+03 
1.842200e-01 1.505190e+03 
1.855000e-01 1.487781e+03 
1.867000e-01 1.471738e+03 
1.879200e-01 1.455697e+03 
1.890900e-01 1.440589e+03 
1.902800e-01 1.425601e+03 
1.915200e-01 1.410236e+03 
1.926900e-01 1.396033e+03 
1.939000e-01 1.381774e+03 
1.951700e-01 1.367052e+03 
1.963100e-01 1.354109e+03 
1.975100e-01 1.340870e+03 
1.987800e-01 1.327079e+03 
2.000100e-01 1.314010e+03 
2.012500e-01 1.301215e+03 
2.023400e-01 1.290132e+03 
2.036100e-01 1.277441e+03 
2.048900e-01 1.264981e+03 
2.060400e-01 1.253953e+03 
2.072200e-01 1.242804e+03 
2.084200e-01 1.231715e+03 
2.096900e-01 1.220154e+03 
2.109200e-01 1.209123e+03 
2.121100e-01 1.198596e+03 
2.132700e-01 1.188477e+03 
2.145200e-01 1.177726e+03 
2.157200e-01 1.167516e+03 
2.168800e-01 1.157765e+03 
2.180700e-01 1.147897e+03 
2.193400e-01 1.137474e+03 
2.206000e-01 1.127205e+03 
2.217500e-01 1.117962e+03 
2.229500e-01 1.108445e+03 
2.241400e-01 1.099008e+03 
2.253500e-01 1.089539e+03 
2.264900e-01 1.080735e+03 
2.277100e-01 1.071367e+03 
2.289900e-01 1.061596e+03 
2.301500e-01 1.052861e+03 
2.313600e-01 1.043867e+03 
2.325600e-01 1.034935e+03 
2.337700e-01 1.026047e+03 
2.350000e-01 1.017133e+03 
2.362000e-01 1.008509e+03 
2.374100e-01 9.998768e+02 
2.386500e-01 9.911475e+02 
2.399100e-01 9.823962e+02 
2.410400e-01 9.745985e+02 
2.422500e-01 9.663463e+02 
2.435000e-01 9.579324e+02 
2.447300e-01 9.497632e+02 
2.458700e-01 9.422936e+02 
2.470600e-01 9.345913e+02 
2.483300e-01 9.264761e+02 
2.495600e-01 9.187400e+02 
2.507600e-01 9.113166e+02 
2.519600e-01 9.039842e+02 
2.532200e-01 8.963815e+02 
2.543700e-01 8.895881e+02 
2.555500e-01 8.827405e+02 
2.568000e-01 8.755746e+02 
2.580100e-01 8.687228e+02 
2.592400e-01 8.619303e+02 
2.604100e-01 8.555840e+02 
2.616100e-01 8.491502e+02 
2.628400e-01 8.426334e+02 
2.640600e-01 8.363345e+02 
2.652200e-01 8.304487e+02 
2.664300e-01 8.243786e+02 
2.676500e-01 8.183288e+02 
2.688400e-01 8.125653e+02 
2.700700e-01 8.067196e+02 
2.712400e-01 8.012212e+02 
2.724800e-01 7.954590e+02 
2.736700e-01 7.900343e+02 
2.748800e-01 7.846234e+02 
2.761000e-01 7.792283e+02 
2.773200e-01 7.738930e+02 
2.785400e-01 7.686360e+02 
2.797000e-01 7.637317e+02 
2.808900e-01 7.587535e+02 
2.821400e-01 7.535811e+02 
2.833900e-01 7.484673e+02 
2.845500e-01 7.438029e+02 
2.857800e-01 7.389090e+02 
2.870300e-01 7.339893e+02 
2.882100e-01 7.293942e+02 
2.893900e-01 7.248595e+02 
2.906300e-01 7.201512e+02 
2.918900e-01 7.154182e+02 
2.930500e-01 7.111060e+02 
2.942500e-01 7.066918e+02 
2.954200e-01 7.024373e+02 
2.966500e-01 6.980099e+02 
2.978900e-01 6.935929e+02 
2.990400e-01 6.895374e+02 
3.002700e-01 6.852448e+02 
3.015100e-01 6.809626e+02 
3.026800e-01 6.769623e+02 
3.038500e-01 6.730007e+02 
3.050300e-01 6.690438e+02 
3.062600e-01 6.649620e+02 
3.075000e-01 6.608885e+02 
3.087000e-01 6.569854e+02 
3.099100e-01 6.530881e+02 
3.111200e-01 6.492310e+02 
3.123100e-01 6.454782e+02 
3.135300e-01 6.416678e+02 
3.147300e-01 6.379559e+02 
3.159900e-01 6.340964e+02 
3.171800e-01 6.304917e+02 
3.183700e-01 6.269241e+02 
3.196300e-01 6.231828e+02 
3.208400e-01 6.196246e+02 
3.220300e-01 6.161579e+02 
3.232000e-01 6.127868e+02 
3.244300e-01 6.092780e+02 
3.256700e-01 6.057742e+02 
3.269200e-01 6.022759e+02 
3.280800e-01 5.990592e+02 
3.292500e-01 5.958539e+02 
3.304800e-01 5.925180e+02 
3.317100e-01 5.892131e+02 
3.328900e-01 5.860712e+02 
3.340700e-01 5.829570e+02 
3.353600e-01 5.795955e+02 
3.365300e-01 5.765789e+02 
3.377100e-01 5.735629e+02 
3.389200e-01 5.704975e+02 
3.401600e-01 5.673844e+02 
3.413700e-01 5.643859e+02 
3.425300e-01 5.615446e+02 
3.437700e-01 5.585338e+02 
3.449800e-01 5.556218e+02 
3.461800e-01 5.527590e+02 
3.473600e-01 5.499731e+02 
3.485800e-01 5.471302e+02 
3.498100e-01 5.442890e+02 
3.510200e-01 5.415181e+02 
3.522000e-01 5.388388e+02 
3.533900e-01 5.361594e+02 
3.546400e-01 5.333873e+02 
3.558400e-01 5.307499e+02 
3.570600e-01 5.280912e+02 
3.582700e-01 5.254765e+02 
3.595000e-01 5.228411e+02 
3.607100e-01 5.202803e+02 
3.618900e-01 5.178112e+02 
3.631200e-01 5.152588e+02 
3.643200e-01 5.127893e+02 
3.655500e-01 5.102790e+02 
3.667300e-01 5.078903e+02 
3.679500e-01 5.054597e+02 
3.691900e-01 5.030097e+02 
3.703600e-01 5.007167e+02 
3.715700e-01 4.983641e+02 
3.727700e-01 4.960496e+02 
3.739900e-01 4.937219e+02 
3.752000e-01 4.914435e+02 
3.763900e-01 4.892204e+02 
3.775800e-01 4.870146e+02 
3.788200e-01 4.847345e+02 
3.800300e-01 4.825273e+02 
3.812100e-01 4.803993e+02 
3.824200e-01 4.782394e+02 
3.836100e-01 4.761316e+02 
3.848600e-01 4.739349e+02 
3.860400e-01 4.718774e+02 
3.872400e-01 4.698009e+02 
3.884600e-01 4.677163e+02 
3.896500e-01 4.657023e+02 
3.908700e-01 4.636533e+02 
3.920600e-01 4.616699e+02 
3.933100e-01 4.596024e+02 
3.945300e-01 4.576002e+02 
3.957200e-01 4.556726e+02 
3.969300e-01 4.537303e+02 
3.981700e-01 4.517550e+02 
3.993500e-01 4.498893e+02 
4.094840e-01 4.344269e+02 
4.272360e-01 4.097362e+02 
4.454600e-01 3.869880e+02 
4.630560e-01 3.671368e+02 
4.804610e-01 3.492556e+02 
4.980690e-01 3.327097e+02 
5.159230e-01 3.173340e+02 
5.317440e-01 3.047598e+02 
5.489640e-01 2.920954e+02 
5.671990e-01 2.797458e+02 
5.838690e-01 2.693063e+02 
6.018840e-01 2.588571e+02 
6.202330e-01 2.490283e+02 
6.379250e-01 2.402371e+02 
6.545410e-01 2.325703e+02 
6.714560e-01 2.252611e+02 
6.892080e-01 2.181029e+02 
7.066010e-01 2.115462e+02 
7.240540e-01 2.053755e+02 
7.420450e-01 1.994110e+02 
7.593780e-01 1.940036e+02 
7.764720e-01 1.889639e+02 
7.942840e-01 1.840021e+02 
8.116170e-01 1.794304e+02 
8.288310e-01 1.751197e+02 
8.462240e-01 1.709720e+02 
8.631980e-01 1.671095e+02 
8.810700e-01 1.632282e+02 
8.989410e-01 1.595226e+02 
9.166330e-01 1.560097e+02 
9.345640e-01 1.525987e+02 
9.515980e-01 1.494833e+02 
9.688720e-01 1.464421e+02 
9.865640e-01 1.434391e+02 
1.031870e+00 1.362322e+02 
1.063490e+00 1.315605e+02 
1.097920e+00 1.267745e+02 
1.134370e+00 1.220086e+02 
1.167730e+00 1.178968e+02 
1.203830e+00 1.136787e+02 
1.240470e+00 1.096380e+02 
1.275790e+00 1.059370e+02 
1.309140e+00 1.026241e+02 
1.342970e+00 9.940483e+01 
1.378420e+00 9.619749e+01 
1.413200e+00 9.319050e+01 
1.448110e+00 9.030768e+01 
1.484090e+00 8.747400e+01 
1.518820e+00 8.485800e+01 
1.552880e+00 8.239537e+01 
1.588630e+00 7.992079e+01 
1.623230e+00 7.762702e+01 
1.657720e+00 7.543283e+01 
1.692450e+00 7.331390e+01 
1.726400e+00 7.131783e+01 
1.762200e+00 6.929461e+01 
1.797880e+00 6.736037e+01 
1.833270e+00 6.551472e+01 
1.869070e+00 6.371958e+01 
1.903200e+00 6.207316e+01 
1.937740e+00 6.046702e+01 
1.973190e+00 5.887702e+01 
2.007440e+00 5.739714e+01 
2.042160e+00 5.595009e+01 
2.077900e+00 5.451157e+01 
2.112390e+00 5.317402e+01 
2.146220e+00 5.190312e+01 
2.181600e+00 5.061905e+01 
2.216930e+00 4.938153e+01 
2.250760e+00 4.823561e+01 
2.286500e+00 4.706459e+01 
2.321770e+00 4.594769e+01 
2.355950e+00 4.489999e+01 
2.391280e+00 4.385030e+01 
2.426240e+00 4.284506e+01 
2.460670e+00 4.188670e+01 
2.495640e+00 4.094416e+01 
2.531080e+00 4.001601e+01 
2.566220e+00 3.912475e+01 
2.600830e+00 3.827416e+01 
2.635080e+00 3.745792e+01 
2.670340e+00 3.664157e+01 
2.705970e+00 3.584155e+01 
2.740040e+00 3.509903e+01 
2.774520e+00 3.436753e+01 
2.809730e+00 3.364250e+01 
2.844390e+00 3.294993e+01 
2.879960e+00 3.225911e+01 
2.914860e+00 3.160012e+01 
2.949410e+00 3.096628e+01 
2.984440e+00 3.034089e+01 
3.019760e+00 2.972779e+01 
3.054730e+00 2.913790e+01 
3.089030e+00 2.857388e+01 
3.124060e+00 2.801353e+01 
3.159560e+00 2.746078e+01 
3.194710e+00 2.692807e+01 
3.229010e+00 2.642237e+01 
3.263320e+00 2.592892e+01 
3.297930e+00 2.544417e+01 
3.332830e+00 2.496749e+01 
3.368040e+00 2.449891e+01 
3.403300e+00 2.404184e+01 
3.438450e+00 2.359764e+01 
3.473060e+00 2.317165e+01 
3.508440e+00 2.274652e+01 
3.543110e+00 2.234064e+01 
3.577470e+00 2.194784e+01 
3.613040e+00 2.155134e+01 
3.648120e+00 2.116951e+01 
3.682910e+00 2.080018e+01 
3.718050e+00 2.043607e+01 
3.753320e+00 2.007957e+01 
3.787980e+00 1.973761e+01 
3.822290e+00 1.940699e+01 
3.857020e+00 1.907992e+01 
3.891920e+00 1.875892e+01 
3.926650e+00 1.844669e+01 
3.961970e+00 1.813663e+01 
3.997360e+00 1.783317e+01 
4.031670e+00 1.754574e+01 
4.066330e+00 1.726177e+01 
4.101420e+00 1.698083e+01 
4.136200e+00 1.670847e+01 
4.170810e+00 1.644352e+01 
4.206250e+00 1.617803e+01 
4.241580e+00 1.591928e+01 
4.276300e+00 1.567064e+01 
4.310970e+00 1.542776e+01 
4.346120e+00 1.518692e+01 
4.380600e+00 1.495581e+01 
4.414730e+00 1.473187e+01 
4.450350e+00 1.450312e+01 
4.485320e+00 1.428334e+01 
4.519810e+00 1.407115e+01 
4.555430e+00 1.385660e+01 
4.590870e+00 1.364770e+01 
4.625480e+00 1.344803e+01 
4.659910e+00 1.325341e+01 
4.695230e+00 1.305788e+01 
4.729960e+00 1.286952e+01 
4.764450e+00 1.268622e+01 
4.799530e+00 1.250359e+01 
4.834910e+00 1.232307e+01 
4.869700e+00 1.214927e+01 
4.904370e+00 1.197946e+01 
4.939450e+00 1.181104e+01 
4.973940e+00 1.164884e+01 
5.008430e+00 1.148969e+01 
5.043810e+00 1.132965e+01 
5.078840e+00 1.117425e+01 
5.113500e+00 1.102338e+01 
5.148890e+00 1.087256e+01 
5.184210e+00 1.072487e+01 
5.219060e+00 1.058190e+01 
5.253660e+00 1.044273e+01 
5.288570e+00 1.030485e+01 
5.323420e+00 1.016984e+01 
5.358440e+00 1.003678e+01 
5.393590e+00 9.905620e+00 
5.428310e+00 9.778587e+00 
5.462800e+00 9.654718e+00 
5.497640e+00 9.531764e+00 
5.532670e+00 9.410512e+00 
5.567280e+00 9.292850e+00 
5.602000e+00 9.176826e+00 
5.637270e+00 9.061277e+00 
5.672410e+00 8.948190e+00 
5.707020e+00 8.838687e+00 
5.742040e+00 8.729997e+00 
5.777430e+00 8.622057e+00 
5.812210e+00 8.517745e+00 
5.846820e+00 8.415898e+00 
5.881610e+00 8.315254e+00 
5.916510e+00 8.215934e+00 
5.951600e+00 8.117930e+00 
5.986560e+00 8.021971e+00 
6.021830e+00 7.926721e+00 
6.056490e+00 7.834797e+00 
6.091160e+00 7.744448e+00 
6.125830e+00 7.655512e+00 
6.161090e+00 7.566589e+00 
6.195760e+00 7.480746e+00 
6.230420e+00 7.396248e+00 
6.265690e+00 7.311602e+00 
6.300950e+00 7.228579e+00 
6.335620e+00 7.148192e+00 
6.370880e+00 7.067679e+00 
6.405550e+00 6.989941e+00 
6.440220e+00 6.913454e+00 
6.475480e+00 6.836829e+00 
6.510150e+00 6.762686e+00 
6.544810e+00 6.689829e+00 
6.580080e+00 6.616781e+00 
6.614750e+00 6.546028e+00 
6.649410e+00 6.476618e+00 
6.684080e+00 6.408244e+00 
6.719340e+00 6.339709e+00 
6.754010e+00 6.273362e+00 
6.788680e+00 6.208128e+00 
6.823940e+00 6.142726e+00 
6.859800e+00 6.077168e+00 
6.894470e+00 6.014889e+00 
6.929140e+00 5.953548e+00 
6.963800e+00 5.893072e+00 
6.999070e+00 5.832398e+00 
7.033730e+00 5.773799e+00 
7.068400e+00 5.715980e+00 
7.103660e+00 5.657980e+00 
7.138330e+00 5.601822e+00 
7.173600e+00 5.545663e+00 
7.208260e+00 5.491217e+00 
7.243530e+00 5.436556e+00 
7.277600e+00 5.384590e+00 
7.312860e+00 5.331641e+00 
7.348120e+00 5.279396e+00 
7.382790e+00 5.228702e+00 
7.417460e+00 5.178803e+00 
7.452720e+00 5.128789e+00 
7.487390e+00 5.080248e+00 
7.522650e+00 5.031519e+00 
7.557320e+00 4.984376e+00 
7.591990e+00 4.937887e+00 
7.627250e+00 4.891209e+00 
7.662510e+00 4.845127e+00 
7.697180e+00 4.800547e+00 
7.731850e+00 4.756584e+00 
7.766510e+00 4.713178e+00 
7.801180e+00 4.670295e+00 
7.836440e+00 4.627368e+00 
7.871110e+00 4.585771e+00 
7.906380e+00 4.543974e+00 
7.941040e+00 4.503401e+00 
7.976310e+00 4.462694e+00 
8.011570e+00 4.422586e+00 
8.046240e+00 4.383625e+00 
8.080900e+00 4.345139e+00 
8.115570e+00 4.307139e+00 
8.150830e+00 4.269100e+00 
8.185500e+00 4.232141e+00 
8.220770e+00 4.194987e+00 
8.255430e+00 4.158905e+00 
8.290100e+00 4.123390e+00 
8.324770e+00 4.088304e+00 
8.359430e+00 4.053633e+00 
8.394700e+00 4.018759e+00 
8.429960e+00 3.984392e+00 
8.464630e+00 3.951079e+00 
8.499890e+00 3.917587e+00 
8.534560e+00 3.885029e+00 
8.569200e+00 3.852865e+00 
