# Parameters:
# omega_b = 0.022303, omega_m = 0.124134, n_s = 0.933465, h = 61.614173, w = -1.000000, sigma_8 = 0.818110
# z = 0.300000
#
# k[1/Mpc] # P(k):
8.694000e-04 2.249677e+04 
2.077466e-03 4.613516e+04 
3.285532e-03 6.347900e+04 
4.493598e-03 7.596968e+04 
5.701664e-03 8.456574e+04 
6.909730e-03 9.004686e+04 
8.117797e-03 9.318833e+04 
9.325863e-03 9.439264e+04 
1.053393e-02 9.404407e+04 
1.174199e-02 9.248442e+04 
1.295006e-02 8.993127e+04 
1.415813e-02 8.666304e+04 
1.536619e-02 8.291417e+04 
1.657426e-02 7.881552e+04 
1.778233e-02 7.446648e+04 
1.899039e-02 7.025058e+04 
2.019846e-02 6.636138e+04 
2.140652e-02 6.271127e+04 
2.261459e-02 5.925149e+04 
2.382266e-02 5.602289e+04 
2.503072e-02 5.305765e+04 
2.623879e-02 5.035719e+04 
2.744685e-02 4.791953e+04 
2.865492e-02 4.573376e+04 
2.986299e-02 4.378068e+04 
3.100100e-02 4.214067e+04 
3.220400e-02 4.059368e+04 
3.288100e-02 3.980182e+04 
3.424300e-02 3.835281e+04 
3.555100e-02 3.711077e+04 
3.686000e-02 3.598887e+04 
3.795000e-02 3.512605e+04 
3.929100e-02 3.413240e+04 
4.039800e-02 3.335017e+04 
4.164000e-02 3.250223e+04 
4.294400e-02 3.161772e+04 
4.415000e-02 3.081185e+04 
4.542900e-02 2.994263e+04 
4.660900e-02 2.914530e+04 
4.782300e-02 2.829995e+04 
4.892900e-02 2.752808e+04 
5.031200e-02 2.655705e+04 
5.155900e-02 2.567734e+04 
5.238100e-02 2.509887e+04 
5.378200e-02 2.412558e+04 
5.513400e-02 2.320142e+04 
5.627600e-02 2.243779e+04 
5.735300e-02 2.173931e+04 
5.870100e-02 2.089991e+04 
5.988700e-02 2.019470e+04 
6.113500e-02 1.948944e+04 
6.225900e-02 1.888683e+04 
6.340100e-02 1.831298e+04 
6.480200e-02 1.765615e+04 
6.601100e-02 1.713331e+04 
6.725500e-02 1.663639e+04 
6.829100e-02 1.625718e+04 
6.958600e-02 1.582007e+04 
7.071100e-02 1.547486e+04 
7.192300e-02 1.513347e+04 
7.307400e-02 1.483599e+04 
7.412300e-02 1.458580e+04 
7.550400e-02 1.428575e+04 
7.663100e-02 1.405811e+04 
7.791200e-02 1.381810e+04 
7.912700e-02 1.360083e+04 
8.027600e-02 1.340311e+04 
8.138400e-02 1.321586e+04 
8.272200e-02 1.299001e+04 
8.406100e-02 1.276190e+04 
8.534100e-02 1.253507e+04 
8.653800e-02 1.231578e+04 
8.759800e-02 1.211682e+04 
8.900300e-02 1.184403e+04 
9.009000e-02 1.162494e+04 
9.113300e-02 1.140994e+04 
9.239600e-02 1.114887e+04 
9.358000e-02 1.090217e+04 
9.496100e-02 1.061398e+04 
9.608400e-02 1.038445e+04 
9.727500e-02 1.014681e+04 
9.852600e-02 9.906272e+03 
9.973800e-02 9.683509e+03 
1.009000e-01 9.478846e+03 
1.020900e-01 9.285214e+03 
1.034000e-01 9.084006e+03 
1.046000e-01 8.910989e+03 
1.057200e-01 8.763480e+03 
1.069100e-01 8.614708e+03 
1.082500e-01 8.463223e+03 
1.093900e-01 8.343308e+03 
1.105400e-01 8.228527e+03 
1.116900e-01 8.123290e+03 
1.129600e-01 8.011903e+03 
1.142000e-01 7.909485e+03 
1.153300e-01 7.819098e+03 
1.166400e-01 7.717927e+03 
1.177800e-01 7.631007e+03 
1.190000e-01 7.539720e+03 
1.201200e-01 7.454220e+03 
1.213400e-01 7.362619e+03 
1.227100e-01 7.256089e+03 
1.238900e-01 7.165102e+03 
1.250700e-01 7.071146e+03 
1.263200e-01 6.971964e+03 
1.275500e-01 6.872246e+03 
1.287500e-01 6.775687e+03 
1.299900e-01 6.675781e+03 
1.311300e-01 6.584796e+03 
1.323500e-01 6.487763e+03 
1.335900e-01 6.391283e+03 
1.347100e-01 6.305869e+03 
1.359800e-01 6.211587e+03 
1.372100e-01 6.123209e+03 
1.384300e-01 6.038137e+03 
1.395700e-01 5.961838e+03 
1.407700e-01 5.883471e+03 
1.420300e-01 5.805752e+03 
1.432800e-01 5.730333e+03 
1.444500e-01 5.663798e+03 
1.456300e-01 5.598035e+03 
1.468900e-01 5.531247e+03 
1.480500e-01 5.471590e+03 
1.491700e-01 5.415641e+03 
1.503800e-01 5.357072e+03 
1.516400e-01 5.297470e+03 
1.528200e-01 5.243479e+03 
1.540200e-01 5.189613e+03 
1.551900e-01 5.137864e+03 
1.564300e-01 5.084003e+03 
1.576600e-01 5.031529e+03 
1.588700e-01 4.980793e+03 
1.600900e-01 4.930530e+03 
1.612700e-01 4.881710e+03 
1.625400e-01 4.830139e+03 
1.637600e-01 4.781098e+03 
1.649500e-01 4.733874e+03 
1.662200e-01 4.684250e+03 
1.674000e-01 4.638180e+03 
1.685000e-01 4.595951e+03 
1.697500e-01 4.548444e+03 
1.710300e-01 4.500348e+03 
1.722200e-01 4.456425e+03 
1.734400e-01 4.411801e+03 
1.746400e-01 4.368645e+03 
1.758700e-01 4.325229e+03 
1.770900e-01 4.283033e+03 
1.782700e-01 4.242900e+03 
1.794600e-01 4.203130e+03 
1.807000e-01 4.162406e+03 
1.819100e-01 4.123329e+03 
1.830100e-01 4.088587e+03 
1.842200e-01 4.051001e+03 
1.855000e-01 4.011934e+03 
1.867000e-01 3.976698e+03 
1.879200e-01 3.941442e+03 
1.890900e-01 3.908248e+03 
1.902800e-01 3.875476e+03 
1.915200e-01 3.841858e+03 
1.926900e-01 3.810753e+03 
1.939000e-01 3.779485e+03 
1.951700e-01 3.747177e+03 
1.963100e-01 3.718707e+03 
1.975100e-01 3.689424e+03 
1.987800e-01 3.658904e+03 
2.000100e-01 3.629857e+03 
2.012500e-01 3.601154e+03 
2.023400e-01 3.576278e+03 
2.036100e-01 3.547684e+03 
2.048900e-01 3.519215e+03 
2.060400e-01 3.494008e+03 
2.072200e-01 3.468486e+03 
2.084200e-01 3.442730e+03 
2.096900e-01 3.415865e+03 
2.109200e-01 3.390224e+03 
2.121100e-01 3.365384e+03 
2.132700e-01 3.341477e+03 
2.145200e-01 3.316071e+03 
2.157200e-01 3.291716e+03 
2.168800e-01 3.268346e+03 
2.180700e-01 3.244689e+03 
2.193400e-01 3.219594e+03 
2.206000e-01 3.194683e+03 
2.217500e-01 3.172252e+03 
2.229500e-01 3.149148e+03 
2.241400e-01 3.125977e+03 
2.253500e-01 3.102711e+03 
2.264900e-01 3.081072e+03 
2.277100e-01 3.057960e+03 
2.289900e-01 3.033762e+03 
2.301500e-01 3.012120e+03 
2.313600e-01 2.989826e+03 
2.325600e-01 2.967374e+03 
2.337700e-01 2.945025e+03 
2.350000e-01 2.922599e+03 
2.362000e-01 2.900825e+03 
2.374100e-01 2.878939e+03 
2.386500e-01 2.856798e+03 
2.399100e-01 2.834592e+03 
2.410400e-01 2.814643e+03 
2.422500e-01 2.793504e+03 
2.435000e-01 2.771942e+03 
2.447300e-01 2.751022e+03 
2.458700e-01 2.731981e+03 
2.470600e-01 2.712338e+03 
2.483300e-01 2.691634e+03 
2.495600e-01 2.671951e+03 
2.507600e-01 2.653141e+03 
2.519600e-01 2.634554e+03 
2.532200e-01 2.615274e+03 
2.543700e-01 2.598144e+03 
2.555500e-01 2.580941e+03 
2.568000e-01 2.562931e+03 
2.580100e-01 2.545704e+03 
2.592400e-01 2.528788e+03 
2.604100e-01 2.513053e+03 
2.616100e-01 2.497094e+03 
2.628400e-01 2.480923e+03 
2.640600e-01 2.465401e+03 
2.652200e-01 2.450937e+03 
2.664300e-01 2.436014e+03 
2.676500e-01 2.421135e+03 
2.688400e-01 2.407040e+03 
2.700700e-01 2.392792e+03 
2.712400e-01 2.379386e+03 
2.724800e-01 2.365332e+03 
2.736700e-01 2.352187e+03 
2.748800e-01 2.339165e+03 
2.761000e-01 2.326177e+03 
2.773200e-01 2.313329e+03 
2.785400e-01 2.300656e+03 
2.797000e-01 2.288808e+03 
2.808900e-01 2.276779e+03 
2.821400e-01 2.264278e+03 
2.833900e-01 2.251919e+03 
2.845500e-01 2.240756e+03 
2.857800e-01 2.229041e+03 
2.870300e-01 2.217261e+03 
2.882100e-01 2.206255e+03 
2.893900e-01 2.195338e+03 
2.906300e-01 2.183971e+03 
2.918900e-01 2.172542e+03 
2.930500e-01 2.162126e+03 
2.942500e-01 2.151476e+03 
2.954200e-01 2.141259e+03 
2.966500e-01 2.130624e+03 
2.978900e-01 2.120012e+03 
2.990400e-01 2.110266e+03 
3.002700e-01 2.099935e+03 
3.015100e-01 2.089622e+03 
3.026800e-01 2.079985e+03 
3.038500e-01 2.070440e+03 
3.050300e-01 2.060902e+03 
3.062600e-01 2.050966e+03 
3.075000e-01 2.041048e+03 
3.087000e-01 2.031542e+03 
3.099100e-01 2.022049e+03 
3.111200e-01 2.012691e+03 
3.123100e-01 2.003651e+03 
3.135300e-01 1.994471e+03 
3.147300e-01 1.985527e+03 
3.159900e-01 1.976224e+03 
3.171800e-01 1.967511e+03 
3.183700e-01 1.958870e+03 
3.196300e-01 1.949806e+03 
3.208400e-01 1.941185e+03 
3.220300e-01 1.932783e+03 
3.232000e-01 1.924587e+03 
3.244300e-01 1.916045e+03 
3.256700e-01 1.907514e+03 
3.269200e-01 1.898994e+03 
3.280800e-01 1.891159e+03 
3.292500e-01 1.883408e+03 
3.304800e-01 1.875358e+03 
3.317100e-01 1.867381e+03 
3.328900e-01 1.859797e+03 
3.340700e-01 1.852278e+03 
3.353600e-01 1.844121e+03 
3.365300e-01 1.836784e+03 
3.377100e-01 1.829448e+03 
3.389200e-01 1.821991e+03 
3.401600e-01 1.814416e+03 
3.413700e-01 1.807113e+03 
3.425300e-01 1.800187e+03 
3.437700e-01 1.792848e+03 
3.449800e-01 1.785748e+03 
3.461800e-01 1.778768e+03 
3.473600e-01 1.771983e+03 
3.485800e-01 1.765080e+03 
3.498100e-01 1.758181e+03 
3.510200e-01 1.751452e+03 
3.522000e-01 1.744944e+03 
3.533900e-01 1.738435e+03 
3.546400e-01 1.731640e+03 
3.558400e-01 1.725171e+03 
3.570600e-01 1.718648e+03 
3.582700e-01 1.712233e+03 
3.595000e-01 1.705767e+03 
3.607100e-01 1.699472e+03 
3.618900e-01 1.693393e+03 
3.631200e-01 1.687108e+03 
3.643200e-01 1.681027e+03 
3.655500e-01 1.674845e+03 
3.667300e-01 1.668962e+03 
3.679500e-01 1.662986e+03 
3.691900e-01 1.656961e+03 
3.703600e-01 1.651323e+03 
3.715700e-01 1.645538e+03 
3.727700e-01 1.639846e+03 
3.739900e-01 1.634098e+03 
3.752000e-01 1.628427e+03 
3.763900e-01 1.622894e+03 
3.775800e-01 1.617403e+03 
3.788200e-01 1.611728e+03 
3.800300e-01 1.606234e+03 
3.812100e-01 1.600905e+03 
3.824200e-01 1.595475e+03 
3.836100e-01 1.590176e+03 
3.848600e-01 1.584653e+03 
3.860400e-01 1.579480e+03 
3.872400e-01 1.574260e+03 
3.884600e-01 1.568974e+03 
3.896500e-01 1.563849e+03 
3.908700e-01 1.558636e+03 
3.920600e-01 1.553589e+03 
3.933100e-01 1.548329e+03 
3.945300e-01 1.543234e+03 
3.957200e-01 1.538305e+03 
3.969300e-01 1.533330e+03 
3.981700e-01 1.528272e+03 
3.993500e-01 1.523494e+03 
4.094840e-01 1.483746e+03 
4.272360e-01 1.418916e+03 
4.454600e-01 1.358061e+03 
4.630560e-01 1.303792e+03 
4.804610e-01 1.254081e+03 
4.980690e-01 1.207460e+03 
5.159230e-01 1.163441e+03 
5.317440e-01 1.127153e+03 
5.489640e-01 1.089975e+03 
5.671990e-01 1.053332e+03 
5.838690e-01 1.021865e+03 
6.018840e-01 9.899671e+02 
6.202330e-01 9.594180e+02 
6.379250e-01 9.315805e+02 
6.545410e-01 9.068881e+02 
6.714560e-01 8.829699e+02 
6.892080e-01 8.590273e+02 
7.066010e-01 8.366524e+02 
7.240540e-01 8.152636e+02 
7.420450e-01 7.940718e+02 
7.593780e-01 7.745093e+02 
7.764720e-01 7.560139e+02 
7.942840e-01 7.374672e+02 
8.116170e-01 7.199861e+02 
8.288310e-01 7.031907e+02 
8.462240e-01 6.868247e+02 
8.631980e-01 6.714232e+02 
8.810700e-01 6.557355e+02 
8.989410e-01 6.405167e+02 
9.166330e-01 6.259323e+02 
9.345640e-01 6.115789e+02 
9.515980e-01 5.983933e+02 
9.688720e-01 5.854168e+02 
9.865640e-01 5.724769e+02 
1.031870e+00 5.410370e+02 
1.063490e+00 5.203880e+02 
1.097920e+00 4.991285e+02 
1.134370e+00 4.778876e+02 
1.167730e+00 4.594685e+02 
1.203830e+00 4.405627e+02 
1.240470e+00 4.225015e+02 
1.275790e+00 4.059345e+02 
1.309140e+00 3.911345e+02 
1.342970e+00 3.768371e+02 
1.378420e+00 3.626406e+02 
1.413200e+00 3.493867e+02 
1.448110e+00 3.367399e+02 
1.484090e+00 3.243644e+02 
1.518820e+00 3.130482e+02 
1.552880e+00 3.024036e+02 
1.588630e+00 2.918038e+02 
1.623230e+00 2.820186e+02 
1.657720e+00 2.727250e+02 
1.692450e+00 2.638198e+02 
1.726400e+00 2.554335e+02 
1.762200e+00 2.470243e+02 
1.797880e+00 2.390250e+02 
1.833270e+00 2.314523e+02 
1.869070e+00 2.241344e+02 
1.903200e+00 2.174385e+02 
1.937740e+00 2.109485e+02 
1.973190e+00 2.045864e+02 
2.007440e+00 1.986880e+02 
2.042160e+00 1.929444e+02 
2.077900e+00 1.872691e+02 
2.112390e+00 1.820178e+02 
2.146220e+00 1.770762e+02 
2.181600e+00 1.720897e+02 
2.216930e+00 1.673175e+02 
2.250760e+00 1.629230e+02 
2.286500e+00 1.584512e+02 
2.321770e+00 1.542026e+02 
2.355950e+00 1.502317e+02 
2.391280e+00 1.462919e+02 
2.426240e+00 1.425389e+02 
2.460670e+00 1.389709e+02 
2.495640e+00 1.354680e+02 
2.531080e+00 1.320458e+02 
2.566220e+00 1.287679e+02 
2.600830e+00 1.256484e+02 
2.635080e+00 1.226638e+02 
2.670340e+00 1.197045e+02 
2.705970e+00 1.168173e+02 
2.740040e+00 1.141470e+02 
2.774520e+00 1.115233e+02 
2.809730e+00 1.089412e+02 
2.844390e+00 1.064843e+02 
2.879960e+00 1.040403e+02 
2.914860e+00 1.017168e+02 
2.949410e+00 9.948786e+01 
2.984440e+00 9.729746e+01 
3.019760e+00 9.515269e+01 
3.054730e+00 9.309230e+01 
3.089030e+00 9.114199e+01 
3.124060e+00 8.920815e+01 
3.159560e+00 8.730525e+01 
3.194710e+00 8.548342e+01 
3.229010e+00 8.375793e+01 
3.263320e+00 8.206836e+01 
3.297930e+00 8.041474e+01 
3.332830e+00 7.879971e+01 
3.368040e+00 7.721922e+01 
3.403300e+00 7.568298e+01 
3.438450e+00 7.419206e+01 
3.473060e+00 7.276347e+01 
3.508440e+00 7.134321e+01 
3.543110e+00 6.998857e+01 
3.577470e+00 6.868032e+01 
3.613040e+00 6.736318e+01 
3.648120e+00 6.610287e+01 
3.682910e+00 6.488397e+01 
3.718050e+00 6.368204e+01 
3.753320e+00 6.250966e+01 
3.787980e+00 6.139117e+01 
3.822290e+00 6.031007e+01 
3.857020e+00 5.924074e+01 
3.891920e+00 5.819422e+01 
3.926650e+00 5.718129e+01 
3.961970e+00 5.617574e+01 
3.997360e+00 5.519188e+01 
4.031670e+00 5.426151e+01 
4.066330e+00 5.334745e+01 
4.101420e+00 5.244350e+01 
4.136200e+00 5.156711e+01 
4.170810e+00 5.071488e+01 
4.206250e+00 4.986301e+01 
4.241580e+00 4.903339e+01 
4.276300e+00 4.824029e+01 
4.310970e+00 4.746795e+01 
4.346120e+00 4.670116e+01 
4.380600e+00 4.596374e+01 
4.414730e+00 4.524958e+01 
4.450350e+00 4.452593e+01 
4.485320e+00 4.383085e+01 
4.519810e+00 4.315811e+01 
4.555430e+00 4.247731e+01 
4.590870e+00 4.181634e+01 
4.625480e+00 4.118830e+01 
4.659910e+00 4.057627e+01 
4.695230e+00 3.996084e+01 
4.729960e+00 3.936800e+01 
4.764450e+00 3.879178e+01 
4.799530e+00 3.821864e+01 
4.834910e+00 3.765223e+01 
4.869700e+00 3.710747e+01 
4.904370e+00 3.657539e+01 
4.939450e+00 3.604800e+01 
4.973940e+00 3.554073e+01 
5.008430e+00 3.504312e+01 
5.043810e+00 3.454351e+01 
5.078840e+00 3.405895e+01 
5.113500e+00 3.358855e+01 
5.148890e+00 3.311828e+01 
5.184210e+00 3.265785e+01 
5.219060e+00 3.221221e+01 
5.253660e+00 3.177841e+01 
5.288570e+00 3.134870e+01 
5.323420e+00 3.092885e+01 
5.358440e+00 3.051603e+01 
5.393590e+00 3.010917e+01 
5.428310e+00 2.971423e+01 
5.462800e+00 2.932870e+01 
5.497640e+00 2.894609e+01 
5.532670e+00 2.857000e+01 
5.567280e+00 2.820546e+01 
5.602000e+00 2.784606e+01 
5.637270e+00 2.748767e+01 
5.672410e+00 2.713687e+01 
5.707020e+00 2.679724e+01 
5.742040e+00 2.646006e+01 
5.777430e+00 2.612525e+01 
5.812210e+00 2.580174e+01 
5.846820e+00 2.548590e+01 
5.881610e+00 2.517384e+01 
5.916510e+00 2.486594e+01 
5.951600e+00 2.456251e+01 
5.986560e+00 2.426562e+01 
6.021830e+00 2.397098e+01 
6.056490e+00 2.368616e+01 
6.091160e+00 2.340584e+01 
6.125830e+00 2.312996e+01 
6.161090e+00 2.285410e+01 
6.195760e+00 2.258771e+01 
6.230420e+00 2.232554e+01 
6.265690e+00 2.206298e+01 
6.300950e+00 2.180593e+01 
6.335620e+00 2.155710e+01 
6.370880e+00 2.130792e+01 
6.405550e+00 2.106668e+01 
6.440220e+00 2.082910e+01 
6.475480e+00 2.059114e+01 
6.510150e+00 2.036105e+01 
6.544810e+00 2.013526e+01 
6.580080e+00 1.990892e+01 
6.614750e+00 1.968974e+01 
6.649410e+00 1.947443e+01 
6.684080e+00 1.926232e+01 
6.719340e+00 1.904976e+01 
6.754010e+00 1.884383e+01 
6.788680e+00 1.864092e+01 
6.823940e+00 1.843754e+01 
6.859800e+00 1.823372e+01 
6.894470e+00 1.804025e+01 
6.929140e+00 1.784977e+01 
6.963800e+00 1.766202e+01 
6.999070e+00 1.747365e+01 
7.033730e+00 1.729093e+01 
7.068400e+00 1.711069e+01 
7.103660e+00 1.692995e+01 
7.138330e+00 1.675508e+01 
7.173600e+00 1.658046e+01 
7.208260e+00 1.641121e+01 
7.243530e+00 1.624133e+01 
7.277600e+00 1.607924e+01 
7.312860e+00 1.591355e+01 
7.348120e+00 1.575012e+01 
7.382790e+00 1.559158e+01 
7.417460e+00 1.543583e+01 
7.452720e+00 1.527990e+01 
7.487390e+00 1.512861e+01 
7.522650e+00 1.497677e+01 
7.557320e+00 1.482982e+01 
7.591990e+00 1.468493e+01 
7.627250e+00 1.453949e+01 
7.662510e+00 1.439595e+01 
7.697180e+00 1.425632e+01 
7.731850e+00 1.411836e+01 
7.766510e+00 1.398220e+01 
7.801180e+00 1.384773e+01 
7.836440e+00 1.371335e+01 
7.871110e+00 1.358331e+01 
7.906380e+00 1.345268e+01 
7.941040e+00 1.332592e+01 
7.976310e+00 1.319861e+01 
8.011570e+00 1.307302e+01 
8.046240e+00 1.295106e+01 
8.080900e+00 1.283062e+01 
8.115570e+00 1.271165e+01 
8.150830e+00 1.259221e+01 
8.185500e+00 1.247621e+01 
8.220770e+00 1.235964e+01 
8.255430e+00 1.224647e+01 
8.290100e+00 1.213510e+01 
8.324770e+00 1.202511e+01 
8.359430e+00 1.191646e+01 
8.394700e+00 1.180722e+01 
8.429960e+00 1.169938e+01 
8.464630e+00 1.159465e+01 
8.499890e+00 1.148940e+01 
8.534560e+00 1.138713e+01 
8.569200e+00 1.128613e+01 
