# Parameters:
# omega_b = 0.022555, omega_m = 0.154724, n_s = 1.026378, h = 75.078740, w = -1.000000, sigma_8 = 0.764567
# z = 0.300000
#
# k[1/Mpc] # P(k):
8.694000e-04 5.105480e+03 
2.077466e-03 1.163568e+04 
3.285532e-03 1.712902e+04 
4.493598e-03 2.163363e+04 
5.701664e-03 2.521775e+04 
6.909730e-03 2.797746e+04 
8.117797e-03 3.005725e+04 
9.325863e-03 3.153014e+04 
1.053393e-02 3.247853e+04 
1.174199e-02 3.298412e+04 
1.295006e-02 3.309948e+04 
1.415813e-02 3.289948e+04 
1.536619e-02 3.244868e+04 
1.657426e-02 3.180646e+04 
1.778233e-02 3.104384e+04 
1.899039e-02 3.015199e+04 
2.019846e-02 2.909451e+04 
2.140652e-02 2.796362e+04 
2.261459e-02 2.682614e+04 
2.382266e-02 2.571662e+04 
2.503072e-02 2.465682e+04 
2.623879e-02 2.365683e+04 
2.744685e-02 2.272144e+04 
2.865492e-02 2.185938e+04 
2.986299e-02 2.107169e+04 
3.100100e-02 2.039821e+04 
3.220400e-02 1.975664e+04 
3.288100e-02 1.942797e+04 
3.424300e-02 1.883032e+04 
3.555100e-02 1.832748e+04 
3.686000e-02 1.788737e+04 
3.795000e-02 1.756116e+04 
3.929100e-02 1.720520e+04 
4.039800e-02 1.693799e+04 
4.164000e-02 1.665850e+04 
4.294400e-02 1.637668e+04 
4.415000e-02 1.612116e+04 
4.542900e-02 1.584035e+04 
4.660900e-02 1.557587e+04 
4.782300e-02 1.527794e+04 
4.892900e-02 1.499188e+04 
5.031200e-02 1.460875e+04 
5.155900e-02 1.423618e+04 
5.238100e-02 1.397828e+04 
5.378200e-02 1.352301e+04 
5.513400e-02 1.306399e+04 
5.627600e-02 1.266634e+04 
5.735300e-02 1.229012e+04 
5.870100e-02 1.182361e+04 
5.988700e-02 1.142201e+04 
6.113500e-02 1.101295e+04 
6.225900e-02 1.065881e+04 
6.340100e-02 1.031915e+04 
6.480200e-02 9.929634e+03 
6.601100e-02 9.620496e+03 
6.725500e-02 9.329045e+03 
6.829100e-02 9.109520e+03 
6.958600e-02 8.859564e+03 
7.071100e-02 8.666012e+03 
7.192300e-02 8.478290e+03 
7.307400e-02 8.318231e+03 
7.412300e-02 8.186499e+03 
7.550400e-02 8.033035e+03 
7.663100e-02 7.919312e+03 
7.791200e-02 7.803330e+03 
7.912700e-02 7.701364e+03 
8.027600e-02 7.610793e+03 
8.138400e-02 7.526594e+03 
8.272200e-02 7.426779e+03 
8.406100e-02 7.327503e+03 
8.534100e-02 7.229796e+03 
8.653800e-02 7.135779e+03 
8.759800e-02 7.050226e+03 
8.900300e-02 6.931950e+03 
9.009000e-02 6.835537e+03 
9.113300e-02 6.739068e+03 
9.239600e-02 6.619782e+03 
9.358000e-02 6.503861e+03 
9.496100e-02 6.362402e+03 
9.608400e-02 6.245723e+03 
9.727500e-02 6.121598e+03 
9.852600e-02 5.986926e+03 
9.973800e-02 5.857929e+03 
1.009000e-01 5.735852e+03 
1.020900e-01 5.611820e+03 
1.034000e-01 5.479437e+03 
1.046000e-01 5.361929e+03 
1.057200e-01 5.256948e+03 
1.069100e-01 5.149775e+03 
1.082500e-01 5.037429e+03 
1.093900e-01 4.948004e+03 
1.105400e-01 4.862129e+03 
1.116900e-01 4.784542e+03 
1.129600e-01 4.703308e+03 
1.142000e-01 4.631806e+03 
1.153300e-01 4.570706e+03 
1.166400e-01 4.505416e+03 
1.177800e-01 4.453049e+03 
1.190000e-01 4.399773e+03 
1.201200e-01 4.354184e+03 
1.213400e-01 4.306087e+03 
1.227100e-01 4.254989e+03 
1.238900e-01 4.212009e+03 
1.250700e-01 4.169566e+03 
1.263200e-01 4.125016e+03 
1.275500e-01 4.080766e+03 
1.287500e-01 4.037624e+03 
1.299900e-01 3.992530e+03 
1.311300e-01 3.950480e+03 
1.323500e-01 3.904177e+03 
1.335900e-01 3.856664e+03 
1.347100e-01 3.812675e+03 
1.359800e-01 3.762670e+03 
1.372100e-01 3.712919e+03 
1.384300e-01 3.663778e+03 
1.395700e-01 3.616726e+03 
1.407700e-01 3.568039e+03 
1.420300e-01 3.516003e+03 
1.432800e-01 3.465534e+03 
1.444500e-01 3.418147e+03 
1.456300e-01 3.371347e+03 
1.468900e-01 3.322770e+03 
1.480500e-01 3.279084e+03 
1.491700e-01 3.238190e+03 
1.503800e-01 3.195468e+03 
1.516400e-01 3.152293e+03 
1.528200e-01 3.114373e+03 
1.540200e-01 3.076560e+03 
1.551900e-01 3.042121e+03 
1.564300e-01 3.006740e+03 
1.576600e-01 2.973372e+03 
1.588700e-01 2.942430e+03 
1.600900e-01 2.911889e+03 
1.612700e-01 2.884295e+03 
1.625400e-01 2.855144e+03 
1.637600e-01 2.828289e+03 
1.649500e-01 2.802929e+03 
1.662200e-01 2.776360e+03 
1.674000e-01 2.752141e+03 
1.685000e-01 2.729937e+03 
1.697500e-01 2.704822e+03 
1.710300e-01 2.679259e+03 
1.722200e-01 2.655911e+03 
1.734400e-01 2.631388e+03 
1.746400e-01 2.607635e+03 
1.758700e-01 2.583378e+03 
1.770900e-01 2.559070e+03 
1.782700e-01 2.535949e+03 
1.794600e-01 2.512364e+03 
1.807000e-01 2.487762e+03 
1.819100e-01 2.464155e+03 
1.830100e-01 2.442402e+03 
1.842200e-01 2.418738e+03 
1.855000e-01 2.394117e+03 
1.867000e-01 2.371244e+03 
1.879200e-01 2.348364e+03 
1.890900e-01 2.326768e+03 
1.902800e-01 2.305152e+03 
1.915200e-01 2.282983e+03 
1.926900e-01 2.262454e+03 
1.939000e-01 2.241752e+03 
1.951700e-01 2.220367e+03 
1.963100e-01 2.201561e+03 
1.975100e-01 2.182315e+03 
1.987800e-01 2.162261e+03 
2.000100e-01 2.143263e+03 
2.012500e-01 2.124691e+03 
2.023400e-01 2.108599e+03 
2.036100e-01 2.090179e+03 
2.048900e-01 2.072142e+03 
2.060400e-01 2.056173e+03 
2.072200e-01 2.040035e+03 
2.084200e-01 2.024110e+03 
2.096900e-01 2.007500e+03 
2.109200e-01 1.991648e+03 
2.121100e-01 1.976664e+03 
2.132700e-01 1.962262e+03 
2.145200e-01 1.946957e+03 
2.157200e-01 1.932576e+03 
2.168800e-01 1.918909e+03 
2.180700e-01 1.905075e+03 
2.193400e-01 1.890574e+03 
2.206000e-01 1.876502e+03 
2.217500e-01 1.863830e+03 
2.229500e-01 1.850778e+03 
2.241400e-01 1.838200e+03 
2.253500e-01 1.825583e+03 
2.264900e-01 1.813846e+03 
2.277100e-01 1.801591e+03 
2.289900e-01 1.789067e+03 
2.301500e-01 1.777864e+03 
2.313600e-01 1.766327e+03 
2.325600e-01 1.755263e+03 
2.337700e-01 1.744247e+03 
2.350000e-01 1.733191e+03 
2.362000e-01 1.722665e+03 
2.374100e-01 1.712330e+03 
2.386500e-01 1.701873e+03 
2.399100e-01 1.691383e+03 
2.410400e-01 1.682188e+03 
2.422500e-01 1.672472e+03 
2.435000e-01 1.662560e+03 
2.447300e-01 1.652959e+03 
2.458700e-01 1.644298e+03 
2.470600e-01 1.635362e+03 
2.483300e-01 1.625941e+03 
2.495600e-01 1.616927e+03 
2.507600e-01 1.608235e+03 
2.519600e-01 1.599644e+03 
2.532200e-01 1.590732e+03 
2.543700e-01 1.582634e+03 
2.555500e-01 1.574378e+03 
2.568000e-01 1.565734e+03 
2.580100e-01 1.557464e+03 
2.592400e-01 1.549049e+03 
2.604100e-01 1.541090e+03 
2.616100e-01 1.533016e+03 
2.628400e-01 1.524835e+03 
2.640600e-01 1.516644e+03 
2.652200e-01 1.508875e+03 
2.664300e-01 1.500860e+03 
2.676500e-01 1.492868e+03 
2.688400e-01 1.485032e+03 
2.700700e-01 1.476943e+03 
2.712400e-01 1.469331e+03 
2.724800e-01 1.461351e+03 
2.736700e-01 1.453716e+03 
2.748800e-01 1.445972e+03 
2.761000e-01 1.438248e+03 
2.773200e-01 1.430607e+03 
2.785400e-01 1.422991e+03 
2.797000e-01 1.415706e+03 
2.808900e-01 1.408308e+03 
2.821400e-01 1.400620e+03 
2.833900e-01 1.393013e+03 
2.845500e-01 1.385997e+03 
2.857800e-01 1.378633e+03 
2.870300e-01 1.371228e+03 
2.882100e-01 1.364310e+03 
2.893900e-01 1.357392e+03 
2.906300e-01 1.350160e+03 
2.918900e-01 1.342887e+03 
2.930500e-01 1.336260e+03 
2.942500e-01 1.329473e+03 
2.954200e-01 1.322927e+03 
2.966500e-01 1.316113e+03 
2.978900e-01 1.309313e+03 
2.990400e-01 1.303069e+03 
3.002700e-01 1.296437e+03 
3.015100e-01 1.289808e+03 
3.026800e-01 1.283615e+03 
3.038500e-01 1.277479e+03 
3.050300e-01 1.271349e+03 
3.062600e-01 1.264954e+03 
3.075000e-01 1.258569e+03 
3.087000e-01 1.252451e+03 
3.099100e-01 1.246340e+03 
3.111200e-01 1.240311e+03 
3.123100e-01 1.234478e+03 
3.135300e-01 1.228554e+03 
3.147300e-01 1.222782e+03 
3.159900e-01 1.216780e+03 
3.171800e-01 1.211152e+03 
3.183700e-01 1.205568e+03 
3.196300e-01 1.199711e+03 
3.208400e-01 1.194139e+03 
3.220300e-01 1.188710e+03 
3.232000e-01 1.183406e+03 
3.244300e-01 1.177875e+03 
3.256700e-01 1.172351e+03 
3.269200e-01 1.166834e+03 
3.280800e-01 1.161761e+03 
3.292500e-01 1.156733e+03 
3.304800e-01 1.151508e+03 
3.317100e-01 1.146330e+03 
3.328900e-01 1.141407e+03 
3.340700e-01 1.136527e+03 
3.353600e-01 1.131226e+03 
3.365300e-01 1.126456e+03 
3.377100e-01 1.121686e+03 
3.389200e-01 1.116837e+03 
3.401600e-01 1.111912e+03 
3.413700e-01 1.107159e+03 
3.425300e-01 1.102648e+03 
3.437700e-01 1.097868e+03 
3.449800e-01 1.093243e+03 
3.461800e-01 1.088696e+03 
3.473600e-01 1.084279e+03 
3.485800e-01 1.079789e+03 
3.498100e-01 1.075302e+03 
3.510200e-01 1.070925e+03 
3.522000e-01 1.066693e+03 
3.533900e-01 1.062459e+03 
3.546400e-01 1.058033e+03 
3.558400e-01 1.053819e+03 
3.570600e-01 1.049570e+03 
3.582700e-01 1.045392e+03 
3.595000e-01 1.041179e+03 
3.607100e-01 1.037081e+03 
3.618900e-01 1.033127e+03 
3.631200e-01 1.029038e+03 
3.643200e-01 1.025082e+03 
3.655500e-01 1.021060e+03 
3.667300e-01 1.017233e+03 
3.679500e-01 1.013360e+03 
3.691900e-01 1.009456e+03 
3.703600e-01 1.005802e+03 
3.715700e-01 1.002053e+03 
3.727700e-01 9.983642e+02 
3.739900e-01 9.946382e+02 
3.752000e-01 9.909623e+02 
3.763900e-01 9.873754e+02 
3.775800e-01 9.838162e+02 
3.788200e-01 9.801367e+02 
3.800300e-01 9.765746e+02 
3.812100e-01 9.731317e+02 
3.824200e-01 9.696311e+02 
3.836100e-01 9.662148e+02 
3.848600e-01 9.626542e+02 
3.860400e-01 9.593190e+02 
3.872400e-01 9.559528e+02 
3.884600e-01 9.525605e+02 
3.896500e-01 9.492783e+02 
3.908700e-01 9.459387e+02 
3.920600e-01 9.427059e+02 
3.933100e-01 9.393360e+02 
3.945300e-01 9.360722e+02 
3.957200e-01 9.329174e+02 
3.969300e-01 9.297348e+02 
3.981700e-01 9.264979e+02 
3.993500e-01 9.234406e+02 
4.094840e-01 8.981268e+02 
4.272360e-01 8.572253e+02 
4.454600e-01 8.192200e+02 
4.630560e-01 7.856130e+02 
4.804610e-01 7.550515e+02 
4.980690e-01 7.265185e+02 
5.159230e-01 6.996954e+02 
5.317440e-01 6.776559e+02 
5.489640e-01 6.551740e+02 
5.671990e-01 6.331038e+02 
5.838690e-01 6.142408e+02 
6.018840e-01 5.952135e+02 
6.202330e-01 5.771296e+02 
6.379250e-01 5.607324e+02 
6.545410e-01 5.463217e+02 
6.714560e-01 5.324468e+02 
6.892080e-01 5.186802e+02 
7.066010e-01 5.059328e+02 
7.240540e-01 4.938202e+02 
7.420450e-01 4.819497e+02 
7.593780e-01 4.710661e+02 
7.764720e-01 4.608444e+02 
7.942840e-01 4.506672e+02 
8.116170e-01 4.411486e+02 
8.288310e-01 4.320456e+02 
8.462240e-01 4.232136e+02 
8.631980e-01 4.149543e+02 
8.810700e-01 4.065780e+02 
8.989410e-01 3.984668e+02 
9.166330e-01 3.907155e+02 
9.345640e-01 3.830946e+02 
9.515980e-01 3.761068e+02 
9.688720e-01 3.692403e+02 
9.865640e-01 3.623928e+02 
1.031870e+00 3.457306e+02 
1.063490e+00 3.347524e+02 
1.097920e+00 3.234311e+02 
1.134370e+00 3.120415e+02 
1.167730e+00 3.021091e+02 
1.203830e+00 2.918427e+02 
1.240470e+00 2.819658e+02 
1.275790e+00 2.728295e+02 
1.309140e+00 2.646078e+02 
1.342970e+00 2.565949e+02 
1.378420e+00 2.485808e+02 
1.413200e+00 2.410334e+02 
1.448110e+00 2.337721e+02 
1.484090e+00 2.266062e+02 
1.518820e+00 2.200066e+02 
1.552880e+00 2.137353e+02 
1.588630e+00 2.074458e+02 
1.623230e+00 2.015966e+02 
1.657720e+00 1.960024e+02 
1.692450e+00 1.906004e+02 
1.726400e+00 1.854674e+02 
1.762200e+00 1.802858e+02 
1.797880e+00 1.753184e+02 
1.833270e+00 1.705893e+02 
1.869070e+00 1.659856e+02 
1.903200e+00 1.617421e+02 
1.937740e+00 1.576047e+02 
1.973190e+00 1.535221e+02 
2.007440e+00 1.497131e+02 
2.042160e+00 1.459820e+02 
2.077900e+00 1.422723e+02 
2.112390e+00 1.388201e+02 
2.146220e+00 1.355518e+02 
2.181600e+00 1.322351e+02 
2.216930e+00 1.290434e+02 
2.250760e+00 1.260893e+02 
2.286500e+00 1.230677e+02 
2.321770e+00 1.201818e+02 
2.355950e+00 1.174712e+02 
2.391280e+00 1.147671e+02 
2.426240e+00 1.121792e+02 
2.460670e+00 1.097078e+02 
2.495640e+00 1.072707e+02 
2.531080e+00 1.048772e+02 
2.566220e+00 1.025745e+02 
2.600830e+00 1.003738e+02 
2.635080e+00 9.825983e+01 
2.670340e+00 9.615334e+01 
2.705970e+00 9.409033e+01 
2.740040e+00 9.217549e+01 
2.774520e+00 9.028553e+01 
2.809730e+00 8.841872e+01 
2.844390e+00 8.663694e+01 
2.879960e+00 8.485707e+01 
2.914860e+00 8.315774e+01 
2.949410e+00 8.152275e+01 
2.984440e+00 7.990995e+01 
3.019760e+00 7.832489e+01 
3.054730e+00 7.679791e+01 
3.089030e+00 7.534641e+01 
3.124060e+00 7.390351e+01 
3.159560e+00 7.247908e+01 
3.194710e+00 7.111118e+01 
3.229010e+00 6.981304e+01 
3.263320e+00 6.853537e+01 
3.297930e+00 6.728250e+01 
3.332830e+00 6.605538e+01 
3.368040e+00 6.485115e+01 
3.403300e+00 6.367791e+01 
3.438450e+00 6.253518e+01 
3.473060e+00 6.143846e+01 
3.508440e+00 6.034408e+01 
3.543110e+00 5.929870e+01 
3.577470e+00 5.828524e+01 
3.613040e+00 5.726332e+01 
3.648120e+00 5.628284e+01 
3.682910e+00 5.533274e+01 
3.718050e+00 5.439317e+01 
3.753320e+00 5.347507e+01 
3.787980e+00 5.259723e+01 
3.822290e+00 5.174702e+01 
3.857020e+00 5.090384e+01 
3.891920e+00 5.007730e+01 
3.926650e+00 4.927544e+01 
3.961970e+00 4.847817e+01 
3.997360e+00 4.769604e+01 
4.031670e+00 4.695555e+01 
4.066330e+00 4.622626e+01 
4.101420e+00 4.550442e+01 
4.136200e+00 4.480252e+01 
4.170810e+00 4.411945e+01 
4.206250e+00 4.343459e+01 
4.241580e+00 4.276681e+01 
4.276300e+00 4.212750e+01 
4.310970e+00 4.150422e+01 
4.346120e+00 4.088436e+01 
4.380600e+00 4.028681e+01 
4.414730e+00 3.970765e+01 
4.450350e+00 3.911961e+01 
4.485320e+00 3.855438e+01 
4.519810e+00 3.800614e+01 
4.555430e+00 3.745059e+01 
4.590870e+00 3.691061e+01 
4.625480e+00 3.639674e+01 
4.659910e+00 3.589562e+01 
4.695230e+00 3.539065e+01 
4.729960e+00 3.490377e+01 
4.764450e+00 3.442994e+01 
4.799530e+00 3.395787e+01 
4.834910e+00 3.349103e+01 
4.869700e+00 3.304111e+01 
4.904370e+00 3.260128e+01 
4.939450e+00 3.216493e+01 
4.973940e+00 3.174467e+01 
5.008430e+00 3.133216e+01 
5.043810e+00 3.091732e+01 
5.078840e+00 3.051448e+01 
5.113500e+00 3.012318e+01 
5.148890e+00 2.973133e+01 
5.184210e+00 2.934743e+01 
5.219060e+00 2.897552e+01 
5.253660e+00 2.861297e+01 
5.288570e+00 2.825363e+01 
5.323420e+00 2.790216e+01 
5.358440e+00 2.755622e+01 
5.393590e+00 2.721505e+01 
5.428310e+00 2.688337e+01 
5.462800e+00 2.655922e+01 
5.497640e+00 2.623734e+01 
5.532670e+00 2.592056e+01 
5.567280e+00 2.561327e+01 
5.602000e+00 2.531014e+01 
5.637270e+00 2.500747e+01 
5.672410e+00 2.471097e+01 
5.707020e+00 2.442376e+01 
5.742040e+00 2.413821e+01 
5.777430e+00 2.385446e+01 
5.812210e+00 2.358014e+01 
5.846820e+00 2.331196e+01 
5.881610e+00 2.304680e+01 
5.916510e+00 2.278503e+01 
5.951600e+00 2.252676e+01 
5.986560e+00 2.227384e+01 
6.021830e+00 2.202271e+01 
6.056490e+00 2.177968e+01 
6.091160e+00 2.154025e+01 
6.125830e+00 2.130450e+01 
6.161090e+00 2.106856e+01 
6.195760e+00 2.084042e+01 
6.230420e+00 2.061579e+01 
6.265690e+00 2.039070e+01 
6.300950e+00 2.017000e+01 
6.335620e+00 1.995623e+01 
6.370880e+00 1.974205e+01 
6.405550e+00 1.953445e+01 
6.440220e+00 1.932984e+01 
6.475480e+00 1.912479e+01 
6.510150e+00 1.892637e+01 
6.544810e+00 1.873142e+01 
6.580080e+00 1.853590e+01 
6.614750e+00 1.834647e+01 
6.649410e+00 1.816014e+01 
6.684080e+00 1.797646e+01 
6.719340e+00 1.779229e+01 
6.754010e+00 1.761371e+01 
6.788680e+00 1.743750e+01 
6.823940e+00 1.726079e+01 
6.859800e+00 1.708362e+01 
6.894470e+00 1.691521e+01 
6.929140e+00 1.674928e+01 
6.963800e+00 1.658564e+01 
6.999070e+00 1.642137e+01 
7.033730e+00 1.626176e+01 
7.068400e+00 1.610424e+01 
7.103660e+00 1.594620e+01 
7.138330e+00 1.579316e+01 
7.173600e+00 1.564015e+01 
7.208260e+00 1.549177e+01 
7.243530e+00 1.534277e+01 
7.277600e+00 1.520040e+01 
7.312860e+00 1.505467e+01 
7.348120e+00 1.491087e+01 
7.382790e+00 1.477130e+01 
7.417460e+00 1.463404e+01 
7.452720e+00 1.449650e+01 
7.487390e+00 1.436299e+01 
7.522650e+00 1.422895e+01 
7.557320e+00 1.409902e+01 
7.591990e+00 1.397080e+01 
7.627250e+00 1.384203e+01 
7.662510e+00 1.371489e+01 
7.697180e+00 1.359098e+01 
7.731850e+00 1.346842e+01 
7.766510e+00 1.334741e+01 
7.801180e+00 1.322785e+01 
7.836440e+00 1.310823e+01 
7.871110e+00 1.299236e+01 
7.906380e+00 1.287592e+01 
7.941040e+00 1.276289e+01 
7.976310e+00 1.264922e+01 
8.011570e+00 1.253692e+01 
8.046240e+00 1.242783e+01 
8.080900e+00 1.232007e+01 
8.115570e+00 1.221350e+01 
8.150830e+00 1.210628e+01 
8.185500e+00 1.200210e+01 
8.220770e+00 1.189736e+01 
8.255430e+00 1.179565e+01 
8.290100e+00 1.169537e+01 
8.324770e+00 1.159628e+01 
8.359430e+00 1.149836e+01 
8.394700e+00 1.139987e+01 
8.429960e+00 1.130249e+01 
8.464630e+00 1.120779e+01 
8.499890e+00 1.111258e+01 
8.534560e+00 1.102002e+01 
8.569200e+00 1.092859e+01 
