# Parameters:
# omega_b = 0.022429, omega_m = 0.148386, n_s = 0.949213, h = 76.023622, w = -1.000000, sigma_8 = 0.774016
# z = 0.300000
#
# k[1/Mpc] # P(k):
8.694000e-04 8.533442e+03 
2.077466e-03 1.808194e+04 
3.285532e-03 2.557897e+04 
4.493598e-03 3.139639e+04 
5.701664e-03 3.577487e+04 
6.909730e-03 3.894102e+04 
8.117797e-03 4.115293e+04 
9.325863e-03 4.254359e+04 
1.053393e-02 4.324652e+04 
1.174199e-02 4.338480e+04 
1.295006e-02 4.303899e+04 
1.415813e-02 4.231644e+04 
1.536619e-02 4.130678e+04 
1.657426e-02 4.008826e+04 
1.778233e-02 3.874551e+04 
1.899039e-02 3.727683e+04 
2.019846e-02 3.565726e+04 
2.140652e-02 3.399980e+04 
2.261459e-02 3.237800e+04 
2.382266e-02 3.082816e+04 
2.503072e-02 2.937269e+04 
2.623879e-02 2.801979e+04 
2.744685e-02 2.677288e+04 
2.865492e-02 2.563707e+04 
2.986299e-02 2.460955e+04 
3.100100e-02 2.373895e+04 
3.220400e-02 2.291525e+04 
3.288100e-02 2.249515e+04 
3.424300e-02 2.173325e+04 
3.555100e-02 2.109298e+04 
3.686000e-02 2.053161e+04 
3.795000e-02 2.011382e+04 
3.929100e-02 1.965427e+04 
4.039800e-02 1.930636e+04 
4.164000e-02 1.893978e+04 
4.294400e-02 1.856704e+04 
4.415000e-02 1.822823e+04 
4.542900e-02 1.785682e+04 
4.660900e-02 1.750845e+04 
4.782300e-02 1.712085e+04 
4.892900e-02 1.675266e+04 
5.031200e-02 1.626613e+04 
5.155900e-02 1.580038e+04 
5.238100e-02 1.548182e+04 
5.378200e-02 1.492576e+04 
5.513400e-02 1.437354e+04 
5.627600e-02 1.390126e+04 
5.735300e-02 1.345886e+04 
5.870100e-02 1.291584e+04 
5.988700e-02 1.245283e+04 
6.113500e-02 1.198519e+04 
6.225900e-02 1.158356e+04 
6.340100e-02 1.120083e+04 
6.480200e-02 1.076434e+04 
6.601100e-02 1.041999e+04 
6.725500e-02 1.009658e+04 
6.829100e-02 9.853654e+03 
6.958600e-02 9.577356e+03 
7.071100e-02 9.363413e+03 
7.192300e-02 9.155654e+03 
7.307400e-02 8.978038e+03 
7.412300e-02 8.831298e+03 
7.550400e-02 8.659213e+03 
7.663100e-02 8.530863e+03 
7.791200e-02 8.398566e+03 
7.912700e-02 8.281035e+03 
8.027600e-02 8.175689e+03 
8.138400e-02 8.077084e+03 
8.272200e-02 7.959480e+03 
8.406100e-02 7.841967e+03 
8.534100e-02 7.726115e+03 
8.653800e-02 7.614694e+03 
8.759800e-02 7.513555e+03 
8.900300e-02 7.374342e+03 
9.009000e-02 7.261558e+03 
9.113300e-02 7.149424e+03 
9.239600e-02 7.011498e+03 
9.358000e-02 6.878480e+03 
9.496100e-02 6.717832e+03 
9.608400e-02 6.586334e+03 
9.727500e-02 6.447252e+03 
9.852600e-02 6.298336e+03 
9.973800e-02 6.156598e+03 
1.009000e-01 6.023200e+03 
1.020900e-01 5.889302e+03 
1.034000e-01 5.747088e+03 
1.046000e-01 5.621559e+03 
1.057200e-01 5.510387e+03 
1.069100e-01 5.397197e+03 
1.082500e-01 5.279277e+03 
1.093900e-01 5.185723e+03 
1.105400e-01 5.096065e+03 
1.116900e-01 5.015237e+03 
1.129600e-01 4.930613e+03 
1.142000e-01 4.856006e+03 
1.153300e-01 4.792072e+03 
1.166400e-01 4.723467e+03 
1.177800e-01 4.667958e+03 
1.190000e-01 4.611245e+03 
1.201200e-01 4.561975e+03 
1.213400e-01 4.509854e+03 
1.227100e-01 4.453375e+03 
1.238900e-01 4.405670e+03 
1.250700e-01 4.357963e+03 
1.263200e-01 4.307746e+03 
1.275500e-01 4.257569e+03 
1.287500e-01 4.208629e+03 
1.299900e-01 4.157448e+03 
1.311300e-01 4.109910e+03 
1.323500e-01 4.057844e+03 
1.335900e-01 4.004742e+03 
1.347100e-01 3.955991e+03 
1.359800e-01 3.900899e+03 
1.372100e-01 3.846714e+03 
1.384300e-01 3.793476e+03 
1.395700e-01 3.743145e+03 
1.407700e-01 3.691150e+03 
1.420300e-01 3.636367e+03 
1.432800e-01 3.583240e+03 
1.444500e-01 3.533952e+03 
1.456300e-01 3.485278e+03 
1.468900e-01 3.435002e+03 
1.480500e-01 3.389861e+03 
1.491700e-01 3.347633e+03 
1.503800e-01 3.303554e+03 
1.516400e-01 3.258979e+03 
1.528200e-01 3.219711e+03 
1.540200e-01 3.180553e+03 
1.551900e-01 3.144635e+03 
1.564300e-01 3.107670e+03 
1.576600e-01 3.072643e+03 
1.588700e-01 3.039954e+03 
1.600900e-01 3.007674e+03 
1.612700e-01 2.978158e+03 
1.625400e-01 2.946980e+03 
1.637600e-01 2.918097e+03 
1.649500e-01 2.890728e+03 
1.662200e-01 2.862038e+03 
1.674000e-01 2.835801e+03 
1.685000e-01 2.811748e+03 
1.697500e-01 2.784573e+03 
1.710300e-01 2.756945e+03 
1.722200e-01 2.731712e+03 
1.734400e-01 2.705384e+03 
1.746400e-01 2.679893e+03 
1.758700e-01 2.653935e+03 
1.770900e-01 2.628072e+03 
1.782700e-01 2.603474e+03 
1.794600e-01 2.578522e+03 
1.807000e-01 2.552587e+03 
1.819100e-01 2.527702e+03 
1.830100e-01 2.504929e+03 
1.842200e-01 2.480184e+03 
1.855000e-01 2.454444e+03 
1.867000e-01 2.430658e+03 
1.879200e-01 2.406866e+03 
1.890900e-01 2.384421e+03 
1.902800e-01 2.362011e+03 
1.915200e-01 2.339029e+03 
1.926900e-01 2.317753e+03 
1.939000e-01 2.296312e+03 
1.951700e-01 2.274164e+03 
1.963100e-01 2.254681e+03 
1.975100e-01 2.234727e+03 
1.987800e-01 2.213935e+03 
2.000100e-01 2.194222e+03 
2.012500e-01 2.174912e+03 
2.023400e-01 2.158181e+03 
2.036100e-01 2.139017e+03 
2.048900e-01 2.120203e+03 
2.060400e-01 2.103545e+03 
2.072200e-01 2.086707e+03 
2.084200e-01 2.070038e+03 
2.096900e-01 2.052652e+03 
2.109200e-01 2.036060e+03 
2.121100e-01 2.020340e+03 
2.132700e-01 2.005230e+03 
2.145200e-01 1.989173e+03 
2.157200e-01 1.974069e+03 
2.168800e-01 1.959706e+03 
2.180700e-01 1.945168e+03 
2.193400e-01 1.929927e+03 
2.206000e-01 1.915133e+03 
2.217500e-01 1.901810e+03 
2.229500e-01 1.888088e+03 
2.241400e-01 1.874869e+03 
2.253500e-01 1.861609e+03 
2.264900e-01 1.849274e+03 
2.277100e-01 1.836400e+03 
2.289900e-01 1.823248e+03 
2.301500e-01 1.811484e+03 
2.313600e-01 1.799368e+03 
2.325600e-01 1.787759e+03 
2.337700e-01 1.776201e+03 
2.350000e-01 1.764601e+03 
2.362000e-01 1.753563e+03 
2.374100e-01 1.742732e+03 
2.386500e-01 1.731773e+03 
2.399100e-01 1.720779e+03 
2.410400e-01 1.711156e+03 
2.422500e-01 1.700988e+03 
2.435000e-01 1.690613e+03 
2.447300e-01 1.680569e+03 
2.458700e-01 1.671517e+03 
2.470600e-01 1.662177e+03 
2.483300e-01 1.652331e+03 
2.495600e-01 1.642917e+03 
2.507600e-01 1.633849e+03 
2.519600e-01 1.624888e+03 
2.532200e-01 1.615590e+03 
2.543700e-01 1.607153e+03 
2.555500e-01 1.598559e+03 
2.568000e-01 1.589560e+03 
2.580100e-01 1.580951e+03 
2.592400e-01 1.572204e+03 
2.604100e-01 1.563934e+03 
2.616100e-01 1.555547e+03 
2.628400e-01 1.547047e+03 
2.640600e-01 1.538549e+03 
2.652200e-01 1.530492e+03 
2.664300e-01 1.522180e+03 
2.676500e-01 1.513892e+03 
2.688400e-01 1.505770e+03 
2.700700e-01 1.497389e+03 
2.712400e-01 1.489503e+03 
2.724800e-01 1.481235e+03 
2.736700e-01 1.473326e+03 
2.748800e-01 1.465306e+03 
2.761000e-01 1.457308e+03 
2.773200e-01 1.449395e+03 
2.785400e-01 1.441508e+03 
2.797000e-01 1.433962e+03 
2.808900e-01 1.426300e+03 
2.821400e-01 1.418338e+03 
2.833900e-01 1.410459e+03 
2.845500e-01 1.403188e+03 
2.857800e-01 1.395556e+03 
2.870300e-01 1.387882e+03 
2.882100e-01 1.380713e+03 
2.893900e-01 1.373542e+03 
2.906300e-01 1.366043e+03 
2.918900e-01 1.358504e+03 
2.930500e-01 1.351633e+03 
2.942500e-01 1.344596e+03 
2.954200e-01 1.337807e+03 
2.966500e-01 1.330741e+03 
2.978900e-01 1.323690e+03 
2.990400e-01 1.317214e+03 
3.002700e-01 1.310336e+03 
3.015100e-01 1.303461e+03 
3.026800e-01 1.297038e+03 
3.038500e-01 1.290676e+03 
3.050300e-01 1.284318e+03 
3.062600e-01 1.277690e+03 
3.075000e-01 1.271073e+03 
3.087000e-01 1.264731e+03 
3.099100e-01 1.258398e+03 
3.111200e-01 1.252151e+03 
3.123100e-01 1.246108e+03 
3.135300e-01 1.239972e+03 
3.147300e-01 1.233993e+03 
3.159900e-01 1.227775e+03 
3.171800e-01 1.221948e+03 
3.183700e-01 1.216170e+03 
3.196300e-01 1.210109e+03 
3.208400e-01 1.204343e+03 
3.220300e-01 1.198724e+03 
3.232000e-01 1.193241e+03 
3.244300e-01 1.187526e+03 
3.256700e-01 1.181818e+03 
3.269200e-01 1.176118e+03 
3.280800e-01 1.170875e+03 
3.292500e-01 1.165683e+03 
3.304800e-01 1.160289e+03 
3.317100e-01 1.154944e+03 
3.328900e-01 1.149862e+03 
3.340700e-01 1.144824e+03 
3.353600e-01 1.139357e+03 
3.365300e-01 1.134440e+03 
3.377100e-01 1.129523e+03 
3.389200e-01 1.124525e+03 
3.401600e-01 1.119448e+03 
3.413700e-01 1.114552e+03 
3.425300e-01 1.109909e+03 
3.437700e-01 1.104987e+03 
3.449800e-01 1.100226e+03 
3.461800e-01 1.095545e+03 
3.473600e-01 1.090998e+03 
3.485800e-01 1.086379e+03 
3.498100e-01 1.081762e+03 
3.510200e-01 1.077258e+03 
3.522000e-01 1.072903e+03 
3.533900e-01 1.068547e+03 
3.546400e-01 1.064000e+03 
3.558400e-01 1.059671e+03 
3.570600e-01 1.055306e+03 
3.582700e-01 1.051012e+03 
3.595000e-01 1.046684e+03 
3.607100e-01 1.042475e+03 
3.618900e-01 1.038415e+03 
3.631200e-01 1.034216e+03 
3.643200e-01 1.030154e+03 
3.655500e-01 1.026023e+03 
3.667300e-01 1.022093e+03 
3.679500e-01 1.018117e+03 
3.691900e-01 1.014109e+03 
3.703600e-01 1.010357e+03 
3.715700e-01 1.006507e+03 
3.727700e-01 1.002720e+03 
3.739900e-01 9.988952e+02 
3.752000e-01 9.951239e+02 
3.763900e-01 9.914439e+02 
3.775800e-01 9.877923e+02 
3.788200e-01 9.840172e+02 
3.800300e-01 9.803625e+02 
3.812100e-01 9.768305e+02 
3.824200e-01 9.732396e+02 
3.836100e-01 9.697351e+02 
3.848600e-01 9.660825e+02 
3.860400e-01 9.626610e+02 
3.872400e-01 9.592078e+02 
3.884600e-01 9.557268e+02 
3.896500e-01 9.523584e+02 
3.908700e-01 9.489311e+02 
3.920600e-01 9.456132e+02 
3.933100e-01 9.421546e+02 
3.945300e-01 9.388049e+02 
3.957200e-01 9.355681e+02 
3.969300e-01 9.323029e+02 
3.981700e-01 9.289820e+02 
3.993500e-01 9.258453e+02 
4.094840e-01 8.998650e+02 
4.272360e-01 8.578657e+02 
4.454600e-01 8.188218e+02 
4.630560e-01 7.842879e+02 
4.804610e-01 7.528824e+02 
4.980690e-01 7.235710e+02 
5.159230e-01 6.960309e+02 
5.317440e-01 6.734129e+02 
5.489640e-01 6.503543e+02 
5.671990e-01 6.277322e+02 
5.838690e-01 6.084084e+02 
6.018840e-01 5.889246e+02 
6.202330e-01 5.704156e+02 
6.379250e-01 5.536417e+02 
6.545410e-01 5.389013e+02 
6.714560e-01 5.247142e+02 
6.892080e-01 5.106401e+02 
7.066010e-01 4.976097e+02 
7.240540e-01 4.852324e+02 
7.420450e-01 4.731032e+02 
7.593780e-01 4.619861e+02 
7.764720e-01 4.515484e+02 
7.942840e-01 4.411582e+02 
8.116170e-01 4.314443e+02 
8.288310e-01 4.221620e+02 
8.462240e-01 4.131600e+02 
8.631980e-01 4.047434e+02 
8.810700e-01 3.962118e+02 
8.989410e-01 3.879583e+02 
9.166330e-01 3.800762e+02 
9.345640e-01 3.723345e+02 
9.515980e-01 3.652410e+02 
9.688720e-01 3.582752e+02 
9.865640e-01 3.513364e+02 
1.031870e+00 3.344805e+02 
1.063490e+00 3.234012e+02 
1.097920e+00 3.119931e+02 
1.134370e+00 3.005431e+02 
1.167730e+00 2.905781e+02 
1.203830e+00 2.803016e+02 
1.240470e+00 2.704336e+02 
1.275790e+00 2.613276e+02 
1.309140e+00 2.531466e+02 
1.342970e+00 2.451914e+02 
1.378420e+00 2.372476e+02 
1.413200e+00 2.297815e+02 
1.448110e+00 2.226112e+02 
1.484090e+00 2.155472e+02 
1.518820e+00 2.090517e+02 
1.552880e+00 2.028924e+02 
1.588630e+00 1.967233e+02 
1.623230e+00 1.909945e+02 
1.657720e+00 1.855230e+02 
1.692450e+00 1.802473e+02 
1.726400e+00 1.752429e+02 
1.762200e+00 1.701971e+02 
1.797880e+00 1.653669e+02 
1.833270e+00 1.607734e+02 
1.869070e+00 1.563073e+02 
1.903200e+00 1.521961e+02 
1.937740e+00 1.481921e+02 
1.973190e+00 1.442456e+02 
2.007440e+00 1.405677e+02 
2.042160e+00 1.369686e+02 
2.077900e+00 1.333944e+02 
2.112390e+00 1.300714e+02 
2.146220e+00 1.269287e+02 
2.181600e+00 1.237423e+02 
2.216930e+00 1.206791e+02 
2.250760e+00 1.178464e+02 
2.286500e+00 1.149514e+02 
2.321770e+00 1.121889e+02 
2.355950e+00 1.095962e+02 
2.391280e+00 1.070122e+02 
2.426240e+00 1.045412e+02 
2.460670e+00 1.021832e+02 
2.495640e+00 9.985956e+01 
2.531080e+00 9.757943e+01 
2.566220e+00 9.538730e+01 
2.600830e+00 9.329384e+01 
2.635080e+00 9.128425e+01 
2.670340e+00 8.928332e+01 
2.705970e+00 8.732494e+01 
2.740040e+00 8.550825e+01 
2.774520e+00 8.371649e+01 
2.809730e+00 8.194769e+01 
2.844390e+00 8.026029e+01 
2.879960e+00 7.857584e+01 
2.914860e+00 7.696876e+01 
2.949410e+00 7.542325e+01 
2.984440e+00 7.389955e+01 
3.019760e+00 7.240302e+01 
3.054730e+00 7.096203e+01 
3.089030e+00 6.959311e+01 
3.124060e+00 6.823285e+01 
3.159560e+00 6.689073e+01 
3.194710e+00 6.560241e+01 
3.229010e+00 6.438017e+01 
3.263320e+00 6.317830e+01 
3.297930e+00 6.200009e+01 
3.332830e+00 6.084657e+01 
3.368040e+00 5.971511e+01 
3.403300e+00 5.861321e+01 
3.438450e+00 5.754055e+01 
3.473060e+00 5.651136e+01 
3.508440e+00 5.548489e+01 
3.543110e+00 5.450465e+01 
3.577470e+00 5.355495e+01 
3.613040e+00 5.259757e+01 
3.648120e+00 5.167939e+01 
3.682910e+00 5.078996e+01 
3.718050e+00 4.991080e+01 
3.753320e+00 4.905197e+01 
3.787980e+00 4.823108e+01 
3.822290e+00 4.743630e+01 
3.857020e+00 4.664845e+01 
3.891920e+00 4.587636e+01 
3.926650e+00 4.512759e+01 
3.961970e+00 4.438332e+01 
3.997360e+00 4.365350e+01 
4.031670e+00 4.296268e+01 
4.066330e+00 4.228257e+01 
4.101420e+00 4.160952e+01 
4.136200e+00 4.095534e+01 
4.170810e+00 4.031882e+01 
4.206250e+00 3.968100e+01 
4.241580e+00 3.905924e+01 
4.276300e+00 3.846409e+01 
4.310970e+00 3.788396e+01 
4.346120e+00 3.730722e+01 
4.380600e+00 3.675149e+01 
4.414730e+00 3.621296e+01 
4.450350e+00 3.566631e+01 
4.485320e+00 3.514095e+01 
4.519810e+00 3.463159e+01 
4.555430e+00 3.411557e+01 
4.590870e+00 3.361413e+01 
4.625480e+00 3.313706e+01 
4.659910e+00 3.267192e+01 
4.695230e+00 3.220336e+01 
4.729960e+00 3.175166e+01 
4.764450e+00 3.131221e+01 
4.799530e+00 3.087453e+01 
4.834910e+00 3.044177e+01 
4.869700e+00 3.002487e+01 
4.904370e+00 2.961740e+01 
4.939450e+00 2.921322e+01 
4.973940e+00 2.882402e+01 
5.008430e+00 2.844206e+01 
5.043810e+00 2.805810e+01 
5.078840e+00 2.768536e+01 
5.113500e+00 2.732335e+01 
5.148890e+00 2.696094e+01 
5.184210e+00 2.660595e+01 
5.219060e+00 2.626211e+01 
5.253660e+00 2.592702e+01 
5.288570e+00 2.559494e+01 
5.323420e+00 2.527024e+01 
5.358440e+00 2.495072e+01 
5.393590e+00 2.463566e+01 
5.428310e+00 2.432948e+01 
5.462800e+00 2.403035e+01 
5.497640e+00 2.373335e+01 
5.532670e+00 2.344114e+01 
5.567280e+00 2.315775e+01 
5.602000e+00 2.287824e+01 
5.637270e+00 2.259924e+01 
5.672410e+00 2.232599e+01 
5.707020e+00 2.206134e+01 
5.742040e+00 2.179833e+01 
5.777430e+00 2.153701e+01 
5.812210e+00 2.128443e+01 
5.846820e+00 2.103760e+01 
5.881610e+00 2.079359e+01 
5.916510e+00 2.055274e+01 
5.951600e+00 2.031520e+01 
5.986560e+00 2.008264e+01 
6.021830e+00 1.985174e+01 
6.056490e+00 1.962837e+01 
6.091160e+00 1.940838e+01 
6.125830e+00 1.919179e+01 
6.161090e+00 1.897509e+01 
6.195760e+00 1.876564e+01 
6.230420e+00 1.855944e+01 
6.265690e+00 1.835285e+01 
6.300950e+00 1.815040e+01 
6.335620e+00 1.795434e+01 
6.370880e+00 1.775793e+01 
6.405550e+00 1.756763e+01 
6.440220e+00 1.738011e+01 
6.475480e+00 1.719222e+01 
6.510150e+00 1.701045e+01 
6.544810e+00 1.683194e+01 
6.580080e+00 1.665293e+01 
6.614750e+00 1.647951e+01 
6.649410e+00 1.630902e+01 
6.684080e+00 1.614098e+01 
6.719340e+00 1.597252e+01 
6.754010e+00 1.580922e+01 
6.788680e+00 1.564817e+01 
6.823940e+00 1.548669e+01 
6.859800e+00 1.532481e+01 
6.894470e+00 1.517101e+01 
6.929140e+00 1.501951e+01 
6.963800e+00 1.487012e+01 
6.999070e+00 1.472018e+01 
7.033730e+00 1.457459e+01 
7.068400e+00 1.443093e+01 
7.103660e+00 1.428680e+01 
7.138330e+00 1.414729e+01 
7.173600e+00 1.400787e+01 
7.208260e+00 1.387268e+01 
7.243530e+00 1.373695e+01 
7.277600e+00 1.360732e+01 
7.312860e+00 1.347469e+01 
7.348120e+00 1.334382e+01 
7.382790e+00 1.321683e+01 
7.417460e+00 1.309199e+01 
7.452720e+00 1.296694e+01 
7.487390e+00 1.284557e+01 
7.522650e+00 1.272372e+01 
7.557320e+00 1.260569e+01 
7.591990e+00 1.248924e+01 
7.627250e+00 1.237231e+01 
7.662510e+00 1.225686e+01 
7.697180e+00 1.214443e+01 
7.731850e+00 1.203327e+01 
7.766510e+00 1.192351e+01 
7.801180e+00 1.181508e+01 
7.836440e+00 1.170665e+01 
7.871110e+00 1.160166e+01 
7.906380e+00 1.149616e+01 
7.941040e+00 1.139375e+01 
7.976310e+00 1.129082e+01 
8.011570e+00 1.118918e+01 
8.046240e+00 1.109045e+01 
8.080900e+00 1.099293e+01 
8.115570e+00 1.089652e+01 
8.150830e+00 1.079961e+01 
8.185500e+00 1.070545e+01 
8.220770e+00 1.061079e+01 
8.255430e+00 1.051887e+01 
8.290100e+00 1.042832e+01 
8.324770e+00 1.033886e+01 
8.359430e+00 1.025045e+01 
8.394700e+00 1.016154e+01 
8.429960e+00 1.007368e+01 
8.464630e+00 9.988275e+00 
8.499890e+00 9.902415e+00 
8.534560e+00 9.818958e+00 
8.569200e+00 9.736517e+00 
