# Parameters:
# omega_b = 0.021972, omega_m = 0.151142, n_s = 0.955512, h = 57.834646, w = -1.000000, sigma_8 = 0.762992
# z = 0.300000
#
# k[1/Mpc] # P(k):
8.694000e-04 1.008630e+04 
2.077466e-03 2.152657e+04 
3.285532e-03 3.059741e+04 
4.493598e-03 3.770954e+04 
5.701664e-03 4.313658e+04 
6.909730e-03 4.712182e+04 
8.117797e-03 4.995513e+04 
9.325863e-03 5.178706e+04 
1.053393e-02 5.277627e+04 
1.174199e-02 5.307456e+04 
1.295006e-02 5.277513e+04 
1.415813e-02 5.200561e+04 
1.536619e-02 5.087793e+04 
1.657426e-02 4.946145e+04 
1.778233e-02 4.782655e+04 
1.899039e-02 4.614006e+04 
2.019846e-02 4.445641e+04 
2.140652e-02 4.275950e+04 
2.261459e-02 4.105562e+04 
2.382266e-02 3.938538e+04 
2.503072e-02 3.778091e+04 
2.623879e-02 3.625499e+04 
2.744685e-02 3.481081e+04 
2.865492e-02 3.346263e+04 
2.986299e-02 3.221163e+04 
3.100100e-02 3.112101e+04 
3.220400e-02 3.005960e+04 
3.288100e-02 2.950308e+04 
3.424300e-02 2.846741e+04 
3.555100e-02 2.756819e+04 
3.686000e-02 2.675395e+04 
3.795000e-02 2.613268e+04 
3.929100e-02 2.543329e+04 
4.039800e-02 2.489909e+04 
4.164000e-02 2.433732e+04 
4.294400e-02 2.377922e+04 
4.415000e-02 2.328581e+04 
4.542900e-02 2.277232e+04 
4.660900e-02 2.230985e+04 
4.782300e-02 2.182632e+04 
4.892900e-02 2.138412e+04 
5.031200e-02 2.082344e+04 
5.155900e-02 2.030579e+04 
5.238100e-02 1.995833e+04 
5.378200e-02 1.936050e+04 
5.513400e-02 1.877188e+04 
5.627600e-02 1.826804e+04 
5.735300e-02 1.779296e+04 
5.870100e-02 1.720277e+04 
5.988700e-02 1.669019e+04 
6.113500e-02 1.616130e+04 
6.225900e-02 1.569493e+04 
6.340100e-02 1.523848e+04 
6.480200e-02 1.470293e+04 
6.601100e-02 1.426368e+04 
6.725500e-02 1.383649e+04 
6.829100e-02 1.350293e+04 
6.958600e-02 1.311282e+04 
7.071100e-02 1.279952e+04 
7.192300e-02 1.248620e+04 
7.307400e-02 1.221108e+04 
7.412300e-02 1.197891e+04 
7.550400e-02 1.170091e+04 
7.663100e-02 1.149164e+04 
7.791200e-02 1.127569e+04 
7.912700e-02 1.108691e+04 
8.027600e-02 1.092131e+04 
8.138400e-02 1.077041e+04 
8.272200e-02 1.059702e+04 
8.406100e-02 1.043100e+04 
8.534100e-02 1.027541e+04 
8.653800e-02 1.013160e+04 
8.759800e-02 1.000413e+04 
8.900300e-02 9.832798e+03 
9.009000e-02 9.696673e+03 
9.113300e-02 9.563103e+03 
9.239600e-02 9.399994e+03 
9.358000e-02 9.243699e+03 
9.496100e-02 9.055583e+03 
9.608400e-02 8.901664e+03 
9.727500e-02 8.738802e+03 
9.852600e-02 8.564032e+03 
9.973800e-02 8.396982e+03 
1.009000e-01 8.239140e+03 
1.020900e-01 8.078921e+03 
1.034000e-01 7.907322e+03 
1.046000e-01 7.754356e+03 
1.057200e-01 7.615769e+03 
1.069100e-01 7.473286e+03 
1.082500e-01 7.320837e+03 
1.093900e-01 7.196922e+03 
1.105400e-01 7.076385e+03 
1.116900e-01 6.963361e+03 
1.129600e-01 6.843464e+03 
1.142000e-01 6.733749e+03 
1.153300e-01 6.638380e+03 
1.166400e-01 6.533862e+03 
1.177800e-01 6.448113e+03 
1.190000e-01 6.359925e+03 
1.201200e-01 6.283579e+03 
1.213400e-01 6.202859e+03 
1.227100e-01 6.117834e+03 
1.238900e-01 6.046803e+03 
1.250700e-01 5.978426e+03 
1.263200e-01 5.907667e+03 
1.275500e-01 5.839627e+03 
1.287500e-01 5.774630e+03 
1.299900e-01 5.708771e+03 
1.311300e-01 5.648609e+03 
1.323500e-01 5.584183e+03 
1.335900e-01 5.519091e+03 
1.347100e-01 5.460127e+03 
1.359800e-01 5.393646e+03 
1.372100e-01 5.328573e+03 
1.384300e-01 5.264514e+03 
1.395700e-01 5.203706e+03 
1.407700e-01 5.140768e+03 
1.420300e-01 5.073595e+03 
1.432800e-01 5.008407e+03 
1.444500e-01 4.946676e+03 
1.456300e-01 4.885674e+03 
1.468900e-01 4.821551e+03 
1.480500e-01 4.763625e+03 
1.491700e-01 4.708818e+03 
1.503800e-01 4.650820e+03 
1.516400e-01 4.591905e+03 
1.528200e-01 4.538908e+03 
1.540200e-01 4.486051e+03 
1.551900e-01 4.436632e+03 
1.564300e-01 4.385533e+03 
1.576600e-01 4.336748e+03 
1.588700e-01 4.290773e+03 
1.600900e-01 4.245348e+03 
1.612700e-01 4.203408e+03 
1.625400e-01 4.159105e+03 
1.637600e-01 4.118095e+03 
1.649500e-01 4.079252e+03 
1.662200e-01 4.038607e+03 
1.674000e-01 4.001839e+03 
1.685000e-01 3.968131e+03 
1.697500e-01 3.930425e+03 
1.710300e-01 3.892461e+03 
1.722200e-01 3.857786e+03 
1.734400e-01 3.822400e+03 
1.746400e-01 3.788167e+03 
1.758700e-01 3.753533e+03 
1.770900e-01 3.719482e+03 
1.782700e-01 3.687090e+03 
1.794600e-01 3.654513e+03 
1.807000e-01 3.620830e+03 
1.819100e-01 3.588506e+03 
1.830100e-01 3.559084e+03 
1.842200e-01 3.527135e+03 
1.855000e-01 3.493893e+03 
1.867000e-01 3.463187e+03 
1.879200e-01 3.432464e+03 
1.890900e-01 3.403448e+03 
1.902800e-01 3.374334e+03 
1.915200e-01 3.344471e+03 
1.926900e-01 3.316761e+03 
1.939000e-01 3.288642e+03 
1.951700e-01 3.259591e+03 
1.963100e-01 3.233959e+03 
1.975100e-01 3.207510e+03 
1.987800e-01 3.179945e+03 
2.000100e-01 3.153741e+03 
2.012500e-01 3.127912e+03 
2.023400e-01 3.105528e+03 
2.036100e-01 3.079850e+03 
2.048900e-01 3.054482e+03 
2.060400e-01 3.032020e+03 
2.072200e-01 3.009304e+03 
2.084200e-01 2.986688e+03 
2.096900e-01 2.963099e+03 
2.109200e-01 2.940585e+03 
2.121100e-01 2.919139e+03 
2.132700e-01 2.898518e+03 
2.145200e-01 2.876603e+03 
2.157200e-01 2.855869e+03 
2.168800e-01 2.836099e+03 
2.180700e-01 2.816086e+03 
2.193400e-01 2.795008e+03 
2.206000e-01 2.774367e+03 
2.217500e-01 2.755779e+03 
2.229500e-01 2.736632e+03 
2.241400e-01 2.717844e+03 
2.253500e-01 2.698989e+03 
2.264900e-01 2.681450e+03 
2.277100e-01 2.662915e+03 
2.289900e-01 2.643726e+03 
2.301500e-01 2.626562e+03 
2.313600e-01 2.608881e+03 
2.325600e-01 2.591431e+03 
2.337700e-01 2.574056e+03 
2.350000e-01 2.556620e+03 
2.362000e-01 2.539812e+03 
2.374100e-01 2.523061e+03 
2.386500e-01 2.506110e+03 
2.399100e-01 2.489106e+03 
2.410400e-01 2.473947e+03 
2.422500e-01 2.457894e+03 
2.435000e-01 2.441516e+03 
2.447300e-01 2.425626e+03 
2.458700e-01 2.411175e+03 
2.470600e-01 2.396264e+03 
2.483300e-01 2.380543e+03 
2.495600e-01 2.365541e+03 
2.507600e-01 2.351130e+03 
2.519600e-01 2.336886e+03 
2.532200e-01 2.322108e+03 
2.543700e-01 2.308839e+03 
2.555500e-01 2.295417e+03 
2.568000e-01 2.281365e+03 
2.580100e-01 2.267920e+03 
2.592400e-01 2.254508e+03 
2.604100e-01 2.241938e+03 
2.616100e-01 2.229187e+03 
2.628400e-01 2.216266e+03 
2.640600e-01 2.203625e+03 
2.652200e-01 2.191749e+03 
2.664300e-01 2.179496e+03 
2.676500e-01 2.167278e+03 
2.688400e-01 2.155522e+03 
2.700700e-01 2.143524e+03 
2.712400e-01 2.132234e+03 
2.724800e-01 2.120398e+03 
2.736700e-01 2.109210e+03 
2.748800e-01 2.098006e+03 
2.761000e-01 2.086830e+03 
2.773200e-01 2.075775e+03 
2.785400e-01 2.064815e+03 
2.797000e-01 2.054452e+03 
2.808900e-01 2.043930e+03 
2.821400e-01 2.032994e+03 
2.833900e-01 2.022179e+03 
2.845500e-01 2.012310e+03 
2.857800e-01 2.001953e+03 
2.870300e-01 1.991539e+03 
2.882100e-01 1.981809e+03 
2.893900e-01 1.972113e+03 
2.906300e-01 1.961995e+03 
2.918900e-01 1.951821e+03 
2.930500e-01 1.942549e+03 
2.942500e-01 1.933061e+03 
2.954200e-01 1.923930e+03 
2.966500e-01 1.914426e+03 
2.978900e-01 1.904942e+03 
2.990400e-01 1.896232e+03 
3.002700e-01 1.886987e+03 
3.015100e-01 1.877751e+03 
3.026800e-01 1.869122e+03 
3.038500e-01 1.860573e+03 
3.050300e-01 1.852032e+03 
3.062600e-01 1.843116e+03 
3.075000e-01 1.834216e+03 
3.087000e-01 1.825687e+03 
3.099100e-01 1.817169e+03 
3.111200e-01 1.808767e+03 
3.123100e-01 1.800645e+03 
3.135300e-01 1.792396e+03 
3.147300e-01 1.784359e+03 
3.159900e-01 1.776000e+03 
3.171800e-01 1.768166e+03 
3.183700e-01 1.760393e+03 
3.196300e-01 1.752241e+03 
3.208400e-01 1.744486e+03 
3.220300e-01 1.736929e+03 
3.232000e-01 1.729548e+03 
3.244300e-01 1.721853e+03 
3.256700e-01 1.714166e+03 
3.269200e-01 1.706491e+03 
3.280800e-01 1.699432e+03 
3.292500e-01 1.692445e+03 
3.304800e-01 1.685188e+03 
3.317100e-01 1.677997e+03 
3.328900e-01 1.671160e+03 
3.340700e-01 1.664381e+03 
3.353600e-01 1.657022e+03 
3.365300e-01 1.650401e+03 
3.377100e-01 1.643781e+03 
3.389200e-01 1.637051e+03 
3.401600e-01 1.630215e+03 
3.413700e-01 1.623621e+03 
3.425300e-01 1.617366e+03 
3.437700e-01 1.610737e+03 
3.449800e-01 1.604325e+03 
3.461800e-01 1.598020e+03 
3.473600e-01 1.591894e+03 
3.485800e-01 1.585669e+03 
3.498100e-01 1.579447e+03 
3.510200e-01 1.573379e+03 
3.522000e-01 1.567510e+03 
3.533900e-01 1.561640e+03 
3.546400e-01 1.555510e+03 
3.558400e-01 1.549674e+03 
3.570600e-01 1.543791e+03 
3.582700e-01 1.538004e+03 
3.595000e-01 1.532170e+03 
3.607100e-01 1.526494e+03 
3.618900e-01 1.521016e+03 
3.631200e-01 1.515352e+03 
3.643200e-01 1.509871e+03 
3.655500e-01 1.504299e+03 
3.667300e-01 1.498997e+03 
3.679500e-01 1.493622e+03 
3.691900e-01 1.488205e+03 
3.703600e-01 1.483134e+03 
3.715700e-01 1.477931e+03 
3.727700e-01 1.472812e+03 
3.739900e-01 1.467642e+03 
3.752000e-01 1.462542e+03 
3.763900e-01 1.457565e+03 
3.775800e-01 1.452627e+03 
3.788200e-01 1.447523e+03 
3.800300e-01 1.442581e+03 
3.812100e-01 1.437796e+03 
3.824200e-01 1.432923e+03 
3.836100e-01 1.428169e+03 
3.848600e-01 1.423214e+03 
3.860400e-01 1.418573e+03 
3.872400e-01 1.413889e+03 
3.884600e-01 1.409155e+03 
3.896500e-01 1.404570e+03 
3.908700e-01 1.399905e+03 
3.920600e-01 1.395389e+03 
3.933100e-01 1.390682e+03 
3.945300e-01 1.386124e+03 
3.957200e-01 1.381713e+03 
3.969300e-01 1.377262e+03 
3.981700e-01 1.372735e+03 
3.993500e-01 1.368460e+03 
4.094840e-01 1.332960e+03 
4.272360e-01 1.275177e+03 
4.454600e-01 1.221037e+03 
4.630560e-01 1.172787e+03 
4.804610e-01 1.128607e+03 
4.980690e-01 1.087148e+03 
5.159230e-01 1.048006e+03 
5.317440e-01 1.015740e+03 
5.489640e-01 9.827092e+02 
5.671990e-01 9.501757e+02 
5.838690e-01 9.222725e+02 
6.018840e-01 8.940293e+02 
6.202330e-01 8.670406e+02 
6.379250e-01 8.424743e+02 
6.545410e-01 8.207406e+02 
6.714560e-01 7.997142e+02 
6.892080e-01 7.787085e+02 
7.066010e-01 7.591135e+02 
7.240540e-01 7.403953e+02 
7.420450e-01 7.218836e+02 
7.593780e-01 7.048053e+02 
7.764720e-01 6.886649e+02 
7.942840e-01 6.724910e+02 
8.116170e-01 6.572524e+02 
8.288310e-01 6.425993e+02 
8.462240e-01 6.283131e+02 
8.631980e-01 6.148740e+02 
8.810700e-01 6.011771e+02 
8.989410e-01 5.878735e+02 
9.166330e-01 5.751120e+02 
9.345640e-01 5.625326e+02 
9.515980e-01 5.509662e+02 
9.688720e-01 5.395707e+02 
9.865640e-01 5.281867e+02 
1.031870e+00 5.004647e+02 
1.063490e+00 4.821948e+02 
1.097920e+00 4.633379e+02 
1.134370e+00 4.444317e+02 
1.167730e+00 4.279886e+02 
1.203830e+00 4.110580e+02 
1.240470e+00 3.948387e+02 
1.275790e+00 3.799160e+02 
1.309140e+00 3.665514e+02 
1.342970e+00 3.536028e+02 
1.378420e+00 3.407175e+02 
1.413200e+00 3.286578e+02 
1.448110e+00 3.171261e+02 
1.484090e+00 3.058154e+02 
1.518820e+00 2.954545e+02 
1.552880e+00 2.856836e+02 
1.588630e+00 2.759377e+02 
1.623230e+00 2.669271e+02 
1.657720e+00 2.583555e+02 
1.692450e+00 2.501267e+02 
1.726400e+00 2.423644e+02 
1.762200e+00 2.345696e+02 
1.797880e+00 2.271421e+02 
1.833270e+00 2.201042e+02 
1.869070e+00 2.132937e+02 
1.903200e+00 2.070533e+02 
1.937740e+00 2.009980e+02 
1.973190e+00 1.950542e+02 
2.007440e+00 1.895378e+02 
2.042160e+00 1.841612e+02 
2.077900e+00 1.788427e+02 
2.112390e+00 1.739162e+02 
2.146220e+00 1.692755e+02 
2.181600e+00 1.645892e+02 
2.216930e+00 1.600998e+02 
2.250760e+00 1.559624e+02 
2.286500e+00 1.517490e+02 
2.321770e+00 1.477427e+02 
2.355950e+00 1.439958e+02 
2.391280e+00 1.402747e+02 
2.426240e+00 1.367274e+02 
2.460670e+00 1.333530e+02 
2.495640e+00 1.300383e+02 
2.531080e+00 1.267977e+02 
2.566220e+00 1.236920e+02 
2.600830e+00 1.207345e+02 
2.635080e+00 1.179032e+02 
2.670340e+00 1.150941e+02 
2.705970e+00 1.123521e+02 
2.740040e+00 1.098148e+02 
2.774520e+00 1.073205e+02 
2.809730e+00 1.048646e+02 
2.844390e+00 1.025269e+02 
2.879960e+00 1.002002e+02 
2.914860e+00 9.798716e+01 
2.949410e+00 9.586342e+01 
2.984440e+00 9.377564e+01 
3.019760e+00 9.173043e+01 
3.054730e+00 8.976501e+01 
3.089030e+00 8.790367e+01 
3.124060e+00 8.605756e+01 
3.159560e+00 8.424039e+01 
3.194710e+00 8.250022e+01 
3.229010e+00 8.085174e+01 
3.263320e+00 7.923659e+01 
3.297930e+00 7.765552e+01 
3.332830e+00 7.611092e+01 
3.368040e+00 7.459889e+01 
3.403300e+00 7.312880e+01 
3.438450e+00 7.170161e+01 
3.473060e+00 7.033387e+01 
3.508440e+00 6.897384e+01 
3.543110e+00 6.767645e+01 
3.577470e+00 6.642298e+01 
3.613040e+00 6.516079e+01 
3.648120e+00 6.395276e+01 
3.682910e+00 6.278425e+01 
3.718050e+00 6.163178e+01 
3.753320e+00 6.050745e+01 
3.787980e+00 5.943459e+01 
3.822290e+00 5.839742e+01 
3.857020e+00 5.737136e+01 
3.891920e+00 5.636702e+01 
3.926650e+00 5.539470e+01 
3.961970e+00 5.442934e+01 
3.997360e+00 5.348468e+01 
4.031670e+00 5.259128e+01 
4.066330e+00 5.171340e+01 
4.101420e+00 5.084517e+01 
4.136200e+00 5.000333e+01 
4.170810e+00 4.918462e+01 
4.206250e+00 4.836598e+01 
4.241580e+00 4.756859e+01 
4.276300e+00 4.680636e+01 
4.310970e+00 4.606407e+01 
4.346120e+00 4.532700e+01 
4.380600e+00 4.461799e+01 
4.414730e+00 4.393127e+01 
4.450350e+00 4.323543e+01 
4.485320e+00 4.256699e+01 
4.519810e+00 4.192001e+01 
4.555430e+00 4.126522e+01 
4.590870e+00 4.062942e+01 
4.625480e+00 4.002521e+01 
4.659910e+00 3.943635e+01 
4.695230e+00 3.884424e+01 
4.729960e+00 3.827381e+01 
4.764450e+00 3.771932e+01 
4.799530e+00 3.716772e+01 
4.834910e+00 3.662255e+01 
4.869700e+00 3.609812e+01 
4.904370e+00 3.558586e+01 
4.939450e+00 3.507810e+01 
4.973940e+00 3.458977e+01 
5.008430e+00 3.411069e+01 
5.043810e+00 3.362960e+01 
5.078840e+00 3.316291e+01 
5.113500e+00 3.270983e+01 
5.148890e+00 3.225691e+01 
5.184210e+00 3.181343e+01 
5.219060e+00 3.138416e+01 
5.253660e+00 3.096629e+01 
5.288570e+00 3.055233e+01 
5.323420e+00 3.014784e+01 
5.358440e+00 2.975009e+01 
5.393590e+00 2.935803e+01 
5.428310e+00 2.897743e+01 
5.462800e+00 2.860584e+01 
5.497640e+00 2.823704e+01 
5.532670e+00 2.787448e+01 
5.567280e+00 2.752303e+01 
5.602000e+00 2.717650e+01 
5.637270e+00 2.683096e+01 
5.672410e+00 2.649270e+01 
5.707020e+00 2.616519e+01 
5.742040e+00 2.584002e+01 
5.777430e+00 2.551711e+01 
5.812210e+00 2.520507e+01 
5.846820e+00 2.490040e+01 
5.881610e+00 2.459934e+01 
5.916510e+00 2.430226e+01 
5.951600e+00 2.400947e+01 
5.986560e+00 2.372297e+01 
6.021830e+00 2.343860e+01 
6.056490e+00 2.316370e+01 
6.091160e+00 2.289313e+01 
6.125830e+00 2.262682e+01 
6.161090e+00 2.236049e+01 
6.195760e+00 2.210326e+01 
6.230420e+00 2.185008e+01 
6.265690e+00 2.159650e+01 
6.300950e+00 2.134820e+01 
6.335620e+00 2.110781e+01 
6.370880e+00 2.086707e+01 
6.405550e+00 2.063398e+01 
6.440220e+00 2.040440e+01 
6.475480e+00 2.017443e+01 
6.510150e+00 1.995205e+01 
6.544810e+00 1.973379e+01 
6.580080e+00 1.951498e+01 
6.614750e+00 1.930306e+01 
6.649410e+00 1.909488e+01 
6.684080e+00 1.888976e+01 
6.719340e+00 1.868419e+01 
6.754010e+00 1.848500e+01 
6.788680e+00 1.828869e+01 
6.823940e+00 1.809190e+01 
6.859800e+00 1.789467e+01 
6.894470e+00 1.770742e+01 
6.929140e+00 1.752303e+01 
6.963800e+00 1.734128e+01 
6.999070e+00 1.715889e+01 
7.033730e+00 1.698196e+01 
7.068400e+00 1.680741e+01 
7.103660e+00 1.663235e+01 
7.138330e+00 1.646295e+01 
7.173600e+00 1.629376e+01 
7.208260e+00 1.612975e+01 
7.243530e+00 1.596512e+01 
7.277600e+00 1.580800e+01 
7.312860e+00 1.564735e+01 
7.348120e+00 1.548888e+01 
7.382790e+00 1.533514e+01 
7.417460e+00 1.518409e+01 
7.452720e+00 1.503283e+01 
7.487390e+00 1.488606e+01 
7.522650e+00 1.473874e+01 
7.557320e+00 1.459614e+01 
7.591990e+00 1.445551e+01 
7.627250e+00 1.431433e+01 
7.662510e+00 1.417499e+01 
7.697180e+00 1.403940e+01 
7.731850e+00 1.390540e+01 
7.766510e+00 1.377313e+01 
7.801180e+00 1.364249e+01 
7.836440e+00 1.351193e+01 
7.871110e+00 1.338556e+01 
7.906380e+00 1.325860e+01 
7.941040e+00 1.313540e+01 
7.976310e+00 1.301163e+01 
8.011570e+00 1.288950e+01 
8.046240e+00 1.277090e+01 
8.080900e+00 1.265377e+01 
8.115570e+00 1.253804e+01 
8.150830e+00 1.242179e+01 
8.185500e+00 1.230888e+01 
8.220770e+00 1.219540e+01 
8.255430e+00 1.208523e+01 
8.290100e+00 1.197678e+01 
8.324770e+00 1.186967e+01 
8.359430e+00 1.176386e+01 
8.394700e+00 1.165746e+01 
8.429960e+00 1.155239e+01 
8.464630e+00 1.145033e+01 
8.499890e+00 1.134775e+01 
8.534560e+00 1.124806e+01 
8.569200e+00 1.114961e+01 
