# Parameters:
# omega_b = 0.022728, omega_m = 0.120827, n_s = 1.012205, h = 59.251969, w = -1.000000, sigma_8 = 0.742520
# z = 0.300000
#
# k[1/Mpc] # P(k):
8.694000e-04 1.502755e+04 
2.077466e-03 3.286412e+04 
3.285532e-03 4.676915e+04 
4.493598e-03 5.724096e+04 
5.701664e-03 6.478356e+04 
6.909730e-03 6.987784e+04 
8.117797e-03 7.306815e+04 
9.325863e-03 7.464039e+04 
1.053393e-02 7.488577e+04 
1.174199e-02 7.407552e+04 
1.295006e-02 7.238313e+04 
1.415813e-02 7.003747e+04 
1.536619e-02 6.723684e+04 
1.657426e-02 6.408463e+04 
1.778233e-02 6.065469e+04 
1.899039e-02 5.733405e+04 
2.019846e-02 5.432548e+04 
2.140652e-02 5.150955e+04 
2.261459e-02 4.881922e+04 
2.382266e-02 4.629138e+04 
2.503072e-02 4.395784e+04 
2.623879e-02 4.182412e+04 
2.744685e-02 3.989162e+04 
2.865492e-02 3.815496e+04 
2.986299e-02 3.660098e+04 
3.100100e-02 3.529533e+04 
3.220400e-02 3.406389e+04 
3.288100e-02 3.343418e+04 
3.424300e-02 3.228319e+04 
3.555100e-02 3.129841e+04 
3.686000e-02 3.041084e+04 
3.795000e-02 2.972944e+04 
3.929100e-02 2.894600e+04 
4.039800e-02 2.832929e+04 
4.164000e-02 2.766008e+04 
4.294400e-02 2.695969e+04 
4.415000e-02 2.631917e+04 
4.542900e-02 2.562375e+04 
4.660900e-02 2.498248e+04 
4.782300e-02 2.429669e+04 
4.892900e-02 2.366648e+04 
5.031200e-02 2.286760e+04 
5.155900e-02 2.213775e+04 
5.238100e-02 2.165488e+04 
5.378200e-02 2.083772e+04 
5.513400e-02 2.005603e+04 
5.627600e-02 1.940621e+04 
5.735300e-02 1.880920e+04 
5.870100e-02 1.808872e+04 
5.988700e-02 1.748139e+04 
6.113500e-02 1.687253e+04 
6.225900e-02 1.635143e+04 
6.340100e-02 1.585490e+04 
6.480200e-02 1.528674e+04 
6.601100e-02 1.483519e+04 
6.725500e-02 1.440715e+04 
6.829100e-02 1.408180e+04 
6.958600e-02 1.370815e+04 
7.071100e-02 1.341475e+04 
7.192300e-02 1.312621e+04 
7.307400e-02 1.287629e+04 
7.412300e-02 1.266732e+04 
7.550400e-02 1.241852e+04 
7.663100e-02 1.223071e+04 
7.791200e-02 1.203384e+04 
7.912700e-02 1.185600e+04 
8.027600e-02 1.169422e+04 
8.138400e-02 1.154076e+04 
8.272200e-02 1.135493e+04 
8.406100e-02 1.116622e+04 
8.534100e-02 1.097708e+04 
8.653800e-02 1.079291e+04 
8.759800e-02 1.062495e+04 
8.900300e-02 1.039326e+04 
9.009000e-02 1.020604e+04 
9.113300e-02 1.002136e+04 
9.239600e-02 9.796240e+03 
9.358000e-02 9.582524e+03 
9.496100e-02 9.331449e+03 
9.608400e-02 9.130705e+03 
9.727500e-02 8.922273e+03 
9.852600e-02 8.709902e+03 
9.973800e-02 8.512677e+03 
1.009000e-01 8.331027e+03 
1.020900e-01 8.158213e+03 
1.034000e-01 7.978346e+03 
1.046000e-01 7.823382e+03 
1.057200e-01 7.691048e+03 
1.069100e-01 7.557587e+03 
1.082500e-01 7.421828e+03 
1.093900e-01 7.314698e+03 
1.105400e-01 7.212357e+03 
1.116900e-01 7.119274e+03 
1.129600e-01 7.021072e+03 
1.142000e-01 6.931707e+03 
1.153300e-01 6.853264e+03 
1.166400e-01 6.766121e+03 
1.177800e-01 6.691839e+03 
1.190000e-01 6.614097e+03 
1.201200e-01 6.541711e+03 
1.213400e-01 6.464235e+03 
1.227100e-01 6.374325e+03 
1.238900e-01 6.297493e+03 
1.250700e-01 6.217993e+03 
1.263200e-01 6.133909e+03 
1.275500e-01 6.049023e+03 
1.287500e-01 5.966558e+03 
1.299900e-01 5.880821e+03 
1.311300e-01 5.802399e+03 
1.323500e-01 5.718267e+03 
1.335900e-01 5.634240e+03 
1.347100e-01 5.559364e+03 
1.359800e-01 5.476413e+03 
1.372100e-01 5.398056e+03 
1.384300e-01 5.322409e+03 
1.395700e-01 5.254027e+03 
1.407700e-01 5.183741e+03 
1.420300e-01 5.113455e+03 
1.432800e-01 5.045258e+03 
1.444500e-01 4.984763e+03 
1.456300e-01 4.924976e+03 
1.468900e-01 4.864260e+03 
1.480500e-01 4.810030e+03 
1.491700e-01 4.759299e+03 
1.503800e-01 4.706356e+03 
1.516400e-01 4.652579e+03 
1.528200e-01 4.604293e+03 
1.540200e-01 4.556120e+03 
1.551900e-01 4.510354e+03 
1.564300e-01 4.462844e+03 
1.576600e-01 4.416813e+03 
1.588700e-01 4.372611e+03 
1.600900e-01 4.328843e+03 
1.612700e-01 4.286718e+03 
1.625400e-01 4.242218e+03 
1.637600e-01 4.200001e+03 
1.649500e-01 4.159405e+03 
1.662200e-01 4.116731e+03 
1.674000e-01 4.077037e+03 
1.685000e-01 4.040651e+03 
1.697500e-01 3.999575e+03 
1.710300e-01 3.957849e+03 
1.722200e-01 3.919743e+03 
1.734400e-01 3.880654e+03 
1.746400e-01 3.842836e+03 
1.758700e-01 3.804665e+03 
1.770900e-01 3.767310e+03 
1.782700e-01 3.731782e+03 
1.794600e-01 3.696384e+03 
1.807000e-01 3.660008e+03 
1.819100e-01 3.625105e+03 
1.830100e-01 3.593907e+03 
1.842200e-01 3.560129e+03 
1.855000e-01 3.525017e+03 
1.867000e-01 3.493260e+03 
1.879200e-01 3.461487e+03 
1.890900e-01 3.431577e+03 
1.902800e-01 3.402071e+03 
1.915200e-01 3.371805e+03 
1.926900e-01 3.343825e+03 
1.939000e-01 3.315774e+03 
1.951700e-01 3.286792e+03 
1.963100e-01 3.261288e+03 
1.975100e-01 3.235154e+03 
1.987800e-01 3.207916e+03 
2.000100e-01 3.182035e+03 
2.012500e-01 3.156554e+03 
2.023400e-01 3.134472e+03 
2.036100e-01 3.109110e+03 
2.048900e-01 3.083944e+03 
2.060400e-01 3.061661e+03 
2.072200e-01 3.039103e+03 
2.084200e-01 3.016388e+03 
2.096900e-01 2.992695e+03 
2.109200e-01 2.970082e+03 
2.121100e-01 2.948173e+03 
2.132700e-01 2.927087e+03 
2.145200e-01 2.904679e+03 
2.157200e-01 2.883171e+03 
2.168800e-01 2.862520e+03 
2.180700e-01 2.841616e+03 
2.193400e-01 2.819415e+03 
2.206000e-01 2.797332e+03 
2.217500e-01 2.777447e+03 
2.229500e-01 2.756966e+03 
2.241400e-01 2.736339e+03 
2.253500e-01 2.715626e+03 
2.264900e-01 2.696361e+03 
2.277100e-01 2.675745e+03 
2.289900e-01 2.654115e+03 
2.301500e-01 2.634770e+03 
2.313600e-01 2.614842e+03 
2.325600e-01 2.594702e+03 
2.337700e-01 2.574655e+03 
2.350000e-01 2.554541e+03 
2.362000e-01 2.534983e+03 
2.374100e-01 2.515293e+03 
2.386500e-01 2.495374e+03 
2.399100e-01 2.475398e+03 
2.410400e-01 2.457422e+03 
2.422500e-01 2.438371e+03 
2.435000e-01 2.418941e+03 
2.447300e-01 2.400085e+03 
2.458700e-01 2.382903e+03 
2.470600e-01 2.365179e+03 
2.483300e-01 2.346499e+03 
2.495600e-01 2.328737e+03 
2.507600e-01 2.311760e+03 
2.519600e-01 2.294985e+03 
2.532200e-01 2.277585e+03 
2.543700e-01 2.262133e+03 
2.555500e-01 2.246620e+03 
2.568000e-01 2.230382e+03 
2.580100e-01 2.214849e+03 
2.592400e-01 2.199614e+03 
2.604100e-01 2.185450e+03 
2.616100e-01 2.171085e+03 
2.628400e-01 2.156530e+03 
2.640600e-01 2.142586e+03 
2.652200e-01 2.129605e+03 
2.664300e-01 2.116212e+03 
2.676500e-01 2.102860e+03 
2.688400e-01 2.090237e+03 
2.700700e-01 2.077493e+03 
2.712400e-01 2.065502e+03 
2.724800e-01 2.052933e+03 
2.736700e-01 2.041195e+03 
2.748800e-01 2.029588e+03 
2.761000e-01 2.018011e+03 
2.773200e-01 2.006558e+03 
2.785400e-01 1.995274e+03 
2.797000e-01 1.984751e+03 
2.808900e-01 1.974067e+03 
2.821400e-01 1.962963e+03 
2.833900e-01 1.951987e+03 
2.845500e-01 1.942097e+03 
2.857800e-01 1.931717e+03 
2.870300e-01 1.921280e+03 
2.882100e-01 1.911529e+03 
2.893900e-01 1.901870e+03 
2.906300e-01 1.891820e+03 
2.918900e-01 1.881715e+03 
2.930500e-01 1.872506e+03 
2.942500e-01 1.863093e+03 
2.954200e-01 1.854069e+03 
2.966500e-01 1.844677e+03 
2.978900e-01 1.835304e+03 
2.990400e-01 1.826697e+03 
3.002700e-01 1.817578e+03 
3.015100e-01 1.808476e+03 
3.026800e-01 1.799971e+03 
3.038500e-01 1.791546e+03 
3.050300e-01 1.783129e+03 
3.062600e-01 1.774363e+03 
3.075000e-01 1.765613e+03 
3.087000e-01 1.757227e+03 
3.099100e-01 1.748852e+03 
3.111200e-01 1.740594e+03 
3.123100e-01 1.732616e+03 
3.135300e-01 1.724514e+03 
3.147300e-01 1.716620e+03 
3.159900e-01 1.708409e+03 
3.171800e-01 1.700718e+03 
3.183700e-01 1.693091e+03 
3.196300e-01 1.685090e+03 
3.208400e-01 1.677480e+03 
3.220300e-01 1.670064e+03 
3.232000e-01 1.662827e+03 
3.244300e-01 1.655285e+03 
3.256700e-01 1.647752e+03 
3.269200e-01 1.640229e+03 
3.280800e-01 1.633310e+03 
3.292500e-01 1.626463e+03 
3.304800e-01 1.619352e+03 
3.317100e-01 1.612304e+03 
3.328900e-01 1.605604e+03 
3.340700e-01 1.598961e+03 
3.353600e-01 1.591753e+03 
3.365300e-01 1.585270e+03 
3.377100e-01 1.578787e+03 
3.389200e-01 1.572197e+03 
3.401600e-01 1.565503e+03 
3.413700e-01 1.559048e+03 
3.425300e-01 1.552927e+03 
3.437700e-01 1.546439e+03 
3.449800e-01 1.540164e+03 
3.461800e-01 1.533993e+03 
3.473600e-01 1.527996e+03 
3.485800e-01 1.521899e+03 
3.498100e-01 1.515805e+03 
3.510200e-01 1.509860e+03 
3.522000e-01 1.504112e+03 
3.533900e-01 1.498362e+03 
3.546400e-01 1.492359e+03 
3.558400e-01 1.486643e+03 
3.570600e-01 1.480881e+03 
3.582700e-01 1.475213e+03 
3.595000e-01 1.469500e+03 
3.607100e-01 1.463940e+03 
3.618900e-01 1.458573e+03 
3.631200e-01 1.453023e+03 
3.643200e-01 1.447654e+03 
3.655500e-01 1.442195e+03 
3.667300e-01 1.437000e+03 
3.679500e-01 1.431730e+03 
3.691900e-01 1.426418e+03 
3.703600e-01 1.421446e+03 
3.715700e-01 1.416345e+03 
3.727700e-01 1.411325e+03 
3.739900e-01 1.406256e+03 
3.752000e-01 1.401256e+03 
3.763900e-01 1.396377e+03 
3.775800e-01 1.391536e+03 
3.788200e-01 1.386532e+03 
3.800300e-01 1.381687e+03 
3.812100e-01 1.376993e+03 
3.824200e-01 1.372215e+03 
3.836100e-01 1.367551e+03 
3.848600e-01 1.362690e+03 
3.860400e-01 1.358137e+03 
3.872400e-01 1.353542e+03 
3.884600e-01 1.348896e+03 
3.896500e-01 1.344395e+03 
3.908700e-01 1.339816e+03 
3.920600e-01 1.335383e+03 
3.933100e-01 1.330763e+03 
3.945300e-01 1.326288e+03 
3.957200e-01 1.321959e+03 
3.969300e-01 1.317592e+03 
3.981700e-01 1.313150e+03 
3.993500e-01 1.308955e+03 
4.094840e-01 1.274106e+03 
4.272360e-01 1.217427e+03 
4.454600e-01 1.164384e+03 
4.630560e-01 1.117201e+03 
4.804610e-01 1.074074e+03 
4.980690e-01 1.033684e+03 
5.159230e-01 9.956017e+02 
5.317440e-01 9.642425e+02 
5.489640e-01 9.321621e+02 
5.671990e-01 9.005868e+02 
5.838690e-01 8.735154e+02 
6.018840e-01 8.461183e+02 
6.202330e-01 8.199457e+02 
6.379250e-01 7.961355e+02 
6.545410e-01 7.750764e+02 
6.714560e-01 7.547165e+02 
6.892080e-01 7.343912e+02 
7.066010e-01 7.154494e+02 
7.240540e-01 6.973756e+02 
7.420450e-01 6.795257e+02 
7.593780e-01 6.630814e+02 
7.764720e-01 6.475642e+02 
7.942840e-01 6.320357e+02 
8.116170e-01 6.174319e+02 
8.288310e-01 6.034202e+02 
8.462240e-01 5.897832e+02 
8.631980e-01 5.769720e+02 
8.810700e-01 5.639384e+02 
8.989410e-01 5.513016e+02 
9.166330e-01 5.392009e+02 
9.345640e-01 5.272957e+02 
9.515980e-01 5.163649e+02 
9.688720e-01 5.056119e+02 
9.865640e-01 4.948895e+02 
1.031870e+00 4.688295e+02 
1.063490e+00 4.517015e+02 
1.097920e+00 4.340596e+02 
1.134370e+00 4.164034e+02 
1.167730e+00 4.010711e+02 
1.203830e+00 3.853069e+02 
1.240470e+00 3.702200e+02 
1.275790e+00 3.563531e+02 
1.309140e+00 3.439418e+02 
1.342970e+00 3.319262e+02 
1.378420e+00 3.199733e+02 
1.413200e+00 3.087900e+02 
1.448110e+00 2.980970e+02 
1.484090e+00 2.876110e+02 
1.518820e+00 2.780054e+02 
1.552880e+00 2.689472e+02 
1.588630e+00 2.599107e+02 
1.623230e+00 2.515533e+02 
1.657720e+00 2.436018e+02 
1.692450e+00 2.359677e+02 
1.726400e+00 2.287627e+02 
1.762200e+00 2.215256e+02 
1.797880e+00 2.146277e+02 
1.833270e+00 2.080885e+02 
1.869070e+00 2.017576e+02 
1.903200e+00 1.959540e+02 
1.937740e+00 1.903206e+02 
1.973190e+00 1.847890e+02 
2.007440e+00 1.796524e+02 
2.042160e+00 1.746431e+02 
2.077900e+00 1.696857e+02 
2.112390e+00 1.650920e+02 
2.146220e+00 1.607625e+02 
2.181600e+00 1.563876e+02 
2.216930e+00 1.521949e+02 
2.250760e+00 1.483290e+02 
2.286500e+00 1.443900e+02 
2.321770e+00 1.406426e+02 
2.355950e+00 1.371358e+02 
2.391280e+00 1.336516e+02 
2.426240e+00 1.303287e+02 
2.460670e+00 1.271661e+02 
2.495640e+00 1.240576e+02 
2.531080e+00 1.210168e+02 
2.566220e+00 1.181009e+02 
2.600830e+00 1.153229e+02 
2.635080e+00 1.126624e+02 
2.670340e+00 1.100212e+02 
2.705970e+00 1.074418e+02 
2.740040e+00 1.050540e+02 
2.774520e+00 1.027052e+02 
2.809730e+00 1.003915e+02 
2.844390e+00 9.818829e+01 
2.879960e+00 9.599425e+01 
2.914860e+00 9.390625e+01 
2.949410e+00 9.190166e+01 
2.984440e+00 8.992984e+01 
3.019760e+00 8.799732e+01 
3.054730e+00 8.613952e+01 
3.089030e+00 8.437908e+01 
3.124060e+00 8.263238e+01 
3.159560e+00 8.091222e+01 
3.194710e+00 7.926406e+01 
3.229010e+00 7.770227e+01 
3.263320e+00 7.617104e+01 
3.297930e+00 7.467166e+01 
3.332830e+00 7.320619e+01 
3.368040e+00 7.177107e+01 
3.403300e+00 7.037530e+01 
3.438450e+00 6.901949e+01 
3.473060e+00 6.771982e+01 
3.508440e+00 6.642652e+01 
3.543110e+00 6.519250e+01 
3.577470e+00 6.399961e+01 
3.613040e+00 6.279813e+01 
3.648120e+00 6.164770e+01 
3.682910e+00 6.053454e+01 
3.718050e+00 5.943608e+01 
3.753320e+00 5.836415e+01 
3.787980e+00 5.734092e+01 
3.822290e+00 5.635138e+01 
3.857020e+00 5.537199e+01 
3.891920e+00 5.441308e+01 
3.926650e+00 5.348442e+01 
3.961970e+00 5.256215e+01 
3.997360e+00 5.165919e+01 
4.031670e+00 5.080506e+01 
4.066330e+00 4.996539e+01 
4.101420e+00 4.913483e+01 
4.136200e+00 4.832900e+01 
4.170810e+00 4.754523e+01 
4.206250e+00 4.676121e+01 
4.241580e+00 4.599744e+01 
4.276300e+00 4.526701e+01 
4.310970e+00 4.455550e+01 
4.346120e+00 4.384882e+01 
4.380600e+00 4.316880e+01 
4.414730e+00 4.251010e+01 
4.450350e+00 4.184231e+01 
4.485320e+00 4.120076e+01 
4.519810e+00 4.057952e+01 
4.555430e+00 3.995062e+01 
4.590870e+00 3.933987e+01 
4.625480e+00 3.875933e+01 
4.659910e+00 3.819349e+01 
4.695230e+00 3.762421e+01 
4.729960e+00 3.707570e+01 
4.764450e+00 3.654241e+01 
4.799530e+00 3.601176e+01 
4.834910e+00 3.548726e+01 
4.869700e+00 3.498255e+01 
4.904370e+00 3.448948e+01 
4.939450e+00 3.400066e+01 
4.973940e+00 3.353032e+01 
5.008430e+00 3.306888e+01 
5.043810e+00 3.260541e+01 
5.078840e+00 3.215576e+01 
5.113500e+00 3.171920e+01 
5.148890e+00 3.128257e+01 
5.184210e+00 3.085502e+01 
5.219060e+00 3.044111e+01 
5.253660e+00 3.003806e+01 
5.288570e+00 2.963875e+01 
5.323420e+00 2.924851e+01 
5.358440e+00 2.886471e+01 
5.393590e+00 2.848639e+01 
5.428310e+00 2.811903e+01 
5.462800e+00 2.776032e+01 
5.497640e+00 2.740429e+01 
5.532670e+00 2.705421e+01 
5.567280e+00 2.671483e+01 
5.602000e+00 2.638019e+01 
5.637270e+00 2.604639e+01 
5.672410e+00 2.571960e+01 
5.707020e+00 2.540317e+01 
5.742040e+00 2.508893e+01 
5.777430e+00 2.477684e+01 
5.812210e+00 2.447525e+01 
5.846820e+00 2.418072e+01 
5.881610e+00 2.388966e+01 
5.916510e+00 2.360245e+01 
5.951600e+00 2.331933e+01 
5.986560e+00 2.304227e+01 
6.021830e+00 2.276726e+01 
6.056490e+00 2.250136e+01 
6.091160e+00 2.223960e+01 
6.125830e+00 2.198196e+01 
6.161090e+00 2.172428e+01 
6.195760e+00 2.147538e+01 
6.230420e+00 2.123040e+01 
6.265690e+00 2.098502e+01 
6.300950e+00 2.074471e+01 
6.335620e+00 2.051205e+01 
6.370880e+00 2.027904e+01 
6.405550e+00 2.005340e+01 
6.440220e+00 1.983114e+01 
6.475480e+00 1.960850e+01 
6.510150e+00 1.939318e+01 
6.544810e+00 1.918183e+01 
6.580080e+00 1.896995e+01 
6.614750e+00 1.876474e+01 
6.649410e+00 1.856310e+01 
6.684080e+00 1.836443e+01 
6.719340e+00 1.816531e+01 
6.754010e+00 1.797236e+01 
6.788680e+00 1.778219e+01 
6.823940e+00 1.759156e+01 
6.859800e+00 1.740049e+01 
6.894470e+00 1.721907e+01 
6.929140e+00 1.704042e+01 
6.963800e+00 1.686432e+01 
6.999070e+00 1.668760e+01 
7.033730e+00 1.651613e+01 
7.068400e+00 1.634698e+01 
7.103660e+00 1.617732e+01 
7.138330e+00 1.601315e+01 
7.173600e+00 1.584917e+01 
7.208260e+00 1.569021e+01 
7.243530e+00 1.553065e+01 
7.277600e+00 1.537835e+01 
7.312860e+00 1.522263e+01 
7.348120e+00 1.506901e+01 
7.382790e+00 1.491997e+01 
7.417460e+00 1.477353e+01 
7.452720e+00 1.462689e+01 
7.487390e+00 1.448459e+01 
7.522650e+00 1.434177e+01 
7.557320e+00 1.420350e+01 
7.591990e+00 1.406714e+01 
7.627250e+00 1.393025e+01 
7.662510e+00 1.379513e+01 
7.697180e+00 1.366365e+01 
7.731850e+00 1.353370e+01 
7.766510e+00 1.340544e+01 
7.801180e+00 1.327875e+01 
7.836440e+00 1.315212e+01 
7.871110e+00 1.302955e+01 
7.906380e+00 1.290642e+01 
7.941040e+00 1.278692e+01 
7.976310e+00 1.266687e+01 
8.011570e+00 1.254841e+01 
8.046240e+00 1.243336e+01 
8.080900e+00 1.231974e+01 
8.115570e+00 1.220747e+01 
8.150830e+00 1.209471e+01 
8.185500e+00 1.198518e+01 
8.220770e+00 1.187510e+01 
8.255430e+00 1.176823e+01 
8.290100e+00 1.166302e+01 
8.324770e+00 1.155910e+01 
8.359430e+00 1.145644e+01 
8.394700e+00 1.135320e+01 
8.429960e+00 1.125125e+01 
8.464630e+00 1.115222e+01 
8.499890e+00 1.105268e+01 
8.534560e+00 1.095595e+01 
8.569200e+00 1.086042e+01 
