# Parameters:
# omega_b = 0.021894, omega_m = 0.140118, n_s = 1.001181, h = 61.377953, w = -1.000000, sigma_8 = 0.855906
# z = 0.300000
#
# k[1/Mpc] # P(k):
8.694000e-04 1.204463e+04 
2.077466e-03 2.654810e+04 
3.285532e-03 3.820627e+04 
4.493598e-03 4.736019e+04 
5.701664e-03 5.431719e+04 
6.909730e-03 5.938141e+04 
8.117797e-03 6.293014e+04 
9.325863e-03 6.515922e+04 
1.053393e-02 6.627741e+04 
1.174199e-02 6.648523e+04 
1.295006e-02 6.590830e+04 
1.415813e-02 6.471938e+04 
1.536619e-02 6.307011e+04 
1.657426e-02 6.105907e+04 
1.778233e-02 5.878661e+04 
1.899039e-02 5.646144e+04 
2.019846e-02 5.415249e+04 
2.140652e-02 5.185419e+04 
2.261459e-02 4.958540e+04 
2.382266e-02 4.739906e+04 
2.503072e-02 4.533382e+04 
2.623879e-02 4.340303e+04 
2.744685e-02 4.161186e+04 
2.865492e-02 3.996892e+04 
2.986299e-02 3.847049e+04 
3.100100e-02 3.718720e+04 
3.220400e-02 3.595751e+04 
3.288100e-02 3.532085e+04 
3.424300e-02 3.414729e+04 
3.555100e-02 3.313656e+04 
3.686000e-02 3.222457e+04 
3.795000e-02 3.152743e+04 
3.929100e-02 3.073532e+04 
4.039800e-02 3.012134e+04 
4.164000e-02 2.946498e+04 
4.294400e-02 2.879391e+04 
4.415000e-02 2.818858e+04 
4.542900e-02 2.754151e+04 
4.660900e-02 2.694932e+04 
4.782300e-02 2.631911e+04 
4.892900e-02 2.573904e+04 
5.031200e-02 2.500058e+04 
5.155900e-02 2.431989e+04 
5.238100e-02 2.386531e+04 
5.378200e-02 2.308822e+04 
5.513400e-02 2.233271e+04 
5.627600e-02 2.169455e+04 
5.735300e-02 2.110007e+04 
5.870100e-02 2.037150e+04 
5.988700e-02 1.974738e+04 
6.113500e-02 1.911181e+04 
6.225900e-02 1.855879e+04 
6.340100e-02 1.802393e+04 
6.480200e-02 1.740301e+04 
6.601100e-02 1.690024e+04 
6.725500e-02 1.641618e+04 
6.829100e-02 1.604210e+04 
6.958600e-02 1.560746e+04 
7.071100e-02 1.526116e+04 
7.192300e-02 1.491680e+04 
7.307400e-02 1.461576e+04 
7.412300e-02 1.436246e+04 
7.550400e-02 1.405974e+04 
7.663100e-02 1.383162e+04 
7.791200e-02 1.359493e+04 
7.912700e-02 1.338566e+04 
8.027600e-02 1.319971e+04 
8.138400e-02 1.302771e+04 
8.272200e-02 1.282598e+04 
8.406100e-02 1.262805e+04 
8.534100e-02 1.243692e+04 
8.653800e-02 1.225582e+04 
8.759800e-02 1.209287e+04 
8.900300e-02 1.187060e+04 
9.009000e-02 1.169199e+04 
9.113300e-02 1.151580e+04 
9.239600e-02 1.130036e+04 
9.358000e-02 1.109427e+04 
9.496100e-02 1.084843e+04 
9.608400e-02 1.064916e+04 
9.727500e-02 1.043992e+04 
9.852600e-02 1.022048e+04 
9.973800e-02 1.001342e+04 
1.009000e-01 9.819959e+03 
1.020900e-01 9.629248e+03 
1.034000e-01 9.427557e+03 
1.046000e-01 9.250424e+03 
1.057200e-01 9.093964e+03 
1.069100e-01 8.934394e+03 
1.082500e-01 8.767270e+03 
1.093900e-01 8.633014e+03 
1.105400e-01 8.503326e+03 
1.116900e-01 8.383150e+03 
1.129600e-01 8.255901e+03 
1.142000e-01 8.139661e+03 
1.153300e-01 8.038196e+03 
1.166400e-01 7.926363e+03 
1.177800e-01 7.833170e+03 
1.190000e-01 7.736628e+03 
1.201200e-01 7.650434e+03 
1.213400e-01 7.558817e+03 
1.227100e-01 7.458133e+03 
1.238900e-01 7.373152e+03 
1.250700e-01 7.288544e+03 
1.263200e-01 7.200075e+03 
1.275500e-01 7.112979e+03 
1.287500e-01 7.029111e+03 
1.299900e-01 6.943077e+03 
1.311300e-01 6.864449e+03 
1.323500e-01 6.780197e+03 
1.335900e-01 6.695599e+03 
1.347100e-01 6.619644e+03 
1.359800e-01 6.534781e+03 
1.372100e-01 6.453236e+03 
1.384300e-01 6.373727e+03 
1.395700e-01 6.300045e+03 
1.407700e-01 6.224021e+03 
1.420300e-01 6.145329e+03 
1.432800e-01 6.068953e+03 
1.444500e-01 5.998701e+03 
1.456300e-01 5.929263e+03 
1.468900e-01 5.857293e+03 
1.480500e-01 5.792566e+03 
1.491700e-01 5.731557e+03 
1.503800e-01 5.667297e+03 
1.516400e-01 5.601976e+03 
1.528200e-01 5.543103e+03 
1.540200e-01 5.484370e+03 
1.551900e-01 5.428927e+03 
1.564300e-01 5.371460e+03 
1.576600e-01 5.316169e+03 
1.588700e-01 5.263544e+03 
1.600900e-01 5.211490e+03 
1.612700e-01 5.162417e+03 
1.625400e-01 5.110576e+03 
1.637600e-01 5.062016e+03 
1.649500e-01 5.015679e+03 
1.662200e-01 4.967091e+03 
1.674000e-01 4.922582e+03 
1.685000e-01 4.881777e+03 
1.697500e-01 4.835963e+03 
1.710300e-01 4.789670e+03 
1.722200e-01 4.747387e+03 
1.734400e-01 4.704221e+03 
1.746400e-01 4.662459e+03 
1.758700e-01 4.620288e+03 
1.770900e-01 4.578987e+03 
1.782700e-01 4.539699e+03 
1.794600e-01 4.500400e+03 
1.807000e-01 4.459912e+03 
1.819100e-01 4.421055e+03 
1.830100e-01 4.386014e+03 
1.842200e-01 4.348016e+03 
1.855000e-01 4.308497e+03 
1.867000e-01 4.272378e+03 
1.879200e-01 4.236236e+03 
1.890900e-01 4.202150e+03 
1.902800e-01 4.168202e+03 
1.915200e-01 4.133378e+03 
1.926900e-01 4.101106e+03 
1.939000e-01 4.068507e+03 
1.951700e-01 4.034823e+03 
1.963100e-01 4.005122e+03 
1.975100e-01 3.974525e+03 
1.987800e-01 3.942635e+03 
2.000100e-01 3.912306e+03 
2.012500e-01 3.882386e+03 
2.023400e-01 3.856455e+03 
2.036100e-01 3.826676e+03 
2.048900e-01 3.797141e+03 
2.060400e-01 3.770988e+03 
2.072200e-01 3.744522e+03 
2.084200e-01 3.717988e+03 
2.096900e-01 3.690311e+03 
2.109200e-01 3.663894e+03 
2.121100e-01 3.638484e+03 
2.132700e-01 3.614037e+03 
2.145200e-01 3.588056e+03 
2.157200e-01 3.563291e+03 
2.168800e-01 3.539592e+03 
2.180700e-01 3.515600e+03 
2.193400e-01 3.490221e+03 
2.206000e-01 3.465163e+03 
2.217500e-01 3.442596e+03 
2.229500e-01 3.419352e+03 
2.241400e-01 3.396243e+03 
2.253500e-01 3.373042e+03 
2.264900e-01 3.351461e+03 
2.277100e-01 3.328505e+03 
2.289900e-01 3.304571e+03 
2.301500e-01 3.283163e+03 
2.313600e-01 3.261108e+03 
2.325600e-01 3.239064e+03 
2.337700e-01 3.217117e+03 
2.350000e-01 3.195092e+03 
2.362000e-01 3.173758e+03 
2.374100e-01 3.152376e+03 
2.386500e-01 3.130741e+03 
2.399100e-01 3.109037e+03 
2.410400e-01 3.089568e+03 
2.422500e-01 3.068938e+03 
2.435000e-01 3.047890e+03 
2.447300e-01 3.027463e+03 
2.458700e-01 3.008857e+03 
2.470600e-01 2.989660e+03 
2.483300e-01 2.969422e+03 
2.495600e-01 2.950138e+03 
2.507600e-01 2.931653e+03 
2.519600e-01 2.913384e+03 
2.532200e-01 2.894430e+03 
2.543700e-01 2.877500e+03 
2.555500e-01 2.860437e+03 
2.568000e-01 2.842572e+03 
2.580100e-01 2.825480e+03 
2.592400e-01 2.808579e+03 
2.604100e-01 2.792803e+03 
2.616100e-01 2.776802e+03 
2.628400e-01 2.760586e+03 
2.640600e-01 2.744890e+03 
2.652200e-01 2.730212e+03 
2.664300e-01 2.715067e+03 
2.676500e-01 2.699966e+03 
2.688400e-01 2.685571e+03 
2.700700e-01 2.670962e+03 
2.712400e-01 2.657217e+03 
2.724800e-01 2.642807e+03 
2.736700e-01 2.629275e+03 
2.748800e-01 2.615814e+03 
2.761000e-01 2.602387e+03 
2.773200e-01 2.589105e+03 
2.785400e-01 2.575979e+03 
2.797000e-01 2.563655e+03 
2.808900e-01 2.551143e+03 
2.821400e-01 2.538139e+03 
2.833900e-01 2.525283e+03 
2.845500e-01 2.513638e+03 
2.857800e-01 2.501416e+03 
2.870300e-01 2.489128e+03 
2.882100e-01 2.477648e+03 
2.893900e-01 2.466243e+03 
2.906300e-01 2.454358e+03 
2.918900e-01 2.442409e+03 
2.930500e-01 2.431520e+03 
2.942500e-01 2.420384e+03 
2.954200e-01 2.409692e+03 
2.966500e-01 2.398564e+03 
2.978900e-01 2.387459e+03 
2.990400e-01 2.377262e+03 
3.002700e-01 2.366447e+03 
3.015100e-01 2.355647e+03 
3.026800e-01 2.345557e+03 
3.038500e-01 2.335562e+03 
3.050300e-01 2.325575e+03 
3.062600e-01 2.315153e+03 
3.075000e-01 2.304749e+03 
3.087000e-01 2.294779e+03 
3.099100e-01 2.284822e+03 
3.111200e-01 2.275006e+03 
3.123100e-01 2.265519e+03 
3.135300e-01 2.255886e+03 
3.147300e-01 2.246501e+03 
3.159900e-01 2.236741e+03 
3.171800e-01 2.227587e+03 
3.183700e-01 2.218504e+03 
3.196300e-01 2.208976e+03 
3.208400e-01 2.199914e+03 
3.220300e-01 2.191083e+03 
3.232000e-01 2.182451e+03 
3.244300e-01 2.173448e+03 
3.256700e-01 2.164458e+03 
3.269200e-01 2.155479e+03 
3.280800e-01 2.147223e+03 
3.292500e-01 2.139047e+03 
3.304800e-01 2.130555e+03 
3.317100e-01 2.122140e+03 
3.328900e-01 2.114139e+03 
3.340700e-01 2.106208e+03 
3.353600e-01 2.097585e+03 
3.365300e-01 2.089823e+03 
3.377100e-01 2.082062e+03 
3.389200e-01 2.074173e+03 
3.401600e-01 2.066161e+03 
3.413700e-01 2.058426e+03 
3.425300e-01 2.051084e+03 
3.437700e-01 2.043304e+03 
3.449800e-01 2.035779e+03 
3.461800e-01 2.028380e+03 
3.473600e-01 2.021185e+03 
3.485800e-01 2.013855e+03 
3.498100e-01 2.006529e+03 
3.510200e-01 1.999384e+03 
3.522000e-01 1.992475e+03 
3.533900e-01 1.985566e+03 
3.546400e-01 1.978331e+03 
3.558400e-01 1.971443e+03 
3.570600e-01 1.964499e+03 
3.582700e-01 1.957669e+03 
3.595000e-01 1.950786e+03 
3.607100e-01 1.944078e+03 
3.618900e-01 1.937597e+03 
3.631200e-01 1.930897e+03 
3.643200e-01 1.924414e+03 
3.655500e-01 1.917824e+03 
3.667300e-01 1.911554e+03 
3.679500e-01 1.905172e+03 
3.691900e-01 1.898739e+03 
3.703600e-01 1.892718e+03 
3.715700e-01 1.886542e+03 
3.727700e-01 1.880466e+03 
3.739900e-01 1.874325e+03 
3.752000e-01 1.868261e+03 
3.763900e-01 1.862344e+03 
3.775800e-01 1.856473e+03 
3.788200e-01 1.850405e+03 
3.800300e-01 1.844532e+03 
3.812100e-01 1.838827e+03 
3.824200e-01 1.833008e+03 
3.836100e-01 1.827329e+03 
3.848600e-01 1.821412e+03 
3.860400e-01 1.815870e+03 
3.872400e-01 1.810277e+03 
3.884600e-01 1.804607e+03 
3.896500e-01 1.799110e+03 
3.908700e-01 1.793517e+03 
3.920600e-01 1.788104e+03 
3.933100e-01 1.782462e+03 
3.945300e-01 1.776998e+03 
3.957200e-01 1.771706e+03 
3.969300e-01 1.766364e+03 
3.981700e-01 1.760932e+03 
3.993500e-01 1.755801e+03 
4.094840e-01 1.713093e+03 
4.272360e-01 1.643295e+03 
4.454600e-01 1.577623e+03 
4.630560e-01 1.518925e+03 
4.804610e-01 1.465029e+03 
4.980690e-01 1.414371e+03 
5.159230e-01 1.366413e+03 
5.317440e-01 1.326796e+03 
5.489640e-01 1.286094e+03 
5.671990e-01 1.245867e+03 
5.838690e-01 1.211221e+03 
6.018840e-01 1.176006e+03 
6.202330e-01 1.142151e+03 
6.379250e-01 1.111209e+03 
6.545410e-01 1.083663e+03 
6.714560e-01 1.056898e+03 
6.892080e-01 1.030007e+03 
7.066010e-01 1.004781e+03 
7.240540e-01 9.805922e+02 
7.420450e-01 9.565231e+02 
7.593780e-01 9.342289e+02 
7.764720e-01 9.130823e+02 
7.942840e-01 8.918079e+02 
8.116170e-01 8.716784e+02 
8.288310e-01 8.522690e+02 
8.462240e-01 8.333047e+02 
8.631980e-01 8.154058e+02 
8.810700e-01 7.971226e+02 
8.989410e-01 7.793347e+02 
9.166330e-01 7.622436e+02 
9.345640e-01 7.453784e+02 
9.515980e-01 7.298489e+02 
9.688720e-01 7.145330e+02 
9.865640e-01 6.992228e+02 
1.031870e+00 6.619006e+02 
1.063490e+00 6.372853e+02 
1.097920e+00 6.118667e+02 
1.134370e+00 5.864006e+02 
1.167730e+00 5.642619e+02 
1.203830e+00 5.414796e+02 
1.240470e+00 5.196757e+02 
1.275790e+00 4.996293e+02 
1.309140e+00 4.816998e+02 
1.342970e+00 4.643468e+02 
1.378420e+00 4.470975e+02 
1.413200e+00 4.309714e+02 
1.448110e+00 4.155661e+02 
1.484090e+00 4.004782e+02 
1.518820e+00 3.866669e+02 
1.552880e+00 3.736612e+02 
1.588630e+00 3.607032e+02 
1.623230e+00 3.487320e+02 
1.657720e+00 3.373543e+02 
1.692450e+00 3.264453e+02 
1.726400e+00 3.161647e+02 
1.762200e+00 3.058516e+02 
1.797880e+00 2.960361e+02 
1.833270e+00 2.867391e+02 
1.869070e+00 2.777517e+02 
1.903200e+00 2.695247e+02 
1.937740e+00 2.615472e+02 
1.973190e+00 2.537246e+02 
2.007440e+00 2.464693e+02 
2.042160e+00 2.394026e+02 
2.077900e+00 2.324168e+02 
2.112390e+00 2.259515e+02 
2.146220e+00 2.198654e+02 
2.181600e+00 2.137236e+02 
2.216930e+00 2.078436e+02 
2.250760e+00 2.024276e+02 
2.286500e+00 1.969154e+02 
2.321770e+00 1.916773e+02 
2.355950e+00 1.867810e+02 
2.391280e+00 1.819216e+02 
2.426240e+00 1.772916e+02 
2.460670e+00 1.728892e+02 
2.495640e+00 1.685666e+02 
2.531080e+00 1.643431e+02 
2.566220e+00 1.602973e+02 
2.600830e+00 1.564461e+02 
2.635080e+00 1.527606e+02 
2.670340e+00 1.491063e+02 
2.705970e+00 1.455405e+02 
2.740040e+00 1.422420e+02 
2.774520e+00 1.390008e+02 
2.809730e+00 1.358108e+02 
2.844390e+00 1.327751e+02 
2.879960e+00 1.297549e+02 
2.914860e+00 1.268834e+02 
2.949410e+00 1.241284e+02 
2.984440e+00 1.214211e+02 
3.019760e+00 1.187697e+02 
3.054730e+00 1.162222e+02 
3.089030e+00 1.138109e+02 
3.124060e+00 1.114197e+02 
3.159560e+00 1.090665e+02 
3.194710e+00 1.068137e+02 
3.229010e+00 1.046799e+02 
3.263320e+00 1.025900e+02 
3.297930e+00 1.005444e+02 
3.332830e+00 9.854666e+01 
3.368040e+00 9.659135e+01 
3.403300e+00 9.469052e+01 
3.438450e+00 9.284574e+01 
3.473060e+00 9.107790e+01 
3.508440e+00 8.932050e+01 
3.543110e+00 8.764409e+01 
3.577470e+00 8.602492e+01 
3.613040e+00 8.439456e+01 
3.648120e+00 8.283452e+01 
3.682910e+00 8.132557e+01 
3.718050e+00 7.983746e+01 
3.753320e+00 7.838588e+01 
3.787980e+00 7.700101e+01 
3.822290e+00 7.566227e+01 
3.857020e+00 7.433795e+01 
3.891920e+00 7.304176e+01 
3.926650e+00 7.178711e+01 
3.961970e+00 7.054146e+01 
3.997360e+00 6.932261e+01 
4.031670e+00 6.816988e+01 
4.066330e+00 6.703732e+01 
4.101420e+00 6.591716e+01 
4.136200e+00 6.483120e+01 
4.170810e+00 6.377502e+01 
4.206250e+00 6.271903e+01 
4.241580e+00 6.169044e+01 
4.276300e+00 6.070721e+01 
4.310970e+00 5.974971e+01 
4.346120e+00 5.879890e+01 
4.380600e+00 5.788429e+01 
4.414730e+00 5.699839e+01 
4.450350e+00 5.610083e+01 
4.485320e+00 5.523856e+01 
4.519810e+00 5.440389e+01 
4.555430e+00 5.355909e+01 
4.590870e+00 5.273878e+01 
4.625480e+00 5.195924e+01 
4.659910e+00 5.119945e+01 
4.695230e+00 5.043541e+01 
4.729960e+00 4.969931e+01 
4.764450e+00 4.898371e+01 
4.799530e+00 4.827178e+01 
4.834910e+00 4.756811e+01 
4.869700e+00 4.689118e+01 
4.904370e+00 4.622992e+01 
4.939450e+00 4.557441e+01 
4.973940e+00 4.494390e+01 
5.008430e+00 4.432531e+01 
5.043810e+00 4.370402e+01 
5.078840e+00 4.310127e+01 
5.113500e+00 4.251606e+01 
5.148890e+00 4.193095e+01 
5.184210e+00 4.135799e+01 
5.219060e+00 4.080335e+01 
5.253660e+00 4.026334e+01 
5.288570e+00 3.972836e+01 
5.323420e+00 3.920552e+01 
5.358440e+00 3.869130e+01 
5.393590e+00 3.818441e+01 
5.428310e+00 3.769223e+01 
5.462800e+00 3.721166e+01 
5.497640e+00 3.673466e+01 
5.532670e+00 3.626564e+01 
5.567280e+00 3.581094e+01 
5.602000e+00 3.536259e+01 
5.637270e+00 3.491536e+01 
5.672410e+00 3.447750e+01 
5.707020e+00 3.405353e+01 
5.742040e+00 3.363246e+01 
5.777430e+00 3.321427e+01 
5.812210e+00 3.281015e+01 
5.846820e+00 3.241542e+01 
5.881610e+00 3.202532e+01 
5.916510e+00 3.164037e+01 
5.951600e+00 3.126087e+01 
5.986560e+00 3.088945e+01 
6.021830e+00 3.052080e+01 
6.056490e+00 3.016431e+01 
6.091160e+00 2.981334e+01 
6.125830e+00 2.946790e+01 
6.161090e+00 2.912237e+01 
6.195760e+00 2.878852e+01 
6.230420e+00 2.845993e+01 
6.265690e+00 2.813080e+01 
6.300950e+00 2.780836e+01 
6.335620e+00 2.749618e+01 
6.370880e+00 2.718353e+01 
6.405550e+00 2.688069e+01 
6.440220e+00 2.658236e+01 
6.475480e+00 2.628352e+01 
6.510150e+00 2.599448e+01 
6.544810e+00 2.571067e+01 
6.580080e+00 2.542615e+01 
6.614750e+00 2.515059e+01 
6.649410e+00 2.487974e+01 
6.684080e+00 2.461287e+01 
6.719340e+00 2.434539e+01 
6.754010e+00 2.408616e+01 
6.788680e+00 2.383055e+01 
6.823940e+00 2.357432e+01 
6.859800e+00 2.331751e+01 
6.894470e+00 2.307359e+01 
6.929140e+00 2.283336e+01 
6.963800e+00 2.259656e+01 
6.999070e+00 2.235893e+01 
7.033730e+00 2.212824e+01 
7.068400e+00 2.190065e+01 
7.103660e+00 2.167240e+01 
7.138330e+00 2.145148e+01 
7.173600e+00 2.123073e+01 
7.208260e+00 2.101674e+01 
7.243530e+00 2.080194e+01 
7.277600e+00 2.059687e+01 
7.312860e+00 2.038714e+01 
7.348120e+00 2.018025e+01 
7.382790e+00 1.997954e+01 
7.417460e+00 1.978223e+01 
7.452720e+00 1.958460e+01 
7.487390e+00 1.939284e+01 
7.522650e+00 1.920037e+01 
7.557320e+00 1.901396e+01 
7.591990e+00 1.883009e+01 
7.627250e+00 1.864552e+01 
7.662510e+00 1.846334e+01 
7.697180e+00 1.828598e+01 
7.731850e+00 1.811067e+01 
7.766510e+00 1.793762e+01 
7.801180e+00 1.776672e+01 
7.836440e+00 1.759583e+01 
7.871110e+00 1.743037e+01 
7.906380e+00 1.726416e+01 
7.941040e+00 1.710287e+01 
7.976310e+00 1.694079e+01 
8.011570e+00 1.678079e+01 
8.046240e+00 1.662541e+01 
8.080900e+00 1.647197e+01 
8.115570e+00 1.632035e+01 
8.150830e+00 1.616796e+01 
8.185500e+00 1.601996e+01 
8.220770e+00 1.587122e+01 
8.255430e+00 1.572682e+01 
8.290100e+00 1.558457e+01 
8.324770e+00 1.544407e+01 
8.359430e+00 1.530527e+01 
8.394700e+00 1.516571e+01 
8.429960e+00 1.502786e+01 
8.464630e+00 1.489391e+01 
8.499890e+00 1.475929e+01 
8.534560e+00 1.462847e+01 
8.569200e+00 1.449928e+01 
