# Parameters:
# omega_b = 0.022744, omega_m = 0.143976, n_s = 0.966535, h = 55.708661, w = -1.000000, sigma_8 = 0.833858
# z = 0.300000
#
# k[1/Mpc] # P(k):
8.694000e-04 1.403703e+04 
2.077466e-03 3.004333e+04 
3.285532e-03 4.268606e+04 
4.493598e-03 5.253055e+04 
5.701664e-03 5.994342e+04 
6.909730e-03 6.529057e+04 
8.117797e-03 6.900291e+04 
9.325863e-03 7.130042e+04 
1.053393e-02 7.240945e+04 
1.174199e-02 7.254371e+04 
1.295006e-02 7.183783e+04 
1.415813e-02 7.047806e+04 
1.536619e-02 6.862727e+04 
1.657426e-02 6.637113e+04 
1.778233e-02 6.376711e+04 
1.899039e-02 6.112851e+04 
2.019846e-02 5.864031e+04 
2.140652e-02 5.623341e+04 
2.261459e-02 5.385746e+04 
2.382266e-02 5.155192e+04 
2.503072e-02 4.935733e+04 
2.623879e-02 4.728828e+04 
2.744685e-02 4.534877e+04 
2.865492e-02 4.355231e+04 
2.986299e-02 4.189698e+04 
3.100100e-02 4.046302e+04 
3.220400e-02 3.907392e+04 
3.288100e-02 3.834740e+04 
3.424300e-02 3.699664e+04 
3.555100e-02 3.582222e+04 
3.686000e-02 3.475443e+04 
3.795000e-02 3.393491e+04 
3.929100e-02 3.300321e+04 
4.039800e-02 3.228431e+04 
4.164000e-02 3.152142e+04 
4.294400e-02 3.075414e+04 
4.415000e-02 3.007159e+04 
4.542900e-02 2.935777e+04 
4.660900e-02 2.871449e+04 
4.782300e-02 2.804487e+04 
4.892900e-02 2.743639e+04 
5.031200e-02 2.667230e+04 
5.155900e-02 2.597610e+04 
5.238100e-02 2.551382e+04 
5.378200e-02 2.472690e+04 
5.513400e-02 2.396323e+04 
5.627600e-02 2.331732e+04 
5.735300e-02 2.271363e+04 
5.870100e-02 2.196986e+04 
5.988700e-02 2.132794e+04 
6.113500e-02 2.066862e+04 
6.225900e-02 2.008898e+04 
6.340100e-02 1.952246e+04 
6.480200e-02 1.885758e+04 
6.601100e-02 1.831120e+04 
6.725500e-02 1.777818e+04 
6.829100e-02 1.736019e+04 
6.958600e-02 1.686947e+04 
7.071100e-02 1.647318e+04 
7.192300e-02 1.607489e+04 
7.307400e-02 1.572335e+04 
7.412300e-02 1.542533e+04 
7.550400e-02 1.506652e+04 
7.663100e-02 1.479537e+04 
7.791200e-02 1.451416e+04 
7.912700e-02 1.426745e+04 
8.027600e-02 1.405046e+04 
8.138400e-02 1.385231e+04 
8.272200e-02 1.362419e+04 
8.406100e-02 1.340521e+04 
8.534100e-02 1.319947e+04 
8.653800e-02 1.300881e+04 
8.759800e-02 1.283959e+04 
8.900300e-02 1.261190e+04 
9.009000e-02 1.243096e+04 
9.113300e-02 1.225362e+04 
9.239600e-02 1.203743e+04 
9.358000e-02 1.183097e+04 
9.496100e-02 1.158422e+04 
9.608400e-02 1.138359e+04 
9.727500e-02 1.117234e+04 
9.852600e-02 1.094885e+04 
9.973800e-02 1.073677e+04 
1.009000e-01 1.053762e+04 
1.020900e-01 1.033862e+04 
1.034000e-01 1.012672e+04 
1.046000e-01 9.939119e+03 
1.057200e-01 9.770805e+03 
1.069100e-01 9.598182e+03 
1.082500e-01 9.414579e+03 
1.093900e-01 9.265462e+03 
1.105400e-01 9.120462e+03 
1.116900e-01 8.984093e+03 
1.129600e-01 8.839115e+03 
1.142000e-01 8.705390e+03 
1.153300e-01 8.588471e+03 
1.166400e-01 8.459287e+03 
1.177800e-01 8.351998e+03 
1.190000e-01 8.241027e+03 
1.201200e-01 8.143283e+03 
1.213400e-01 8.039627e+03 
1.227100e-01 7.928323e+03 
1.238900e-01 7.834986e+03 
1.250700e-01 7.744041e+03 
1.263200e-01 7.649693e+03 
1.275500e-01 7.558454e+03 
1.287500e-01 7.471308e+03 
1.299900e-01 7.383029e+03 
1.311300e-01 7.302745e+03 
1.323500e-01 7.217306e+03 
1.335900e-01 7.131608e+03 
1.347100e-01 7.054789e+03 
1.359800e-01 6.968803e+03 
1.372100e-01 6.885870e+03 
1.384300e-01 6.804742e+03 
1.395700e-01 6.728941e+03 
1.407700e-01 6.650620e+03 
1.420300e-01 6.568465e+03 
1.432800e-01 6.488721e+03 
1.444500e-01 6.414213e+03 
1.456300e-01 6.340567e+03 
1.468900e-01 6.263451e+03 
1.480500e-01 6.193863e+03 
1.491700e-01 6.127950e+03 
1.503800e-01 6.058113e+03 
1.516400e-01 5.987039e+03 
1.528200e-01 5.922599e+03 
1.540200e-01 5.858315e+03 
1.551900e-01 5.797465e+03 
1.564300e-01 5.734354e+03 
1.576600e-01 5.673655e+03 
1.588700e-01 5.615906e+03 
1.600900e-01 5.558798e+03 
1.612700e-01 5.505185e+03 
1.625400e-01 5.448549e+03 
1.637600e-01 5.395721e+03 
1.649500e-01 5.345442e+03 
1.662200e-01 5.292788e+03 
1.674000e-01 5.244912e+03 
1.685000e-01 5.201022e+03 
1.697500e-01 5.151955e+03 
1.710300e-01 5.102585e+03 
1.722200e-01 5.057491e+03 
1.734400e-01 5.011797e+03 
1.746400e-01 4.967604e+03 
1.758700e-01 4.923054e+03 
1.770900e-01 4.879576e+03 
1.782700e-01 4.838216e+03 
1.794600e-01 4.796918e+03 
1.807000e-01 4.754415e+03 
1.819100e-01 4.713626e+03 
1.830100e-01 4.676843e+03 
1.842200e-01 4.636958e+03 
1.855000e-01 4.595470e+03 
1.867000e-01 4.557474e+03 
1.879200e-01 4.519455e+03 
1.890900e-01 4.483575e+03 
1.902800e-01 4.447726e+03 
1.915200e-01 4.410950e+03 
1.926900e-01 4.376835e+03 
1.939000e-01 4.342257e+03 
1.951700e-01 4.306530e+03 
1.963100e-01 4.274989e+03 
1.975100e-01 4.242396e+03 
1.987800e-01 4.208427e+03 
2.000100e-01 4.176090e+03 
2.012500e-01 4.144117e+03 
2.023400e-01 4.116408e+03 
2.036100e-01 4.084573e+03 
2.048900e-01 4.052951e+03 
2.060400e-01 4.024950e+03 
2.072200e-01 3.996612e+03 
2.084200e-01 3.968184e+03 
2.096900e-01 3.938532e+03 
2.109200e-01 3.910229e+03 
2.121100e-01 3.883023e+03 
2.132700e-01 3.856849e+03 
2.145200e-01 3.829032e+03 
2.157200e-01 3.802524e+03 
2.168800e-01 3.777160e+03 
2.180700e-01 3.751483e+03 
2.193400e-01 3.724322e+03 
2.206000e-01 3.697504e+03 
2.217500e-01 3.673353e+03 
2.229500e-01 3.648476e+03 
2.241400e-01 3.623727e+03 
2.253500e-01 3.598879e+03 
2.264900e-01 3.575766e+03 
2.277100e-01 3.551154e+03 
2.289900e-01 3.525467e+03 
2.301500e-01 3.502489e+03 
2.313600e-01 3.478818e+03 
2.325600e-01 3.455084e+03 
2.337700e-01 3.431454e+03 
2.350000e-01 3.407740e+03 
2.362000e-01 3.384736e+03 
2.374100e-01 3.361640e+03 
2.386500e-01 3.338269e+03 
2.399100e-01 3.314825e+03 
2.410400e-01 3.293749e+03 
2.422500e-01 3.271410e+03 
2.435000e-01 3.248620e+03 
2.447300e-01 3.226493e+03 
2.458700e-01 3.206306e+03 
2.470600e-01 3.185478e+03 
2.483300e-01 3.163520e+03 
2.495600e-01 3.142597e+03 
2.507600e-01 3.122539e+03 
2.519600e-01 3.102715e+03 
2.532200e-01 3.082148e+03 
2.543700e-01 3.063793e+03 
2.555500e-01 3.045303e+03 
2.568000e-01 3.025944e+03 
2.580100e-01 3.007424e+03 
2.592400e-01 2.989143e+03 
2.604100e-01 2.972094e+03 
2.616100e-01 2.954802e+03 
2.628400e-01 2.937278e+03 
2.640600e-01 2.920356e+03 
2.652200e-01 2.904546e+03 
2.664300e-01 2.888235e+03 
2.676500e-01 2.871971e+03 
2.688400e-01 2.856501e+03 
2.700700e-01 2.840823e+03 
2.712400e-01 2.826071e+03 
2.724800e-01 2.810606e+03 
2.736700e-01 2.796106e+03 
2.748800e-01 2.781704e+03 
2.761000e-01 2.767340e+03 
2.773200e-01 2.753130e+03 
2.785400e-01 2.739096e+03 
2.797000e-01 2.725939e+03 
2.808900e-01 2.712580e+03 
2.821400e-01 2.698697e+03 
2.833900e-01 2.684972e+03 
2.845500e-01 2.672555e+03 
2.857800e-01 2.659524e+03 
2.870300e-01 2.646421e+03 
2.882100e-01 2.634181e+03 
2.893900e-01 2.622022e+03 
2.906300e-01 2.609355e+03 
2.918900e-01 2.596618e+03 
2.930500e-01 2.585011e+03 
2.942500e-01 2.573142e+03 
2.954200e-01 2.561747e+03 
2.966500e-01 2.549886e+03 
2.978900e-01 2.538051e+03 
2.990400e-01 2.527183e+03 
3.002700e-01 2.515656e+03 
3.015100e-01 2.504145e+03 
3.026800e-01 2.493391e+03 
3.038500e-01 2.482738e+03 
3.050300e-01 2.472094e+03 
3.062600e-01 2.460983e+03 
3.075000e-01 2.449892e+03 
3.087000e-01 2.439262e+03 
3.099100e-01 2.428647e+03 
3.111200e-01 2.418182e+03 
3.123100e-01 2.408070e+03 
3.135300e-01 2.397802e+03 
3.147300e-01 2.387797e+03 
3.159900e-01 2.377394e+03 
3.171800e-01 2.367639e+03 
3.183700e-01 2.357959e+03 
3.196300e-01 2.347807e+03 
3.208400e-01 2.338150e+03 
3.220300e-01 2.328741e+03 
3.232000e-01 2.319545e+03 
3.244300e-01 2.309956e+03 
3.256700e-01 2.300379e+03 
3.269200e-01 2.290815e+03 
3.280800e-01 2.282020e+03 
3.292500e-01 2.273317e+03 
3.304800e-01 2.264278e+03 
3.317100e-01 2.255321e+03 
3.328900e-01 2.246806e+03 
3.340700e-01 2.238365e+03 
3.353600e-01 2.229191e+03 
3.365300e-01 2.220936e+03 
3.377100e-01 2.212681e+03 
3.389200e-01 2.204290e+03 
3.401600e-01 2.195768e+03 
3.413700e-01 2.187544e+03 
3.425300e-01 2.179740e+03 
3.437700e-01 2.171471e+03 
3.449800e-01 2.163472e+03 
3.461800e-01 2.155608e+03 
3.473600e-01 2.147962e+03 
3.485800e-01 2.140178e+03 
3.498100e-01 2.132398e+03 
3.510200e-01 2.124811e+03 
3.522000e-01 2.117474e+03 
3.533900e-01 2.110137e+03 
3.546400e-01 2.102462e+03 
3.558400e-01 2.095154e+03 
3.570600e-01 2.087788e+03 
3.582700e-01 2.080544e+03 
3.595000e-01 2.073242e+03 
3.607100e-01 2.066129e+03 
3.618900e-01 2.059257e+03 
3.631200e-01 2.052152e+03 
3.643200e-01 2.045279e+03 
3.655500e-01 2.038292e+03 
3.667300e-01 2.031644e+03 
3.679500e-01 2.024880e+03 
3.691900e-01 2.018062e+03 
3.703600e-01 2.011681e+03 
3.715700e-01 2.005135e+03 
3.727700e-01 1.998695e+03 
3.739900e-01 1.992188e+03 
3.752000e-01 1.985764e+03 
3.763900e-01 1.979496e+03 
3.775800e-01 1.973277e+03 
3.788200e-01 1.966849e+03 
3.800300e-01 1.960627e+03 
3.812100e-01 1.954584e+03 
3.824200e-01 1.948420e+03 
3.836100e-01 1.942405e+03 
3.848600e-01 1.936137e+03 
3.860400e-01 1.930267e+03 
3.872400e-01 1.924343e+03 
3.884600e-01 1.918337e+03 
3.896500e-01 1.912512e+03 
3.908700e-01 1.906586e+03 
3.920600e-01 1.900850e+03 
3.933100e-01 1.894872e+03 
3.945300e-01 1.889083e+03 
3.957200e-01 1.883475e+03 
3.969300e-01 1.877815e+03 
3.981700e-01 1.872058e+03 
3.993500e-01 1.866622e+03 
4.094840e-01 1.821351e+03 
4.272360e-01 1.747252e+03 
4.454600e-01 1.677410e+03 
4.630560e-01 1.614862e+03 
4.804610e-01 1.557335e+03 
4.980690e-01 1.503192e+03 
5.159230e-01 1.451894e+03 
5.317440e-01 1.409495e+03 
5.489640e-01 1.365921e+03 
5.671990e-01 1.322847e+03 
5.838690e-01 1.285744e+03 
6.018840e-01 1.248030e+03 
6.202330e-01 1.211763e+03 
6.379250e-01 1.178610e+03 
6.545410e-01 1.149080e+03 
6.714560e-01 1.120374e+03 
6.892080e-01 1.091512e+03 
7.066010e-01 1.064414e+03 
7.240540e-01 1.038413e+03 
7.420450e-01 1.012510e+03 
7.593780e-01 9.884971e+02 
7.764720e-01 9.656997e+02 
7.942840e-01 9.427452e+02 
8.116170e-01 9.210047e+02 
8.288310e-01 9.000247e+02 
8.462240e-01 8.795098e+02 
8.631980e-01 8.601336e+02 
8.810700e-01 8.403273e+02 
8.989410e-01 8.210513e+02 
9.166330e-01 8.025209e+02 
9.345640e-01 7.842292e+02 
9.515980e-01 7.673818e+02 
9.688720e-01 7.507609e+02 
9.865640e-01 7.341428e+02 
1.031870e+00 6.936449e+02 
1.063490e+00 6.669463e+02 
1.097920e+00 6.393816e+02 
1.134370e+00 6.117918e+02 
1.167730e+00 5.878278e+02 
1.203830e+00 5.631951e+02 
1.240470e+00 5.396473e+02 
1.275790e+00 5.180299e+02 
1.309140e+00 4.987177e+02 
1.342970e+00 4.800547e+02 
1.378420e+00 4.615271e+02 
1.413200e+00 4.442334e+02 
1.448110e+00 4.277391e+02 
1.484090e+00 4.116082e+02 
1.518820e+00 3.968639e+02 
1.552880e+00 3.830048e+02 
1.588630e+00 3.692154e+02 
1.623230e+00 3.564961e+02 
1.657720e+00 3.444242e+02 
1.692450e+00 3.328660e+02 
1.726400e+00 3.219937e+02 
1.762200e+00 3.111016e+02 
1.797880e+00 3.007502e+02 
1.833270e+00 2.909589e+02 
1.869070e+00 2.815077e+02 
1.903200e+00 2.728692e+02 
1.937740e+00 2.645032e+02 
1.973190e+00 2.563102e+02 
2.007440e+00 2.487221e+02 
2.042160e+00 2.413409e+02 
2.077900e+00 2.340540e+02 
2.112390e+00 2.273179e+02 
2.146220e+00 2.209853e+02 
2.181600e+00 2.146029e+02 
2.216930e+00 2.084997e+02 
2.250760e+00 2.028847e+02 
2.286500e+00 1.971764e+02 
2.321770e+00 1.917585e+02 
2.355950e+00 1.866997e+02 
2.391280e+00 1.816851e+02 
2.426240e+00 1.769121e+02 
2.460670e+00 1.723785e+02 
2.495640e+00 1.679318e+02 
2.531080e+00 1.635922e+02 
2.566220e+00 1.594394e+02 
2.600830e+00 1.554903e+02 
2.635080e+00 1.517147e+02 
2.670340e+00 1.479752e+02 
2.705970e+00 1.443295e+02 
2.740040e+00 1.409600e+02 
2.774520e+00 1.376527e+02 
2.809730e+00 1.344003e+02 
2.844390e+00 1.313076e+02 
2.879960e+00 1.282337e+02 
2.914860e+00 1.253142e+02 
2.949410e+00 1.225152e+02 
2.984440e+00 1.197671e+02 
3.019760e+00 1.170782e+02 
3.054730e+00 1.144966e+02 
3.089030e+00 1.120553e+02 
3.124060e+00 1.096359e+02 
3.159560e+00 1.072570e+02 
3.194710e+00 1.049813e+02 
3.229010e+00 1.028269e+02 
3.263320e+00 1.007195e+02 
3.297930e+00 9.865785e+01 
3.332830e+00 9.664576e+01 
3.368040e+00 9.467783e+01 
3.403300e+00 9.276589e+01 
3.438450e+00 9.091196e+01 
3.473060e+00 8.913616e+01 
3.508440e+00 8.737258e+01 
3.543110e+00 8.569096e+01 
3.577470e+00 8.406829e+01 
3.613040e+00 8.243511e+01 
3.648120e+00 8.087343e+01 
3.682910e+00 7.936371e+01 
3.718050e+00 7.787601e+01 
3.753320e+00 7.642550e+01 
3.787980e+00 7.504244e+01 
3.822290e+00 7.370618e+01 
3.857020e+00 7.238529e+01 
3.891920e+00 7.109301e+01 
3.926650e+00 6.984288e+01 
3.961970e+00 6.860227e+01 
3.997360e+00 6.738925e+01 
4.031670e+00 6.624243e+01 
4.066330e+00 6.511642e+01 
4.101420e+00 6.400303e+01 
4.136200e+00 6.292452e+01 
4.170810e+00 6.187583e+01 
4.206250e+00 6.082815e+01 
4.241580e+00 5.980800e+01 
4.276300e+00 5.883329e+01 
4.310970e+00 5.788442e+01 
4.346120e+00 5.694264e+01 
4.380600e+00 5.603731e+01 
4.414730e+00 5.516060e+01 
4.450350e+00 5.427287e+01 
4.485320e+00 5.342023e+01 
4.519810e+00 5.259543e+01 
4.555430e+00 5.176096e+01 
4.590870e+00 5.095093e+01 
4.625480e+00 5.018150e+01 
4.659910e+00 4.943171e+01 
4.695230e+00 4.867825e+01 
4.729960e+00 4.795253e+01 
4.764450e+00 4.724729e+01 
4.799530e+00 4.654602e+01 
4.834910e+00 4.585301e+01 
4.869700e+00 4.518673e+01 
4.904370e+00 4.453604e+01 
4.939450e+00 4.389122e+01 
4.973940e+00 4.327127e+01 
5.008430e+00 4.266316e+01 
5.043810e+00 4.205269e+01 
5.078840e+00 4.146065e+01 
5.113500e+00 4.088594e+01 
5.148890e+00 4.031165e+01 
5.184210e+00 3.974942e+01 
5.219060e+00 3.920530e+01 
5.253660e+00 3.867581e+01 
5.288570e+00 3.815134e+01 
5.323420e+00 3.763894e+01 
5.358440e+00 3.713518e+01 
5.393590e+00 3.663869e+01 
5.428310e+00 3.615684e+01 
5.462800e+00 3.568651e+01 
5.497640e+00 3.521976e+01 
5.532670e+00 3.476100e+01 
5.567280e+00 3.431637e+01 
5.602000e+00 3.387800e+01 
5.637270e+00 3.344096e+01 
5.672410e+00 3.301318e+01 
5.707020e+00 3.259904e+01 
5.742040e+00 3.218794e+01 
5.777430e+00 3.177974e+01 
5.812210e+00 3.138534e+01 
5.846820e+00 3.100029e+01 
5.881610e+00 3.061984e+01 
5.916510e+00 3.024448e+01 
5.951600e+00 2.987457e+01 
5.986560e+00 2.951265e+01 
6.021830e+00 2.915347e+01 
6.056490e+00 2.880628e+01 
6.091160e+00 2.846459e+01 
6.125830e+00 2.812832e+01 
6.161090e+00 2.779207e+01 
6.195760e+00 2.746732e+01 
6.230420e+00 2.714773e+01 
6.265690e+00 2.682767e+01 
6.300950e+00 2.651428e+01 
6.335620e+00 2.621091e+01 
6.370880e+00 2.590714e+01 
6.405550e+00 2.561302e+01 
6.440220e+00 2.532337e+01 
6.475480e+00 2.503326e+01 
6.510150e+00 2.475273e+01 
6.544810e+00 2.447740e+01 
6.580080e+00 2.420142e+01 
6.614750e+00 2.393418e+01 
6.649410e+00 2.367163e+01 
6.684080e+00 2.341298e+01 
6.719340e+00 2.315378e+01 
6.754010e+00 2.290265e+01 
6.788680e+00 2.265515e+01 
6.823940e+00 2.240708e+01 
6.859800e+00 2.215849e+01 
6.894470e+00 2.192247e+01 
6.929140e+00 2.169009e+01 
6.963800e+00 2.146105e+01 
6.999070e+00 2.123125e+01 
7.033730e+00 2.100829e+01 
7.068400e+00 2.078837e+01 
7.103660e+00 2.056783e+01 
7.138330e+00 2.035445e+01 
7.173600e+00 2.014131e+01 
7.208260e+00 1.993473e+01 
7.243530e+00 1.972739e+01 
7.277600e+00 1.952953e+01 
7.312860e+00 1.932726e+01 
7.348120e+00 1.912774e+01 
7.382790e+00 1.893422e+01 
7.417460e+00 1.874404e+01 
7.452720e+00 1.855362e+01 
7.487390e+00 1.836888e+01 
7.522650e+00 1.818347e+01 
7.557320e+00 1.800399e+01 
7.591990e+00 1.782701e+01 
7.627250e+00 1.764936e+01 
7.662510e+00 1.747405e+01 
7.697180e+00 1.730347e+01 
7.731850e+00 1.713491e+01 
7.766510e+00 1.696855e+01 
7.801180e+00 1.680426e+01 
7.836440e+00 1.664007e+01 
7.871110e+00 1.648113e+01 
7.906380e+00 1.632149e+01 
7.941040e+00 1.616659e+01 
7.976310e+00 1.601100e+01 
8.011570e+00 1.585747e+01 
8.046240e+00 1.570839e+01 
8.080900e+00 1.556119e+01 
8.115570e+00 1.541576e+01 
8.150830e+00 1.526970e+01 
8.185500e+00 1.512785e+01 
8.220770e+00 1.498531e+01 
8.255430e+00 1.484694e+01 
8.290100e+00 1.471073e+01 
8.324770e+00 1.457620e+01 
8.359430e+00 1.444332e+01 
8.394700e+00 1.430972e+01 
8.429960e+00 1.417782e+01 
8.464630e+00 1.404970e+01 
8.499890e+00 1.392096e+01 
8.534560e+00 1.379586e+01 
8.569200e+00 1.367233e+01 
