# Parameters:
# omega_b = 0.022539, omega_m = 0.135433, n_s = 0.947638, h = 78.149606, w = -1.000000, sigma_8 = 0.751969
# z = 0.300000
#
# k[1/Mpc] # P(k):
8.694000e-04 1.060263e+04 
2.077466e-03 2.220312e+04 
3.285532e-03 3.106643e+04 
4.493598e-03 3.773041e+04 
5.701664e-03 4.254968e+04 
6.909730e-03 4.585464e+04 
8.117797e-03 4.799682e+04 
9.325863e-03 4.915686e+04 
1.053393e-02 4.950875e+04 
1.174199e-02 4.920856e+04 
1.295006e-02 4.836031e+04 
1.415813e-02 4.709999e+04 
1.536619e-02 4.553982e+04 
1.657426e-02 4.377098e+04 
1.778233e-02 4.188131e+04 
1.899039e-02 3.990082e+04 
2.019846e-02 3.783836e+04 
2.140652e-02 3.580310e+04 
2.261459e-02 3.385753e+04 
2.382266e-02 3.203426e+04 
2.503072e-02 3.035251e+04 
2.623879e-02 2.881629e+04 
2.744685e-02 2.742711e+04 
2.865492e-02 2.618229e+04 
2.986299e-02 2.507358e+04 
3.100100e-02 2.414905e+04 
3.220400e-02 2.328628e+04 
3.288100e-02 2.285123e+04 
3.424300e-02 2.206894e+04 
3.555100e-02 2.141667e+04 
3.686000e-02 2.084684e+04 
3.795000e-02 2.042205e+04 
3.929100e-02 1.995051e+04 
4.039800e-02 1.958827e+04 
4.164000e-02 1.920052e+04 
4.294400e-02 1.879576e+04 
4.415000e-02 1.842179e+04 
4.542900e-02 1.800428e+04 
4.660900e-02 1.760922e+04 
4.782300e-02 1.716736e+04 
4.892900e-02 1.674829e+04 
5.031200e-02 1.619701e+04 
5.155900e-02 1.567392e+04 
5.238100e-02 1.531923e+04 
5.378200e-02 1.470579e+04 
5.513400e-02 1.410509e+04 
5.627600e-02 1.359813e+04 
5.735300e-02 1.312859e+04 
5.870100e-02 1.255934e+04 
5.988700e-02 1.208005e+04 
6.113500e-02 1.160180e+04 
6.225900e-02 1.119626e+04 
6.340100e-02 1.081425e+04 
6.480200e-02 1.038350e+04 
6.601100e-02 1.004870e+04 
6.725500e-02 9.738263e+03 
6.829100e-02 9.508402e+03 
6.958600e-02 9.249674e+03 
7.071100e-02 9.052072e+03 
7.192300e-02 8.862295e+03 
7.307400e-02 8.701647e+03 
7.412300e-02 8.569886e+03 
7.550400e-02 8.416210e+03 
7.663100e-02 8.301550e+03 
7.791200e-02 8.182318e+03 
7.912700e-02 8.074250e+03 
8.027600e-02 7.975224e+03 
8.138400e-02 7.880336e+03 
8.272200e-02 7.763819e+03 
8.406100e-02 7.643785e+03 
8.534100e-02 7.521596e+03 
8.653800e-02 7.401377e+03 
8.759800e-02 7.291017e+03 
8.900300e-02 7.137720e+03 
9.009000e-02 7.012963e+03 
9.113300e-02 6.888983e+03 
9.239600e-02 6.736935e+03 
9.358000e-02 6.591279e+03 
9.496100e-02 6.417707e+03 
9.608400e-02 6.277301e+03 
9.727500e-02 6.130197e+03 
9.852600e-02 5.976440e+03 
9.973800e-02 5.831963e+03 
1.009000e-01 5.697516e+03 
1.020900e-01 5.566181e+03 
1.034000e-01 5.428323e+03 
1.046000e-01 5.308314e+03 
1.057200e-01 5.204533e+03 
1.069100e-01 5.099687e+03 
1.082500e-01 4.992689e+03 
1.093900e-01 4.908888e+03 
1.105400e-01 4.829219e+03 
1.116900e-01 4.758488e+03 
1.129600e-01 4.684685e+03 
1.142000e-01 4.620016e+03 
1.153300e-01 4.564453e+03 
1.166400e-01 4.504611e+03 
1.177800e-01 4.455415e+03 
1.190000e-01 4.404776e+03 
1.201200e-01 4.359223e+03 
1.213400e-01 4.310747e+03 
1.227100e-01 4.255608e+03 
1.238900e-01 4.208509e+03 
1.250700e-01 4.159740e+03 
1.263200e-01 4.107890e+03 
1.275500e-01 4.054965e+03 
1.287500e-01 4.003007e+03 
1.299900e-01 3.948152e+03 
1.311300e-01 3.897264e+03 
1.323500e-01 3.841622e+03 
1.335900e-01 3.785240e+03 
1.347100e-01 3.733943e+03 
1.359800e-01 3.676456e+03 
1.372100e-01 3.620834e+03 
1.384300e-01 3.566654e+03 
1.395700e-01 3.516494e+03 
1.407700e-01 3.464835e+03 
1.420300e-01 3.411848e+03 
1.432800e-01 3.360475e+03 
1.444500e-01 3.314058e+03 
1.456300e-01 3.268220e+03 
1.468900e-01 3.221534e+03 
1.480500e-01 3.179814e+03 
1.491700e-01 3.140973e+03 
1.503800e-01 3.100673e+03 
1.516400e-01 3.059927e+03 
1.528200e-01 3.024091e+03 
1.540200e-01 2.988352e+03 
1.551900e-01 2.955380e+03 
1.564300e-01 2.921398e+03 
1.576600e-01 2.889007e+03 
1.588700e-01 2.858544e+03 
1.600900e-01 2.828434e+03 
1.612700e-01 2.800410e+03 
1.625400e-01 2.770807e+03 
1.637600e-01 2.743089e+03 
1.649500e-01 2.716649e+03 
1.662200e-01 2.688879e+03 
1.674000e-01 2.663181e+03 
1.685000e-01 2.639623e+03 
1.697500e-01 2.612915e+03 
1.710300e-01 2.585673e+03 
1.722200e-01 2.560795e+03 
1.734400e-01 2.534815e+03 
1.746400e-01 2.509663e+03 
1.758700e-01 2.484087e+03 
1.770900e-01 2.458674e+03 
1.782700e-01 2.434506e+03 
1.794600e-01 2.410100e+03 
1.807000e-01 2.384803e+03 
1.819100e-01 2.360535e+03 
1.830100e-01 2.338493e+03 
1.842200e-01 2.314572e+03 
1.855000e-01 2.289701e+03 
1.867000e-01 2.266899e+03 
1.879200e-01 2.244093e+03 
1.890900e-01 2.222606e+03 
1.902800e-01 2.201283e+03 
1.915200e-01 2.179418e+03 
1.926900e-01 2.159203e+03 
1.939000e-01 2.138918e+03 
1.951700e-01 2.117965e+03 
1.963100e-01 2.099552e+03 
1.975100e-01 2.080741e+03 
1.987800e-01 2.061140e+03 
2.000100e-01 2.042561e+03 
2.012500e-01 2.024370e+03 
2.023400e-01 2.008608e+03 
2.036100e-01 1.990550e+03 
2.048900e-01 1.972800e+03 
2.060400e-01 1.957086e+03 
2.072200e-01 1.941197e+03 
2.084200e-01 1.925414e+03 
2.096900e-01 1.908954e+03 
2.109200e-01 1.893245e+03 
2.121100e-01 1.878290e+03 
2.132700e-01 1.863912e+03 
2.145200e-01 1.848633e+03 
2.157200e-01 1.834201e+03 
2.168800e-01 1.820452e+03 
2.180700e-01 1.806534e+03 
2.193400e-01 1.791912e+03 
2.206000e-01 1.777656e+03 
2.217500e-01 1.764819e+03 
2.229500e-01 1.751598e+03 
2.241400e-01 1.738766e+03 
2.253500e-01 1.725892e+03 
2.264900e-01 1.713918e+03 
2.277100e-01 1.701374e+03 
2.289900e-01 1.688509e+03 
2.301500e-01 1.677003e+03 
2.313600e-01 1.665153e+03 
2.325600e-01 1.653715e+03 
2.337700e-01 1.642327e+03 
2.350000e-01 1.630899e+03 
2.362000e-01 1.619995e+03 
2.374100e-01 1.609262e+03 
2.386500e-01 1.598400e+03 
2.399100e-01 1.587504e+03 
2.410400e-01 1.577941e+03 
2.422500e-01 1.567834e+03 
2.435000e-01 1.557522e+03 
2.447300e-01 1.547537e+03 
2.458700e-01 1.538538e+03 
2.470600e-01 1.529252e+03 
2.483300e-01 1.519463e+03 
2.495600e-01 1.510119e+03 
2.507600e-01 1.501141e+03 
2.519600e-01 1.492267e+03 
2.532200e-01 1.483061e+03 
2.543700e-01 1.474745e+03 
2.555500e-01 1.466299e+03 
2.568000e-01 1.457456e+03 
2.580100e-01 1.448996e+03 
2.592400e-01 1.440453e+03 
2.604100e-01 1.432400e+03 
2.616100e-01 1.424232e+03 
2.628400e-01 1.415955e+03 
2.640600e-01 1.407738e+03 
2.652200e-01 1.399970e+03 
2.664300e-01 1.391956e+03 
2.676500e-01 1.383965e+03 
2.688400e-01 1.376176e+03 
2.700700e-01 1.368162e+03 
2.712400e-01 1.360621e+03 
2.724800e-01 1.352717e+03 
2.736700e-01 1.345179e+03 
2.748800e-01 1.337560e+03 
2.761000e-01 1.329962e+03 
2.773200e-01 1.322446e+03 
2.785400e-01 1.314965e+03 
2.797000e-01 1.307833e+03 
2.808900e-01 1.300591e+03 
2.821400e-01 1.293065e+03 
2.833900e-01 1.285619e+03 
2.845500e-01 1.278765e+03 
2.857800e-01 1.271572e+03 
2.870300e-01 1.264339e+03 
2.882100e-01 1.257582e+03 
2.893900e-01 1.250832e+03 
2.906300e-01 1.243780e+03 
2.918900e-01 1.236689e+03 
2.930500e-01 1.230226e+03 
2.942500e-01 1.223610e+03 
2.954200e-01 1.217233e+03 
2.966500e-01 1.210595e+03 
2.978900e-01 1.203971e+03 
2.990400e-01 1.197888e+03 
3.002700e-01 1.191430e+03 
3.015100e-01 1.184977e+03 
3.026800e-01 1.178948e+03 
3.038500e-01 1.172976e+03 
3.050300e-01 1.167009e+03 
3.062600e-01 1.160793e+03 
3.075000e-01 1.154590e+03 
3.087000e-01 1.148644e+03 
3.099100e-01 1.142706e+03 
3.111200e-01 1.136850e+03 
3.123100e-01 1.131187e+03 
3.135300e-01 1.125435e+03 
3.147300e-01 1.119832e+03 
3.159900e-01 1.114004e+03 
3.171800e-01 1.108546e+03 
3.183700e-01 1.103134e+03 
3.196300e-01 1.097458e+03 
3.208400e-01 1.092059e+03 
3.220300e-01 1.086797e+03 
3.232000e-01 1.081667e+03 
3.244300e-01 1.076320e+03 
3.256700e-01 1.070981e+03 
3.269200e-01 1.065648e+03 
3.280800e-01 1.060744e+03 
3.292500e-01 1.055889e+03 
3.304800e-01 1.050844e+03 
3.317100e-01 1.045846e+03 
3.328900e-01 1.041093e+03 
3.340700e-01 1.036381e+03 
3.353600e-01 1.031272e+03 
3.365300e-01 1.026679e+03 
3.377100e-01 1.022085e+03 
3.389200e-01 1.017416e+03 
3.401600e-01 1.012673e+03 
3.413700e-01 1.008101e+03 
3.425300e-01 1.003766e+03 
3.437700e-01 9.991716e+02 
3.449800e-01 9.947272e+02 
3.461800e-01 9.903571e+02 
3.473600e-01 9.861127e+02 
3.485800e-01 9.818024e+02 
3.498100e-01 9.774939e+02 
3.510200e-01 9.732916e+02 
3.522000e-01 9.692274e+02 
3.533900e-01 9.651625e+02 
3.546400e-01 9.609223e+02 
3.558400e-01 9.568856e+02 
3.570600e-01 9.528156e+02 
3.582700e-01 9.488125e+02 
3.595000e-01 9.447771e+02 
3.607100e-01 9.408537e+02 
3.618900e-01 9.370691e+02 
3.631200e-01 9.331561e+02 
3.643200e-01 9.293698e+02 
3.655500e-01 9.255204e+02 
3.667300e-01 9.218571e+02 
3.679500e-01 9.181536e+02 
3.691900e-01 9.144200e+02 
3.703600e-01 9.109253e+02 
3.715700e-01 9.073394e+02 
3.727700e-01 9.038113e+02 
3.739900e-01 9.002494e+02 
3.752000e-01 8.967383e+02 
3.763900e-01 8.933122e+02 
3.775800e-01 8.899126e+02 
3.788200e-01 8.863979e+02 
3.800300e-01 8.829953e+02 
3.812100e-01 8.797087e+02 
3.824200e-01 8.763684e+02 
3.836100e-01 8.731085e+02 
3.848600e-01 8.697108e+02 
3.860400e-01 8.665280e+02 
3.872400e-01 8.633157e+02 
3.884600e-01 8.600791e+02 
3.896500e-01 8.569476e+02 
3.908700e-01 8.537613e+02 
3.920600e-01 8.506768e+02 
3.933100e-01 8.474614e+02 
3.945300e-01 8.443472e+02 
3.957200e-01 8.413394e+02 
3.969300e-01 8.383056e+02 
3.981700e-01 8.352201e+02 
3.993500e-01 8.323057e+02 
4.094840e-01 8.081773e+02 
4.272360e-01 7.692332e+02 
4.454600e-01 7.330971e+02 
4.630560e-01 7.011978e+02 
4.804610e-01 6.722423e+02 
4.980690e-01 6.452634e+02 
5.159230e-01 6.199558e+02 
5.317440e-01 5.991974e+02 
5.489640e-01 5.780644e+02 
5.671990e-01 5.573598e+02 
5.838690e-01 5.396977e+02 
6.018840e-01 5.219111e+02 
6.202330e-01 5.050438e+02 
6.379250e-01 4.897794e+02 
6.545410e-01 4.763895e+02 
6.714560e-01 4.635222e+02 
6.892080e-01 4.507820e+02 
7.066010e-01 4.390111e+02 
7.240540e-01 4.278494e+02 
7.420450e-01 4.169390e+02 
7.593780e-01 4.069590e+02 
7.764720e-01 3.976077e+02 
7.942840e-01 3.883175e+02 
8.116170e-01 3.796529e+02 
8.288310e-01 3.713922e+02 
8.462240e-01 3.633954e+02 
8.631980e-01 3.559329e+02 
8.810700e-01 3.483831e+02 
8.989410e-01 3.410920e+02 
9.166330e-01 3.341412e+02 
9.345640e-01 3.273257e+02 
9.515980e-01 3.210902e+02 
9.688720e-01 3.149757e+02 
9.865640e-01 3.088944e+02 
1.031870e+00 2.941477e+02 
1.063490e+00 2.844766e+02 
1.097920e+00 2.745359e+02 
1.134370e+00 2.645696e+02 
1.167730e+00 2.559047e+02 
1.203830e+00 2.469771e+02 
1.240470e+00 2.384081e+02 
1.275790e+00 2.305047e+02 
1.309140e+00 2.234044e+02 
1.342970e+00 2.165014e+02 
1.378420e+00 2.096077e+02 
1.413200e+00 2.031274e+02 
1.448110e+00 1.969022e+02 
1.484090e+00 1.907669e+02 
1.518820e+00 1.851241e+02 
1.552880e+00 1.797705e+02 
1.588630e+00 1.744057e+02 
1.623230e+00 1.694212e+02 
1.657720e+00 1.646585e+02 
1.692450e+00 1.600639e+02 
1.726400e+00 1.557022e+02 
1.762200e+00 1.513019e+02 
1.797880e+00 1.470871e+02 
1.833270e+00 1.430767e+02 
1.869070e+00 1.391749e+02 
1.903200e+00 1.355805e+02 
1.937740e+00 1.320781e+02 
1.973190e+00 1.286238e+02 
2.007440e+00 1.254024e+02 
2.042160e+00 1.222481e+02 
2.077900e+00 1.191137e+02 
2.112390e+00 1.161979e+02 
2.146220e+00 1.134385e+02 
2.181600e+00 1.106387e+02 
2.216930e+00 1.079457e+02 
2.250760e+00 1.054539e+02 
2.286500e+00 1.029058e+02 
2.321770e+00 1.004728e+02 
2.355950e+00 9.818795e+01 
2.391280e+00 9.590940e+01 
2.426240e+00 9.372935e+01 
2.460670e+00 9.164787e+01 
2.495640e+00 8.959554e+01 
2.531080e+00 8.758024e+01 
2.566220e+00 8.564160e+01 
2.600830e+00 8.378934e+01 
2.635080e+00 8.201049e+01 
2.670340e+00 8.023813e+01 
2.705970e+00 7.850262e+01 
2.740040e+00 7.689197e+01 
2.774520e+00 7.530245e+01 
2.809730e+00 7.373255e+01 
2.844390e+00 7.223429e+01 
2.879960e+00 7.073783e+01 
2.914860e+00 6.930931e+01 
2.949410e+00 6.793498e+01 
2.984440e+00 6.657927e+01 
3.019760e+00 6.524713e+01 
3.054730e+00 6.396399e+01 
3.089030e+00 6.274427e+01 
3.124060e+00 6.153187e+01 
3.159560e+00 6.033509e+01 
3.194710e+00 5.918571e+01 
3.229010e+00 5.809501e+01 
3.263320e+00 5.702177e+01 
3.297930e+00 5.596939e+01 
3.332830e+00 5.493861e+01 
3.368040e+00 5.392718e+01 
3.403300e+00 5.294190e+01 
3.438450e+00 5.198224e+01 
3.473060e+00 5.106129e+01 
3.508440e+00 5.014217e+01 
3.543110e+00 4.926430e+01 
3.577470e+00 4.841333e+01 
3.613040e+00 4.755531e+01 
3.648120e+00 4.673210e+01 
3.682910e+00 4.593445e+01 
3.718050e+00 4.514568e+01 
3.753320e+00 4.437497e+01 
3.787980e+00 4.363804e+01 
3.822290e+00 4.292437e+01 
3.857020e+00 4.221665e+01 
3.891920e+00 4.152295e+01 
3.926650e+00 4.084998e+01 
3.961970e+00 4.018091e+01 
3.997360e+00 3.952457e+01 
4.031670e+00 3.890321e+01 
4.066330e+00 3.829124e+01 
4.101420e+00 3.768559e+01 
4.136200e+00 3.709661e+01 
4.170810e+00 3.652349e+01 
4.206250e+00 3.594900e+01 
4.241580e+00 3.538893e+01 
4.276300e+00 3.485264e+01 
4.310970e+00 3.432979e+01 
4.346120e+00 3.380990e+01 
4.380600e+00 3.330881e+01 
4.414730e+00 3.282322e+01 
4.450350e+00 3.233009e+01 
4.485320e+00 3.185615e+01 
4.519810e+00 3.139649e+01 
4.555430e+00 3.093074e+01 
4.590870e+00 3.047812e+01 
4.625480e+00 3.004741e+01 
4.659910e+00 2.962745e+01 
4.695230e+00 2.920424e+01 
4.729960e+00 2.879623e+01 
4.764450e+00 2.839922e+01 
4.799530e+00 2.800376e+01 
4.834910e+00 2.761273e+01 
4.869700e+00 2.723593e+01 
4.904370e+00 2.686763e+01 
4.939450e+00 2.650226e+01 
4.973940e+00 2.615034e+01 
5.008430e+00 2.580495e+01 
5.043810e+00 2.545771e+01 
5.078840e+00 2.512061e+01 
5.113500e+00 2.479320e+01 
5.148890e+00 2.446534e+01 
5.184210e+00 2.414416e+01 
5.219060e+00 2.383306e+01 
5.253660e+00 2.352981e+01 
5.288570e+00 2.322929e+01 
5.323420e+00 2.293541e+01 
5.358440e+00 2.264620e+01 
5.393590e+00 2.236103e+01 
5.428310e+00 2.208386e+01 
5.462800e+00 2.181305e+01 
5.497640e+00 2.154417e+01 
5.532670e+00 2.127960e+01 
5.567280e+00 2.102300e+01 
5.602000e+00 2.076991e+01 
5.637270e+00 2.051726e+01 
5.672410e+00 2.026980e+01 
5.707020e+00 2.003012e+01 
5.742040e+00 1.979190e+01 
5.777430e+00 1.955522e+01 
5.812210e+00 1.932643e+01 
5.846820e+00 1.910285e+01 
5.881610e+00 1.888183e+01 
5.916510e+00 1.866365e+01 
5.951600e+00 1.844847e+01 
5.986560e+00 1.823780e+01 
6.021830e+00 1.802862e+01 
6.056490e+00 1.782627e+01 
6.091160e+00 1.762695e+01 
6.125830e+00 1.743072e+01 
6.161090e+00 1.723438e+01 
6.195760e+00 1.704463e+01 
6.230420e+00 1.685782e+01 
6.265690e+00 1.667064e+01 
6.300950e+00 1.648723e+01 
6.335620e+00 1.630959e+01 
6.370880e+00 1.613165e+01 
6.405550e+00 1.595923e+01 
6.440220e+00 1.578934e+01 
6.475480e+00 1.561910e+01 
6.510150e+00 1.545441e+01 
6.544810e+00 1.529268e+01 
6.580080e+00 1.513050e+01 
6.614750e+00 1.497338e+01 
6.649410e+00 1.481891e+01 
6.684080e+00 1.466666e+01 
6.719340e+00 1.451403e+01 
6.754010e+00 1.436608e+01 
6.788680e+00 1.422018e+01 
6.823940e+00 1.407389e+01 
6.859800e+00 1.392723e+01 
6.894470e+00 1.378790e+01 
6.929140e+00 1.365066e+01 
6.963800e+00 1.351533e+01 
6.999070e+00 1.337949e+01 
7.033730e+00 1.324761e+01 
7.068400e+00 1.311747e+01 
7.103660e+00 1.298691e+01 
7.138330e+00 1.286053e+01 
7.173600e+00 1.273425e+01 
7.208260e+00 1.261181e+01 
7.243530e+00 1.248887e+01 
7.277600e+00 1.237146e+01 
7.312860e+00 1.225134e+01 
7.348120e+00 1.213281e+01 
7.382790e+00 1.201778e+01 
7.417460e+00 1.190472e+01 
7.452720e+00 1.179148e+01 
7.487390e+00 1.168156e+01 
7.522650e+00 1.157121e+01 
7.557320e+00 1.146432e+01 
7.591990e+00 1.135887e+01 
7.627250e+00 1.125299e+01 
7.662510e+00 1.114844e+01 
7.697180e+00 1.104664e+01 
7.731850e+00 1.094599e+01 
7.766510e+00 1.084660e+01 
7.801180e+00 1.074842e+01 
7.836440e+00 1.065025e+01 
7.871110e+00 1.055520e+01 
7.906380e+00 1.045968e+01 
7.941040e+00 1.036696e+01 
7.976310e+00 1.027376e+01 
8.011570e+00 1.018175e+01 
8.046240e+00 1.009237e+01 
8.080900e+00 1.000407e+01 
8.115570e+00 9.916796e+00 
8.150830e+00 9.829070e+00 
8.185500e+00 9.743836e+00 
8.220770e+00 9.658151e+00 
8.255430e+00 9.574940e+00 
8.290100e+00 9.492981e+00 
8.324770e+00 9.412007e+00 
8.359430e+00 9.331990e+00 
8.394700e+00 9.251507e+00 
8.429960e+00 9.171981e+00 
8.464630e+00 9.094682e+00 
8.499890e+00 9.016968e+00 
8.534560e+00 8.941426e+00 
8.569200e+00 8.866802e+00 
