# Parameters:
# omega_b = 0.022004, omega_m = 0.135157, n_s = 0.980709, h = 84.763780, w = -1.000000, sigma_8 = 0.840157
# z = 0.300000
#
# k[1/Mpc] # P(k):
8.694000e-04 1.020210e+04 
2.077466e-03 2.192727e+04 
3.285532e-03 3.112492e+04 
4.493598e-03 3.817148e+04 
5.701664e-03 4.337098e+04 
6.909730e-03 4.702437e+04 
8.117797e-03 4.947151e+04 
9.325863e-03 5.088789e+04 
1.053393e-02 5.144778e+04 
1.174199e-02 5.131090e+04 
1.295006e-02 5.058375e+04 
1.415813e-02 4.940799e+04 
1.536619e-02 4.790136e+04 
1.657426e-02 4.617344e+04 
1.778233e-02 4.434943e+04 
1.899039e-02 4.239858e+04 
2.019846e-02 4.025891e+04 
2.140652e-02 3.809393e+04 
2.261459e-02 3.601753e+04 
2.382266e-02 3.407537e+04 
2.503072e-02 3.228926e+04 
2.623879e-02 3.066380e+04 
2.744685e-02 2.920192e+04 
2.865492e-02 2.789933e+04 
2.986299e-02 2.674690e+04 
3.100100e-02 2.579376e+04 
3.220400e-02 2.491214e+04 
3.288100e-02 2.447160e+04 
3.424300e-02 2.368643e+04 
3.555100e-02 2.303889e+04 
3.686000e-02 2.247912e+04 
3.795000e-02 2.206480e+04 
3.929100e-02 2.160666e+04 
4.039800e-02 2.125362e+04 
4.164000e-02 2.087284e+04 
4.294400e-02 2.046783e+04 
4.415000e-02 2.008778e+04 
4.542900e-02 1.965361e+04 
4.660900e-02 1.923675e+04 
4.782300e-02 1.876163e+04 
4.892900e-02 1.830661e+04 
5.031200e-02 1.770243e+04 
5.155900e-02 1.712514e+04 
5.238100e-02 1.673253e+04 
5.378200e-02 1.605220e+04 
5.513400e-02 1.538578e+04 
5.627600e-02 1.482402e+04 
5.735300e-02 1.430485e+04 
5.870100e-02 1.367734e+04 
5.988700e-02 1.315104e+04 
6.113500e-02 1.262818e+04 
6.225900e-02 1.218711e+04 
6.340100e-02 1.177388e+04 
6.480200e-02 1.131053e+04 
6.601100e-02 1.095323e+04 
6.725500e-02 1.062442e+04 
6.829100e-02 1.038318e+04 
6.958600e-02 1.011352e+04 
7.071100e-02 9.909584e+03 
7.192300e-02 9.715411e+03 
7.307400e-02 9.552435e+03 
7.412300e-02 9.419752e+03 
7.550400e-02 9.266218e+03 
7.663100e-02 9.152098e+03 
7.791200e-02 9.033442e+03 
7.912700e-02 8.925143e+03 
8.027600e-02 8.825017e+03 
8.138400e-02 8.728041e+03 
8.272200e-02 8.607241e+03 
8.406100e-02 8.480851e+03 
8.534100e-02 8.349959e+03 
8.653800e-02 8.219518e+03 
8.759800e-02 8.098845e+03 
8.900300e-02 7.929914e+03 
9.009000e-02 7.791526e+03 
9.113300e-02 7.653425e+03 
9.239600e-02 7.483669e+03 
9.358000e-02 7.320709e+03 
9.496100e-02 7.126414e+03 
9.608400e-02 6.969327e+03 
9.727500e-02 6.804843e+03 
9.852600e-02 6.633440e+03 
9.973800e-02 6.472749e+03 
1.009000e-01 6.323515e+03 
1.020900e-01 6.178639e+03 
1.034000e-01 6.027047e+03 
1.046000e-01 5.895596e+03 
1.057200e-01 5.782826e+03 
1.069100e-01 5.669234e+03 
1.082500e-01 5.554368e+03 
1.093900e-01 5.465011e+03 
1.105400e-01 5.380425e+03 
1.116900e-01 5.306150e+03 
1.129600e-01 5.228906e+03 
1.142000e-01 5.161824e+03 
1.153300e-01 5.104313e+03 
1.166400e-01 5.042582e+03 
1.177800e-01 4.991748e+03 
1.190000e-01 4.939392e+03 
1.201200e-01 4.891770e+03 
1.213400e-01 4.841006e+03 
1.227100e-01 4.782209e+03 
1.238900e-01 4.731744e+03 
1.250700e-01 4.678689e+03 
1.263200e-01 4.621995e+03 
1.275500e-01 4.563497e+03 
1.287500e-01 4.505820e+03 
1.299900e-01 4.444546e+03 
1.311300e-01 4.387576e+03 
1.323500e-01 4.325101e+03 
1.335900e-01 4.261789e+03 
1.347100e-01 4.204179e+03 
1.359800e-01 4.139696e+03 
1.372100e-01 4.077459e+03 
1.384300e-01 4.016937e+03 
1.395700e-01 3.961148e+03 
1.407700e-01 3.903726e+03 
1.420300e-01 3.845231e+03 
1.432800e-01 3.788508e+03 
1.444500e-01 3.737673e+03 
1.456300e-01 3.687462e+03 
1.468900e-01 3.636588e+03 
1.480500e-01 3.591200e+03 
1.491700e-01 3.549044e+03 
1.503800e-01 3.505437e+03 
1.516400e-01 3.461364e+03 
1.528200e-01 3.422706e+03 
1.540200e-01 3.384146e+03 
1.551900e-01 3.348601e+03 
1.564300e-01 3.311970e+03 
1.576600e-01 3.277028e+03 
1.588700e-01 3.244136e+03 
1.600900e-01 3.211616e+03 
1.612700e-01 3.181232e+03 
1.625400e-01 3.149135e+03 
1.637600e-01 3.118983e+03 
1.649500e-01 3.090162e+03 
1.662200e-01 3.059865e+03 
1.674000e-01 3.031691e+03 
1.685000e-01 3.005863e+03 
1.697500e-01 2.976506e+03 
1.710300e-01 2.946486e+03 
1.722200e-01 2.919068e+03 
1.734400e-01 2.890334e+03 
1.746400e-01 2.862507e+03 
1.758700e-01 2.834194e+03 
1.770900e-01 2.806026e+03 
1.782700e-01 2.779237e+03 
1.794600e-01 2.752170e+03 
1.807000e-01 2.724107e+03 
1.819100e-01 2.697183e+03 
1.830100e-01 2.672740e+03 
1.842200e-01 2.646214e+03 
1.855000e-01 2.618633e+03 
1.867000e-01 2.593396e+03 
1.879200e-01 2.568150e+03 
1.890900e-01 2.544371e+03 
1.902800e-01 2.520817e+03 
1.915200e-01 2.496661e+03 
1.926900e-01 2.474336e+03 
1.939000e-01 2.451970e+03 
1.951700e-01 2.428864e+03 
1.963100e-01 2.408566e+03 
1.975100e-01 2.387850e+03 
1.987800e-01 2.366262e+03 
2.000100e-01 2.345802e+03 
2.012500e-01 2.325778e+03 
2.023400e-01 2.308426e+03 
2.036100e-01 2.288544e+03 
2.048900e-01 2.268991e+03 
2.060400e-01 2.251679e+03 
2.072200e-01 2.234173e+03 
2.084200e-01 2.216764e+03 
2.096900e-01 2.198607e+03 
2.109200e-01 2.181277e+03 
2.121100e-01 2.164746e+03 
2.132700e-01 2.148851e+03 
2.145200e-01 2.131958e+03 
2.157200e-01 2.115990e+03 
2.168800e-01 2.100770e+03 
2.180700e-01 2.085363e+03 
2.193400e-01 2.069171e+03 
2.206000e-01 2.053377e+03 
2.217500e-01 2.039154e+03 
2.229500e-01 2.024504e+03 
2.241400e-01 2.010293e+03 
2.253500e-01 1.996035e+03 
2.264900e-01 1.982773e+03 
2.277100e-01 1.968891e+03 
2.289900e-01 1.954665e+03 
2.301500e-01 1.941941e+03 
2.313600e-01 1.928836e+03 
2.325600e-01 1.916223e+03 
2.337700e-01 1.903664e+03 
2.350000e-01 1.891061e+03 
2.362000e-01 1.879052e+03 
2.374100e-01 1.867251e+03 
2.386500e-01 1.855310e+03 
2.399100e-01 1.843330e+03 
2.410400e-01 1.832833e+03 
2.422500e-01 1.821741e+03 
2.435000e-01 1.810424e+03 
2.447300e-01 1.799470e+03 
2.458700e-01 1.789614e+03 
2.470600e-01 1.779444e+03 
2.483300e-01 1.768723e+03 
2.495600e-01 1.758489e+03 
2.507600e-01 1.748654e+03 
2.519600e-01 1.738933e+03 
2.532200e-01 1.728849e+03 
2.543700e-01 1.719728e+03 
2.555500e-01 1.710459e+03 
2.568000e-01 1.700753e+03 
2.580100e-01 1.691468e+03 
2.592400e-01 1.682075e+03 
2.604100e-01 1.673213e+03 
2.616100e-01 1.664224e+03 
2.628400e-01 1.655116e+03 
2.640600e-01 1.646051e+03 
2.652200e-01 1.637473e+03 
2.664300e-01 1.628624e+03 
2.676500e-01 1.619800e+03 
2.688400e-01 1.611184e+03 
2.700700e-01 1.602310e+03 
2.712400e-01 1.593960e+03 
2.724800e-01 1.585207e+03 
2.736700e-01 1.576851e+03 
2.748800e-01 1.568397e+03 
2.761000e-01 1.559965e+03 
2.773200e-01 1.551623e+03 
2.785400e-01 1.543318e+03 
2.797000e-01 1.535390e+03 
2.808900e-01 1.527340e+03 
2.821400e-01 1.518974e+03 
2.833900e-01 1.510697e+03 
2.845500e-01 1.503076e+03 
2.857800e-01 1.495077e+03 
2.870300e-01 1.487034e+03 
2.882100e-01 1.479520e+03 
2.893900e-01 1.472012e+03 
2.906300e-01 1.464166e+03 
2.918900e-01 1.456277e+03 
2.930500e-01 1.449087e+03 
2.942500e-01 1.441727e+03 
2.954200e-01 1.434632e+03 
2.966500e-01 1.427248e+03 
2.978900e-01 1.419879e+03 
2.990400e-01 1.413111e+03 
3.002700e-01 1.405926e+03 
3.015100e-01 1.398745e+03 
3.026800e-01 1.392037e+03 
3.038500e-01 1.385391e+03 
3.050300e-01 1.378751e+03 
3.062600e-01 1.371832e+03 
3.075000e-01 1.364924e+03 
3.087000e-01 1.358305e+03 
3.099100e-01 1.351694e+03 
3.111200e-01 1.345173e+03 
3.123100e-01 1.338868e+03 
3.135300e-01 1.332465e+03 
3.147300e-01 1.326226e+03 
3.159900e-01 1.319738e+03 
3.171800e-01 1.313657e+03 
3.183700e-01 1.307625e+03 
3.196300e-01 1.301298e+03 
3.208400e-01 1.295280e+03 
3.220300e-01 1.289415e+03 
3.232000e-01 1.283690e+03 
3.244300e-01 1.277723e+03 
3.256700e-01 1.271763e+03 
3.269200e-01 1.265811e+03 
3.280800e-01 1.260337e+03 
3.292500e-01 1.254914e+03 
3.304800e-01 1.249278e+03 
3.317100e-01 1.243693e+03 
3.328900e-01 1.238382e+03 
3.340700e-01 1.233118e+03 
3.353600e-01 1.227402e+03 
3.365300e-01 1.222260e+03 
3.377100e-01 1.217118e+03 
3.389200e-01 1.211890e+03 
3.401600e-01 1.206581e+03 
3.413700e-01 1.201458e+03 
3.425300e-01 1.196597e+03 
3.437700e-01 1.191446e+03 
3.449800e-01 1.186463e+03 
3.461800e-01 1.181563e+03 
3.473600e-01 1.176801e+03 
3.485800e-01 1.171955e+03 
3.498100e-01 1.167111e+03 
3.510200e-01 1.162387e+03 
3.522000e-01 1.157817e+03 
3.533900e-01 1.153248e+03 
3.546400e-01 1.148469e+03 
3.558400e-01 1.143920e+03 
3.570600e-01 1.139333e+03 
3.582700e-01 1.134821e+03 
3.595000e-01 1.130273e+03 
3.607100e-01 1.125846e+03 
3.618900e-01 1.121572e+03 
3.631200e-01 1.117154e+03 
3.643200e-01 1.112878e+03 
3.655500e-01 1.108531e+03 
3.667300e-01 1.104395e+03 
3.679500e-01 1.100201e+03 
3.691900e-01 1.095973e+03 
3.703600e-01 1.092016e+03 
3.715700e-01 1.087956e+03 
3.727700e-01 1.083961e+03 
3.739900e-01 1.079925e+03 
3.752000e-01 1.075944e+03 
3.763900e-01 1.072059e+03 
3.775800e-01 1.068203e+03 
3.788200e-01 1.064218e+03 
3.800300e-01 1.060360e+03 
3.812100e-01 1.056625e+03 
3.824200e-01 1.052825e+03 
3.836100e-01 1.049117e+03 
3.848600e-01 1.045252e+03 
3.860400e-01 1.041631e+03 
3.872400e-01 1.037977e+03 
3.884600e-01 1.034288e+03 
3.896500e-01 1.030717e+03 
3.908700e-01 1.027083e+03 
3.920600e-01 1.023566e+03 
3.933100e-01 1.019899e+03 
3.945300e-01 1.016348e+03 
3.957200e-01 1.012915e+03 
3.969300e-01 1.009452e+03 
3.981700e-01 1.005930e+03 
3.993500e-01 1.002603e+03 
4.094840e-01 9.750168e+02 
4.272360e-01 9.303814e+02 
4.454600e-01 8.888580e+02 
4.630560e-01 8.521397e+02 
4.804610e-01 8.187515e+02 
4.980690e-01 7.876075e+02 
5.159230e-01 7.583328e+02 
5.317440e-01 7.342801e+02 
5.489640e-01 7.097265e+02 
5.671990e-01 6.856067e+02 
5.838690e-01 6.649661e+02 
6.018840e-01 6.441149e+02 
6.202330e-01 6.242545e+02 
6.379250e-01 6.062269e+02 
6.545410e-01 5.903435e+02 
6.714560e-01 5.750321e+02 
6.892080e-01 5.598108e+02 
7.066010e-01 5.456920e+02 
7.240540e-01 5.322667e+02 
7.420450e-01 5.190862e+02 
7.593780e-01 5.069938e+02 
7.764720e-01 4.956322e+02 
7.942840e-01 4.843111e+02 
8.116170e-01 4.737175e+02 
8.288310e-01 4.635941e+02 
8.462240e-01 4.537767e+02 
8.631980e-01 4.445908e+02 
8.810700e-01 4.352794e+02 
8.989410e-01 4.262719e+02 
9.166330e-01 4.176712e+02 
9.345640e-01 4.092276e+02 
9.515980e-01 4.014910e+02 
9.688720e-01 3.938960e+02 
9.865640e-01 3.863350e+02 
1.031870e+00 3.679700e+02 
1.063490e+00 3.559059e+02 
1.097920e+00 3.434915e+02 
1.134370e+00 3.310403e+02 
1.167730e+00 3.202093e+02 
1.203830e+00 3.090436e+02 
1.240470e+00 2.983261e+02 
1.275790e+00 2.884364e+02 
1.309140e+00 2.795552e+02 
1.342970e+00 2.709198e+02 
1.378420e+00 2.622977e+02 
1.413200e+00 2.541931e+02 
1.448110e+00 2.464072e+02 
1.484090e+00 2.387376e+02 
1.518820e+00 2.316824e+02 
1.552880e+00 2.249908e+02 
1.588630e+00 2.182876e+02 
1.623230e+00 2.120590e+02 
1.657720e+00 2.061083e+02 
1.692450e+00 2.003699e+02 
1.726400e+00 1.949224e+02 
1.762200e+00 1.894284e+02 
1.797880e+00 1.841677e+02 
1.833270e+00 1.791612e+02 
1.869070e+00 1.742913e+02 
1.903200e+00 1.698061e+02 
1.937740e+00 1.654359e+02 
1.973190e+00 1.611271e+02 
2.007440e+00 1.571090e+02 
2.042160e+00 1.531746e+02 
2.077900e+00 1.492651e+02 
2.112390e+00 1.456292e+02 
2.146220e+00 1.421886e+02 
2.181600e+00 1.386980e+02 
2.216930e+00 1.353406e+02 
2.250760e+00 1.322343e+02 
2.286500e+00 1.290579e+02 
2.321770e+00 1.260252e+02 
2.355950e+00 1.231774e+02 
2.391280e+00 1.203376e+02 
2.426240e+00 1.176207e+02 
2.460670e+00 1.150267e+02 
2.495640e+00 1.124690e+02 
2.531080e+00 1.099576e+02 
2.566220e+00 1.075417e+02 
2.600830e+00 1.052334e+02 
2.635080e+00 1.030166e+02 
2.670340e+00 1.008081e+02 
2.705970e+00 9.864551e+01 
2.740040e+00 9.663839e+01 
2.774520e+00 9.465764e+01 
2.809730e+00 9.270138e+01 
2.844390e+00 9.083436e+01 
2.879960e+00 8.896952e+01 
2.914860e+00 8.718925e+01 
2.949410e+00 8.547645e+01 
2.984440e+00 8.378689e+01 
3.019760e+00 8.212654e+01 
3.054730e+00 8.052711e+01 
3.089030e+00 7.900690e+01 
3.124060e+00 7.749568e+01 
3.159560e+00 7.600381e+01 
3.194710e+00 7.457105e+01 
3.229010e+00 7.321133e+01 
3.263320e+00 7.187319e+01 
3.297930e+00 7.056099e+01 
3.332830e+00 6.927573e+01 
3.368040e+00 6.801450e+01 
3.403300e+00 6.678573e+01 
3.438450e+00 6.558888e+01 
3.473060e+00 6.444020e+01 
3.508440e+00 6.329371e+01 
3.543110e+00 6.219855e+01 
3.577470e+00 6.113685e+01 
3.613040e+00 6.006627e+01 
3.648120e+00 5.903907e+01 
3.682910e+00 5.804364e+01 
3.718050e+00 5.705909e+01 
3.753320e+00 5.609703e+01 
3.787980e+00 5.517715e+01 
3.822290e+00 5.428615e+01 
3.857020e+00 5.340242e+01 
3.891920e+00 5.253611e+01 
3.926650e+00 5.169565e+01 
3.961970e+00 5.085995e+01 
3.997360e+00 5.003999e+01 
4.031670e+00 4.926366e+01 
4.066330e+00 4.849897e+01 
4.101420e+00 4.774209e+01 
4.136200e+00 4.700593e+01 
4.170810e+00 4.628951e+01 
4.206250e+00 4.557122e+01 
4.241580e+00 4.487086e+01 
4.276300e+00 4.420019e+01 
4.310970e+00 4.354624e+01 
4.346120e+00 4.289587e+01 
4.380600e+00 4.226888e+01 
4.414730e+00 4.166119e+01 
4.450350e+00 4.104403e+01 
4.485320e+00 4.045080e+01 
4.519810e+00 3.987530e+01 
4.555430e+00 3.929205e+01 
4.590870e+00 3.872516e+01 
4.625480e+00 3.818565e+01 
4.659910e+00 3.765954e+01 
4.695230e+00 3.712921e+01 
4.729960e+00 3.661786e+01 
4.764450e+00 3.612020e+01 
4.799530e+00 3.562435e+01 
4.834910e+00 3.513400e+01 
4.869700e+00 3.466137e+01 
4.904370e+00 3.419934e+01 
4.939450e+00 3.374092e+01 
4.973940e+00 3.329926e+01 
5.008430e+00 3.286575e+01 
5.043810e+00 3.242979e+01 
5.078840e+00 3.200644e+01 
5.113500e+00 3.159523e+01 
5.148890e+00 3.118331e+01 
5.184210e+00 3.077974e+01 
5.219060e+00 3.038876e+01 
5.253660e+00 3.000753e+01 
5.288570e+00 2.962969e+01 
5.323420e+00 2.926010e+01 
5.358440e+00 2.889629e+01 
5.393590e+00 2.853751e+01 
5.428310e+00 2.818867e+01 
5.462800e+00 2.784775e+01 
5.497640e+00 2.750923e+01 
5.532670e+00 2.717603e+01 
5.567280e+00 2.685281e+01 
5.602000e+00 2.653397e+01 
5.637270e+00 2.621554e+01 
5.672410e+00 2.590359e+01 
5.707020e+00 2.560142e+01 
5.742040e+00 2.530096e+01 
5.777430e+00 2.500237e+01 
5.812210e+00 2.471372e+01 
5.846820e+00 2.443150e+01 
5.881610e+00 2.415245e+01 
5.916510e+00 2.387698e+01 
5.951600e+00 2.360517e+01 
5.986560e+00 2.333899e+01 
6.021830e+00 2.307468e+01 
6.056490e+00 2.281889e+01 
6.091160e+00 2.256686e+01 
6.125830e+00 2.231869e+01 
6.161090e+00 2.207034e+01 
6.195760e+00 2.183020e+01 
6.230420e+00 2.159375e+01 
6.265690e+00 2.135683e+01 
6.300950e+00 2.112450e+01 
6.335620e+00 2.089948e+01 
6.370880e+00 2.067404e+01 
6.405550e+00 2.045550e+01 
6.440220e+00 2.024009e+01 
6.475480e+00 2.002423e+01 
6.510150e+00 1.981535e+01 
6.544810e+00 1.961010e+01 
6.580080e+00 1.940427e+01 
6.614750e+00 1.920485e+01 
6.649410e+00 1.900867e+01 
6.684080e+00 1.881529e+01 
6.719340e+00 1.862140e+01 
6.754010e+00 1.843339e+01 
6.788680e+00 1.824787e+01 
6.823940e+00 1.806184e+01 
6.859800e+00 1.787533e+01 
6.894470e+00 1.769804e+01 
6.929140e+00 1.752336e+01 
6.963800e+00 1.735111e+01 
6.999070e+00 1.717819e+01 
7.033730e+00 1.701016e+01 
7.068400e+00 1.684434e+01 
7.103660e+00 1.667797e+01 
7.138330e+00 1.651688e+01 
7.173600e+00 1.635582e+01 
7.208260e+00 1.619964e+01 
7.243530e+00 1.604281e+01 
7.277600e+00 1.589297e+01 
7.312860e+00 1.573960e+01 
7.348120e+00 1.558826e+01 
7.382790e+00 1.544139e+01 
7.417460e+00 1.529693e+01 
7.452720e+00 1.515218e+01 
7.487390e+00 1.501168e+01 
7.522650e+00 1.487062e+01 
7.557320e+00 1.473390e+01 
7.591990e+00 1.459897e+01 
7.627250e+00 1.446348e+01 
7.662510e+00 1.432971e+01 
7.697180e+00 1.419934e+01 
7.731850e+00 1.407041e+01 
7.766510e+00 1.394310e+01 
7.801180e+00 1.381732e+01 
7.836440e+00 1.369149e+01 
7.871110e+00 1.356960e+01 
7.906380e+00 1.344711e+01 
7.941040e+00 1.332821e+01 
7.976310e+00 1.320865e+01 
8.011570e+00 1.309053e+01 
8.046240e+00 1.297579e+01 
8.080900e+00 1.286245e+01 
8.115570e+00 1.275039e+01 
8.150830e+00 1.263765e+01 
8.185500e+00 1.252812e+01 
8.220770e+00 1.241801e+01 
8.255430e+00 1.231108e+01 
8.290100e+00 1.220566e+01 
8.324770e+00 1.210149e+01 
8.359430e+00 1.199855e+01 
8.394700e+00 1.189501e+01 
8.429960e+00 1.179266e+01 
8.464630e+00 1.169312e+01 
8.499890e+00 1.159305e+01 
8.534560e+00 1.149577e+01 
8.569200e+00 1.139968e+01 
