# Parameters:
# omega_b = 0.021925, omega_m = 0.146732, n_s = 0.983858, h = 60.669291, w = -1.000000, sigma_8 = 0.704724
# z = 0.300000
#
# k[1/Mpc] # P(k):
8.694000e-04 7.862073e+03 
2.077466e-03 1.715587e+04 
3.285532e-03 2.461167e+04 
4.493598e-03 3.048598e+04 
5.701664e-03 3.498491e+04 
6.909730e-03 3.829690e+04 
8.117797e-03 4.065486e+04 
9.325863e-03 4.218061e+04 
1.053393e-02 4.300491e+04 
1.174199e-02 4.325399e+04 
1.295006e-02 4.300579e+04 
1.415813e-02 4.236653e+04 
1.536619e-02 4.142951e+04 
1.657426e-02 4.025611e+04 
1.778233e-02 3.891220e+04 
1.899039e-02 3.752122e+04 
2.019846e-02 3.611393e+04 
2.140652e-02 3.469018e+04 
2.261459e-02 3.326660e+04 
2.382266e-02 3.187921e+04 
2.503072e-02 3.055416e+04 
2.623879e-02 2.930175e+04 
2.744685e-02 2.812510e+04 
2.865492e-02 2.703403e+04 
2.986299e-02 2.602849e+04 
3.100100e-02 2.515840e+04 
3.220400e-02 2.431750e+04 
3.288100e-02 2.387947e+04 
3.424300e-02 2.306875e+04 
3.555100e-02 2.236923e+04 
3.686000e-02 2.173920e+04 
3.795000e-02 2.126002e+04 
3.929100e-02 2.072144e+04 
4.039800e-02 2.030933e+04 
4.164000e-02 1.987434e+04 
4.294400e-02 1.943797e+04 
4.415000e-02 1.904869e+04 
4.542900e-02 1.863740e+04 
4.660900e-02 1.826280e+04 
4.782300e-02 1.786450e+04 
4.892900e-02 1.749652e+04 
5.031200e-02 1.702468e+04 
5.155900e-02 1.658471e+04 
5.238100e-02 1.628783e+04 
5.378200e-02 1.577495e+04 
5.513400e-02 1.526865e+04 
5.627600e-02 1.483529e+04 
5.735300e-02 1.442734e+04 
5.870100e-02 1.392214e+04 
5.988700e-02 1.348562e+04 
6.113500e-02 1.303795e+04 
6.225900e-02 1.264622e+04 
6.340100e-02 1.226589e+04 
6.480200e-02 1.182351e+04 
6.601100e-02 1.146509e+04 
6.725500e-02 1.112044e+04 
6.829100e-02 1.085479e+04 
6.958600e-02 1.054706e+04 
7.071100e-02 1.030307e+04 
7.192300e-02 1.006162e+04 
7.307400e-02 9.851688e+03 
7.412300e-02 9.675945e+03 
7.550400e-02 9.467232e+03 
7.663100e-02 9.310720e+03 
7.791200e-02 9.149383e+03 
7.912700e-02 9.007444e+03 
8.027600e-02 8.881815e+03 
8.138400e-02 8.765971e+03 
8.272200e-02 8.630567e+03 
8.406100e-02 8.498244e+03 
8.534100e-02 8.371037e+03 
8.653800e-02 8.251005e+03 
8.759800e-02 8.143286e+03 
8.900300e-02 7.996718e+03 
9.009000e-02 7.879154e+03 
9.113300e-02 7.763173e+03 
9.239600e-02 7.621221e+03 
9.358000e-02 7.485092e+03 
9.496100e-02 7.321653e+03 
9.608400e-02 7.188353e+03 
9.727500e-02 7.047703e+03 
9.852600e-02 6.897949e+03 
9.973800e-02 6.755506e+03 
1.009000e-01 6.621493e+03 
1.020900e-01 6.486919e+03 
1.034000e-01 6.343566e+03 
1.046000e-01 6.216583e+03 
1.057200e-01 6.102910e+03 
1.069100e-01 5.986552e+03 
1.082500e-01 5.863478e+03 
1.093900e-01 5.764309e+03 
1.105400e-01 5.668350e+03 
1.116900e-01 5.579461e+03 
1.129600e-01 5.485504e+03 
1.142000e-01 5.400311e+03 
1.153300e-01 5.326442e+03 
1.166400e-01 5.245787e+03 
1.177800e-01 5.179613e+03 
1.190000e-01 5.111555e+03 
1.201200e-01 5.052212e+03 
1.213400e-01 4.989388e+03 
1.227100e-01 4.922160e+03 
1.238900e-01 4.865721e+03 
1.250700e-01 4.810479e+03 
1.263200e-01 4.752927e+03 
1.275500e-01 4.696732e+03 
1.287500e-01 4.642627e+03 
1.299900e-01 4.587139e+03 
1.311300e-01 4.536168e+03 
1.323500e-01 4.481166e+03 
1.335900e-01 4.425458e+03 
1.347100e-01 4.374813e+03 
1.359800e-01 4.317726e+03 
1.372100e-01 4.261871e+03 
1.384300e-01 4.206987e+03 
1.395700e-01 4.155110e+03 
1.407700e-01 4.101473e+03 
1.420300e-01 4.044697e+03 
1.432800e-01 3.989613e+03 
1.444500e-01 3.938020e+03 
1.456300e-01 3.887049e+03 
1.468900e-01 3.833918e+03 
1.480500e-01 3.786060e+03 
1.491700e-01 3.741003e+03 
1.503800e-01 3.693607e+03 
1.516400e-01 3.645548e+03 
1.528200e-01 3.602678e+03 
1.540200e-01 3.559925e+03 
1.551900e-01 3.520226e+03 
1.564300e-01 3.479248e+03 
1.576600e-01 3.440216e+03 
1.588700e-01 3.403540e+03 
1.600900e-01 3.367309e+03 
1.612700e-01 3.333912e+03 
1.625400e-01 3.298634e+03 
1.637600e-01 3.265923e+03 
1.649500e-01 3.234908e+03 
1.662200e-01 3.202420e+03 
1.674000e-01 3.172840e+03 
1.685000e-01 3.145724e+03 
1.697500e-01 3.115242e+03 
1.710300e-01 3.084406e+03 
1.722200e-01 3.056241e+03 
1.734400e-01 3.027199e+03 
1.746400e-01 2.999093e+03 
1.758700e-01 2.970575e+03 
1.770900e-01 2.942368e+03 
1.782700e-01 2.915538e+03 
1.794600e-01 2.888456e+03 
1.807000e-01 2.860391e+03 
1.819100e-01 2.833461e+03 
1.830100e-01 2.808901e+03 
1.842200e-01 2.782225e+03 
1.855000e-01 2.754474e+03 
1.867000e-01 2.728849e+03 
1.879200e-01 2.703214e+03 
1.890900e-01 2.679019e+03 
1.902800e-01 2.654816e+03 
1.915200e-01 2.629992e+03 
1.926900e-01 2.606988e+03 
1.939000e-01 2.583738e+03 
1.951700e-01 2.559718e+03 
1.963100e-01 2.538563e+03 
1.975100e-01 2.516827e+03 
1.987800e-01 2.494176e+03 
2.000100e-01 2.472677e+03 
2.012500e-01 2.451565e+03 
2.023400e-01 2.433270e+03 
2.036100e-01 2.412301e+03 
2.048900e-01 2.391656e+03 
2.060400e-01 2.373376e+03 
2.072200e-01 2.354894e+03 
2.084200e-01 2.336538e+03 
2.096900e-01 2.317392e+03 
2.109200e-01 2.299119e+03 
2.121100e-01 2.281727e+03 
2.132700e-01 2.265005e+03 
2.145200e-01 2.247235e+03 
2.157200e-01 2.230420e+03 
2.168800e-01 2.214387e+03 
2.180700e-01 2.198157e+03 
2.193400e-01 2.181062e+03 
2.206000e-01 2.164317e+03 
2.217500e-01 2.149237e+03 
2.229500e-01 2.133706e+03 
2.241400e-01 2.118456e+03 
2.253500e-01 2.103151e+03 
2.264900e-01 2.088915e+03 
2.277100e-01 2.073875e+03 
2.289900e-01 2.058309e+03 
2.301500e-01 2.044386e+03 
2.313600e-01 2.030045e+03 
2.325600e-01 2.015912e+03 
2.337700e-01 2.001841e+03 
2.350000e-01 1.987721e+03 
2.362000e-01 1.974122e+03 
2.374100e-01 1.960583e+03 
2.386500e-01 1.946884e+03 
2.399100e-01 1.933142e+03 
2.410400e-01 1.920916e+03 
2.422500e-01 1.907974e+03 
2.435000e-01 1.894770e+03 
2.447300e-01 1.881963e+03 
2.458700e-01 1.870329e+03 
2.470600e-01 1.858326e+03 
2.483300e-01 1.845673e+03 
2.495600e-01 1.833600e+03 
2.507600e-01 1.822004e+03 
2.519600e-01 1.810545e+03 
2.532200e-01 1.798656e+03 
2.543700e-01 1.787978e+03 
2.555500e-01 1.777176e+03 
2.568000e-01 1.765866e+03 
2.580100e-01 1.755046e+03 
2.592400e-01 1.744240e+03 
2.604100e-01 1.734106e+03 
2.616100e-01 1.723827e+03 
2.628400e-01 1.713411e+03 
2.640600e-01 1.703207e+03 
2.652200e-01 1.693617e+03 
2.664300e-01 1.683722e+03 
2.676500e-01 1.673856e+03 
2.688400e-01 1.664350e+03 
2.700700e-01 1.654640e+03 
2.712400e-01 1.645504e+03 
2.724800e-01 1.635925e+03 
2.736700e-01 1.626863e+03 
2.748800e-01 1.617779e+03 
2.761000e-01 1.608718e+03 
2.773200e-01 1.599755e+03 
2.785400e-01 1.590866e+03 
2.797000e-01 1.582458e+03 
2.808900e-01 1.573921e+03 
2.821400e-01 1.565049e+03 
2.833900e-01 1.556274e+03 
2.845500e-01 1.548260e+03 
2.857800e-01 1.539849e+03 
2.870300e-01 1.531391e+03 
2.882100e-01 1.523490e+03 
2.893900e-01 1.515618e+03 
2.906300e-01 1.507403e+03 
2.918900e-01 1.499144e+03 
2.930500e-01 1.491617e+03 
2.942500e-01 1.483914e+03 
2.954200e-01 1.476501e+03 
2.966500e-01 1.468785e+03 
2.978900e-01 1.461085e+03 
2.990400e-01 1.454014e+03 
3.002700e-01 1.446510e+03 
3.015100e-01 1.439014e+03 
3.026800e-01 1.432011e+03 
3.038500e-01 1.425073e+03 
3.050300e-01 1.418140e+03 
3.062600e-01 1.410911e+03 
3.075000e-01 1.403695e+03 
3.087000e-01 1.396780e+03 
3.099100e-01 1.389873e+03 
3.111200e-01 1.383060e+03 
3.123100e-01 1.376471e+03 
3.135300e-01 1.369780e+03 
3.147300e-01 1.363261e+03 
3.159900e-01 1.356481e+03 
3.171800e-01 1.350128e+03 
3.183700e-01 1.343827e+03 
3.196300e-01 1.337218e+03 
3.208400e-01 1.330931e+03 
3.220300e-01 1.324805e+03 
3.232000e-01 1.318824e+03 
3.244300e-01 1.312590e+03 
3.256700e-01 1.306364e+03 
3.269200e-01 1.300146e+03 
3.280800e-01 1.294427e+03 
3.292500e-01 1.288767e+03 
3.304800e-01 1.282886e+03 
3.317100e-01 1.277059e+03 
3.328900e-01 1.271518e+03 
3.340700e-01 1.266026e+03 
3.353600e-01 1.260066e+03 
3.365300e-01 1.254706e+03 
3.377100e-01 1.249346e+03 
3.389200e-01 1.243897e+03 
3.401600e-01 1.238363e+03 
3.413700e-01 1.233026e+03 
3.425300e-01 1.227965e+03 
3.437700e-01 1.222600e+03 
3.449800e-01 1.217411e+03 
3.461800e-01 1.212309e+03 
3.473600e-01 1.207354e+03 
3.485800e-01 1.202324e+03 
3.498100e-01 1.197296e+03 
3.510200e-01 1.192393e+03 
3.522000e-01 1.187650e+03 
3.533900e-01 1.182907e+03 
3.546400e-01 1.177957e+03 
3.558400e-01 1.173246e+03 
3.570600e-01 1.168495e+03 
3.582700e-01 1.163823e+03 
3.595000e-01 1.159113e+03 
3.607100e-01 1.154534e+03 
3.618900e-01 1.150116e+03 
3.631200e-01 1.145548e+03 
3.643200e-01 1.141129e+03 
3.655500e-01 1.136636e+03 
3.667300e-01 1.132360e+03 
3.679500e-01 1.128036e+03 
3.691900e-01 1.123677e+03 
3.703600e-01 1.119598e+03 
3.715700e-01 1.115412e+03 
3.727700e-01 1.111293e+03 
3.739900e-01 1.107134e+03 
3.752000e-01 1.103034e+03 
3.763900e-01 1.099033e+03 
3.775800e-01 1.095063e+03 
3.788200e-01 1.090959e+03 
3.800300e-01 1.086985e+03 
3.812100e-01 1.083145e+03 
3.824200e-01 1.079241e+03 
3.836100e-01 1.075431e+03 
3.848600e-01 1.071460e+03 
3.860400e-01 1.067741e+03 
3.872400e-01 1.063986e+03 
3.884600e-01 1.060201e+03 
3.896500e-01 1.056538e+03 
3.908700e-01 1.052811e+03 
3.920600e-01 1.049204e+03 
3.933100e-01 1.045443e+03 
3.945300e-01 1.041800e+03 
3.957200e-01 1.038279e+03 
3.969300e-01 1.034728e+03 
3.981700e-01 1.031115e+03 
3.993500e-01 1.027703e+03 
4.094840e-01 9.994328e+02 
4.272360e-01 9.536421e+02 
4.454600e-01 9.109700e+02 
4.630560e-01 8.731203e+02 
4.804610e-01 8.386128e+02 
4.980690e-01 8.063333e+02 
5.159230e-01 7.759569e+02 
5.317440e-01 7.509805e+02 
5.489640e-01 7.254954e+02 
5.671990e-01 7.004721e+02 
5.838690e-01 6.790843e+02 
6.018840e-01 6.575094e+02 
6.202330e-01 6.369967e+02 
6.379250e-01 6.183916e+02 
6.545410e-01 6.020235e+02 
6.714560e-01 5.862523e+02 
6.892080e-01 5.705830e+02 
7.066010e-01 5.560492e+02 
7.240540e-01 5.422221e+02 
7.420450e-01 5.286388e+02 
7.593780e-01 5.161647e+02 
7.764720e-01 5.044279e+02 
7.942840e-01 4.927212e+02 
8.116170e-01 4.817490e+02 
8.288310e-01 4.712392e+02 
8.462240e-01 4.610255e+02 
8.631980e-01 4.514570e+02 
8.810700e-01 4.417373e+02 
8.989410e-01 4.323188e+02 
9.166330e-01 4.233074e+02 
9.345640e-01 4.144415e+02 
9.515980e-01 4.063062e+02 
9.688720e-01 3.983054e+02 
9.865640e-01 3.903236e+02 
1.031870e+00 3.709107e+02 
1.063490e+00 3.581307e+02 
1.097920e+00 3.449528e+02 
1.134370e+00 3.317242e+02 
1.167730e+00 3.202091e+02 
1.203830e+00 3.083366e+02 
1.240470e+00 2.969419e+02 
1.275790e+00 2.864367e+02 
1.309140e+00 2.770066e+02 
1.342970e+00 2.678474e+02 
1.378420e+00 2.587118e+02 
1.413200e+00 2.501382e+02 
1.448110e+00 2.419182e+02 
1.484090e+00 2.338321e+02 
1.518820e+00 2.264081e+02 
1.552880e+00 2.193827e+02 
1.588630e+00 2.123572e+02 
1.623230e+00 2.058452e+02 
1.657720e+00 1.996354e+02 
1.692450e+00 1.936574e+02 
1.726400e+00 1.880004e+02 
1.762200e+00 1.823057e+02 
1.797880e+00 1.768640e+02 
1.833270e+00 1.716973e+02 
1.869070e+00 1.666839e+02 
1.903200e+00 1.620775e+02 
1.937740e+00 1.575982e+02 
1.973190e+00 1.531905e+02 
2.007440e+00 1.490902e+02 
2.042160e+00 1.450848e+02 
2.077900e+00 1.411137e+02 
2.112390e+00 1.374273e+02 
2.146220e+00 1.339470e+02 
2.181600e+00 1.304245e+02 
2.216930e+00 1.270433e+02 
2.250760e+00 1.239212e+02 
2.286500e+00 1.207353e+02 
2.321770e+00 1.177000e+02 
2.355950e+00 1.148557e+02 
2.391280e+00 1.120252e+02 
2.426240e+00 1.093222e+02 
2.460670e+00 1.067465e+02 
2.495640e+00 1.042119e+02 
2.531080e+00 1.017290e+02 
2.566220e+00 9.934521e+01 
2.600830e+00 9.707167e+01 
2.635080e+00 9.489185e+01 
2.670340e+00 9.272480e+01 
2.705970e+00 9.060642e+01 
2.740040e+00 8.864357e+01 
2.774520e+00 8.671050e+01 
2.809730e+00 8.480444e+01 
2.844390e+00 8.298792e+01 
2.879960e+00 8.117706e+01 
2.914860e+00 7.945182e+01 
2.949410e+00 7.779429e+01 
2.984440e+00 7.616231e+01 
3.019760e+00 7.456138e+01 
3.054730e+00 7.302128e+01 
3.089030e+00 7.156024e+01 
3.124060e+00 7.010973e+01 
3.159560e+00 6.868015e+01 
3.194710e+00 6.730941e+01 
3.229010e+00 6.600989e+01 
3.263320e+00 6.473420e+01 
3.297930e+00 6.348447e+01 
3.332830e+00 6.226215e+01 
3.368040e+00 6.106433e+01 
3.403300e+00 5.989872e+01 
3.438450e+00 5.876550e+01 
3.473060e+00 5.767882e+01 
3.508440e+00 5.659659e+01 
3.543110e+00 5.556364e+01 
3.577470e+00 5.456419e+01 
3.613040e+00 5.355720e+01 
3.648120e+00 5.259236e+01 
3.682910e+00 5.165842e+01 
3.718050e+00 5.073628e+01 
3.753320e+00 4.983603e+01 
3.787980e+00 4.897621e+01 
3.822290e+00 4.814437e+01 
3.857020e+00 4.732061e+01 
3.891920e+00 4.651379e+01 
3.926650e+00 4.573199e+01 
3.961970e+00 4.495533e+01 
3.997360e+00 4.419455e+01 
4.031670e+00 4.347474e+01 
4.066330e+00 4.276674e+01 
4.101420e+00 4.206631e+01 
4.136200e+00 4.138636e+01 
4.170810e+00 4.072493e+01 
4.206250e+00 4.006283e+01 
4.241580e+00 3.941768e+01 
4.276300e+00 3.880056e+01 
4.310970e+00 3.819932e+01 
4.346120e+00 3.760194e+01 
4.380600e+00 3.702684e+01 
4.414730e+00 3.646968e+01 
4.450350e+00 3.590462e+01 
4.485320e+00 3.536170e+01 
4.519810e+00 3.483579e+01 
4.555430e+00 3.430328e+01 
4.590870e+00 3.378603e+01 
4.625480e+00 3.329419e+01 
4.659910e+00 3.281476e+01 
4.695230e+00 3.233228e+01 
4.729960e+00 3.186732e+01 
4.764450e+00 3.141517e+01 
4.799530e+00 3.096514e+01 
4.834910e+00 3.052026e+01 
4.869700e+00 3.009201e+01 
4.904370e+00 2.967358e+01 
4.939450e+00 2.925869e+01 
4.973940e+00 2.885947e+01 
5.008430e+00 2.846774e+01 
5.043810e+00 2.807418e+01 
5.078840e+00 2.769228e+01 
5.113500e+00 2.732145e+01 
5.148890e+00 2.695052e+01 
5.184210e+00 2.658725e+01 
5.219060e+00 2.623552e+01 
5.253660e+00 2.589297e+01 
5.288570e+00 2.555357e+01 
5.323420e+00 2.522183e+01 
5.358440e+00 2.489553e+01 
5.393590e+00 2.457385e+01 
5.428310e+00 2.426143e+01 
5.462800e+00 2.395631e+01 
5.497640e+00 2.365342e+01 
5.532670e+00 2.335557e+01 
5.567280e+00 2.306679e+01 
5.602000e+00 2.278200e+01 
5.637270e+00 2.249792e+01 
5.672410e+00 2.221977e+01 
5.707020e+00 2.195042e+01 
5.742040e+00 2.168291e+01 
5.777430e+00 2.141719e+01 
5.812210e+00 2.116039e+01 
5.846820e+00 2.090957e+01 
5.881610e+00 2.066169e+01 
5.916510e+00 2.041705e+01 
5.951600e+00 2.017588e+01 
5.986560e+00 1.993984e+01 
6.021830e+00 1.970553e+01 
6.056490e+00 1.947896e+01 
6.091160e+00 1.925591e+01 
6.125830e+00 1.903634e+01 
6.161090e+00 1.881672e+01 
6.195760e+00 1.860455e+01 
6.230420e+00 1.839570e+01 
6.265690e+00 1.818648e+01 
6.300950e+00 1.798158e+01 
6.335620e+00 1.778317e+01 
6.370880e+00 1.758444e+01 
6.405550e+00 1.739199e+01 
6.440220e+00 1.720241e+01 
6.475480e+00 1.701248e+01 
6.510150e+00 1.682879e+01 
6.544810e+00 1.664847e+01 
6.580080e+00 1.646767e+01 
6.614750e+00 1.629255e+01 
6.649410e+00 1.612047e+01 
6.684080e+00 1.595091e+01 
6.719340e+00 1.578094e+01 
6.754010e+00 1.561622e+01 
6.788680e+00 1.545386e+01 
6.823940e+00 1.529109e+01 
6.859800e+00 1.512792e+01 
6.894470e+00 1.497298e+01 
6.929140e+00 1.482039e+01 
6.963800e+00 1.466995e+01 
6.999070e+00 1.451897e+01 
7.033730e+00 1.437248e+01 
7.068400e+00 1.422794e+01 
7.103660e+00 1.408296e+01 
7.138330e+00 1.394265e+01 
7.173600e+00 1.380249e+01 
7.208260e+00 1.366661e+01 
7.243530e+00 1.353019e+01 
7.277600e+00 1.339997e+01 
7.312860e+00 1.326679e+01 
7.348120e+00 1.313539e+01 
7.382790e+00 1.300791e+01 
7.417460e+00 1.288263e+01 
7.452720e+00 1.275718e+01 
7.487390e+00 1.263543e+01 
7.522650e+00 1.251322e+01 
7.557320e+00 1.239489e+01 
7.591990e+00 1.227818e+01 
7.627250e+00 1.216100e+01 
7.662510e+00 1.204533e+01 
7.697180e+00 1.193274e+01 
7.731850e+00 1.182145e+01 
7.766510e+00 1.171159e+01 
7.801180e+00 1.160306e+01 
7.836440e+00 1.149459e+01 
7.871110e+00 1.138958e+01 
7.906380e+00 1.128408e+01 
7.941040e+00 1.118167e+01 
7.976310e+00 1.107879e+01 
8.011570e+00 1.097724e+01 
8.046240e+00 1.087861e+01 
8.080900e+00 1.078119e+01 
8.115570e+00 1.068492e+01 
8.150830e+00 1.058819e+01 
8.185500e+00 1.049422e+01 
8.220770e+00 1.039976e+01 
8.255430e+00 1.030805e+01 
8.290100e+00 1.021776e+01 
8.324770e+00 1.012857e+01 
8.359430e+00 1.004045e+01 
8.394700e+00 9.951821e+00 
8.429960e+00 9.864284e+00 
8.464630e+00 9.779231e+00 
8.499890e+00 9.693733e+00 
8.534560e+00 9.610637e+00 
8.569200e+00 9.528559e+00 
