# Parameters:
# omega_b = 0.023406, omega_m = 0.124685, n_s = 1.034252, h = 59.724409, w = -1.000000, sigma_8 = 0.865354
# z = 0.300000
#
# k[1/Mpc] # P(k):
8.694000e-04 1.645245e+04 
2.077466e-03 3.686897e+04 
3.285532e-03 5.323190e+04 
4.493598e-03 6.589629e+04 
5.701664e-03 7.525775e+04 
6.909730e-03 8.180520e+04 
8.117797e-03 8.613628e+04 
9.325863e-03 8.855670e+04 
1.053393e-02 8.938125e+04 
1.174199e-02 8.890628e+04 
1.295006e-02 8.732700e+04 
1.415813e-02 8.491064e+04 
1.536619e-02 8.188929e+04 
1.657426e-02 7.838245e+04 
1.778233e-02 7.445061e+04 
1.899039e-02 7.055109e+04 
2.019846e-02 6.699603e+04 
2.140652e-02 6.367762e+04 
2.261459e-02 6.049979e+04 
2.382266e-02 5.749844e+04 
2.503072e-02 5.471459e+04 
2.623879e-02 5.215815e+04 
2.744685e-02 4.983353e+04 
2.865492e-02 4.773794e+04 
2.986299e-02 4.585804e+04 
3.100100e-02 4.427490e+04 
3.220400e-02 4.277943e+04 
3.288100e-02 4.201377e+04 
3.424300e-02 4.061367e+04 
3.555100e-02 3.941517e+04 
3.686000e-02 3.833497e+04 
3.795000e-02 3.750600e+04 
3.929100e-02 3.655353e+04 
4.039800e-02 3.580432e+04 
4.164000e-02 3.499155e+04 
4.294400e-02 3.414143e+04 
4.415000e-02 3.336397e+04 
4.542900e-02 3.251978e+04 
4.660900e-02 3.174118e+04 
4.782300e-02 3.090807e+04 
4.892900e-02 3.014200e+04 
5.031200e-02 2.917029e+04 
5.155900e-02 2.828187e+04 
5.238100e-02 2.769364e+04 
5.378200e-02 2.669736e+04 
5.513400e-02 2.574307e+04 
5.627600e-02 2.494852e+04 
5.735300e-02 2.421748e+04 
5.870100e-02 2.333359e+04 
5.988700e-02 2.258654e+04 
6.113500e-02 2.183536e+04 
6.225900e-02 2.119008e+04 
6.340100e-02 2.057291e+04 
6.480200e-02 1.986358e+04 
6.601100e-02 1.929615e+04 
6.725500e-02 1.875488e+04 
6.829100e-02 1.834049e+04 
6.958600e-02 1.786185e+04 
7.071100e-02 1.748311e+04 
7.192300e-02 1.710824e+04 
7.307400e-02 1.678162e+04 
7.412300e-02 1.650726e+04 
7.550400e-02 1.617928e+04 
7.663100e-02 1.593143e+04 
7.791200e-02 1.567212e+04 
7.912700e-02 1.543961e+04 
8.027600e-02 1.522989e+04 
8.138400e-02 1.503281e+04 
8.272200e-02 1.479695e+04 
8.406100e-02 1.456030e+04 
8.534100e-02 1.432606e+04 
8.653800e-02 1.409986e+04 
8.759800e-02 1.389428e+04 
8.900300e-02 1.361139e+04 
9.009000e-02 1.338285e+04 
9.113300e-02 1.315717e+04 
9.239600e-02 1.288162e+04 
9.358000e-02 1.261921e+04 
9.496100e-02 1.230949e+04 
9.608400e-02 1.206092e+04 
9.727500e-02 1.180203e+04 
9.852600e-02 1.153659e+04 
9.973800e-02 1.128926e+04 
1.009000e-01 1.106078e+04 
1.020900e-01 1.084206e+04 
1.034000e-01 1.061374e+04 
1.046000e-01 1.041635e+04 
1.057200e-01 1.024676e+04 
1.069100e-01 1.007535e+04 
1.082500e-01 9.900105e+03 
1.093900e-01 9.761250e+03 
1.105400e-01 9.628260e+03 
1.116900e-01 9.506673e+03 
1.129600e-01 9.378209e+03 
1.142000e-01 9.260917e+03 
1.153300e-01 9.157907e+03 
1.166400e-01 9.043391e+03 
1.177800e-01 8.945917e+03 
1.190000e-01 8.843971e+03 
1.201200e-01 8.749464e+03 
1.213400e-01 8.648384e+03 
1.227100e-01 8.531964e+03 
1.238900e-01 8.432668e+03 
1.250700e-01 8.330536e+03 
1.263200e-01 8.222762e+03 
1.275500e-01 8.114501e+03 
1.287500e-01 8.009624e+03 
1.299900e-01 7.901055e+03 
1.311300e-01 7.801967e+03 
1.323500e-01 7.695992e+03 
1.335900e-01 7.590336e+03 
1.347100e-01 7.496443e+03 
1.359800e-01 7.392530e+03 
1.372100e-01 7.294620e+03 
1.384300e-01 7.200121e+03 
1.395700e-01 7.114811e+03 
1.407700e-01 7.027098e+03 
1.420300e-01 6.939390e+03 
1.432800e-01 6.854260e+03 
1.444500e-01 6.778558e+03 
1.456300e-01 6.703724e+03 
1.468900e-01 6.627410e+03 
1.480500e-01 6.559145e+03 
1.491700e-01 6.495044e+03 
1.503800e-01 6.427842e+03 
1.516400e-01 6.359451e+03 
1.528200e-01 6.297496e+03 
1.540200e-01 6.235682e+03 
1.551900e-01 6.176436e+03 
1.564300e-01 6.114805e+03 
1.576600e-01 6.054864e+03 
1.588700e-01 5.997031e+03 
1.600900e-01 5.939747e+03 
1.612700e-01 5.884321e+03 
1.625400e-01 5.825768e+03 
1.637600e-01 5.770187e+03 
1.649500e-01 5.716719e+03 
1.662200e-01 5.660545e+03 
1.674000e-01 5.608470e+03 
1.685000e-01 5.560731e+03 
1.697500e-01 5.507020e+03 
1.710300e-01 5.452637e+03 
1.722200e-01 5.402967e+03 
1.734400e-01 5.352448e+03 
1.746400e-01 5.303584e+03 
1.758700e-01 5.254399e+03 
1.770900e-01 5.206550e+03 
1.782700e-01 5.161034e+03 
1.794600e-01 5.115868e+03 
1.807000e-01 5.069575e+03 
1.819100e-01 5.025147e+03 
1.830100e-01 4.985569e+03 
1.842200e-01 4.942734e+03 
1.855000e-01 4.898204e+03 
1.867000e-01 4.858005e+03 
1.879200e-01 4.817780e+03 
1.890900e-01 4.779900e+03 
1.902800e-01 4.742474e+03 
1.915200e-01 4.704080e+03 
1.926900e-01 4.668546e+03 
1.939000e-01 4.632803e+03 
1.951700e-01 4.595870e+03 
1.963100e-01 4.563315e+03 
1.975100e-01 4.529806e+03 
1.987800e-01 4.494881e+03 
2.000100e-01 4.461637e+03 
2.012500e-01 4.428772e+03 
2.023400e-01 4.400289e+03 
2.036100e-01 4.367537e+03 
2.048900e-01 4.334890e+03 
2.060400e-01 4.305983e+03 
2.072200e-01 4.276710e+03 
2.084200e-01 4.247126e+03 
2.096900e-01 4.216267e+03 
2.109200e-01 4.186814e+03 
2.121100e-01 4.158208e+03 
2.132700e-01 4.130672e+03 
2.145200e-01 4.101408e+03 
2.157200e-01 4.073305e+03 
2.168800e-01 4.046315e+03 
2.180700e-01 4.018993e+03 
2.193400e-01 3.989972e+03 
2.206000e-01 3.961096e+03 
2.217500e-01 3.935091e+03 
2.229500e-01 3.908305e+03 
2.241400e-01 3.881341e+03 
2.253500e-01 3.854262e+03 
2.264900e-01 3.829074e+03 
2.277100e-01 3.802111e+03 
2.289900e-01 3.773813e+03 
2.301500e-01 3.748501e+03 
2.313600e-01 3.722423e+03 
2.325600e-01 3.696036e+03 
2.337700e-01 3.669768e+03 
2.350000e-01 3.643407e+03 
2.362000e-01 3.617754e+03 
2.374100e-01 3.591903e+03 
2.386500e-01 3.565748e+03 
2.399100e-01 3.539512e+03 
2.410400e-01 3.515847e+03 
2.422500e-01 3.490755e+03 
2.435000e-01 3.465158e+03 
2.447300e-01 3.440309e+03 
2.458700e-01 3.417639e+03 
2.470600e-01 3.394251e+03 
2.483300e-01 3.369596e+03 
2.495600e-01 3.346142e+03 
2.507600e-01 3.323710e+03 
2.519600e-01 3.301542e+03 
2.532200e-01 3.278544e+03 
2.543700e-01 3.258114e+03 
2.555500e-01 3.237599e+03 
2.568000e-01 3.216120e+03 
2.580100e-01 3.195573e+03 
2.592400e-01 3.175433e+03 
2.604100e-01 3.156713e+03 
2.616100e-01 3.137727e+03 
2.628400e-01 3.118487e+03 
2.640600e-01 3.100068e+03 
2.652200e-01 3.082925e+03 
2.664300e-01 3.065237e+03 
2.676500e-01 3.047601e+03 
2.688400e-01 3.030948e+03 
2.700700e-01 3.014149e+03 
2.712400e-01 2.998343e+03 
2.724800e-01 2.981772e+03 
2.736700e-01 2.966314e+03 
2.748800e-01 2.951043e+03 
2.761000e-01 2.935812e+03 
2.773200e-01 2.920745e+03 
2.785400e-01 2.905904e+03 
2.797000e-01 2.892073e+03 
2.808900e-01 2.878029e+03 
2.821400e-01 2.863434e+03 
2.833900e-01 2.849009e+03 
2.845500e-01 2.836035e+03 
2.857800e-01 2.822420e+03 
2.870300e-01 2.808730e+03 
2.882100e-01 2.795940e+03 
2.893900e-01 2.783272e+03 
2.906300e-01 2.770092e+03 
2.918900e-01 2.756840e+03 
2.930500e-01 2.744765e+03 
2.942500e-01 2.732423e+03 
2.954200e-01 2.720599e+03 
2.966500e-01 2.708292e+03 
2.978900e-01 2.696012e+03 
2.990400e-01 2.684735e+03 
3.002700e-01 2.672787e+03 
3.015100e-01 2.660860e+03 
3.026800e-01 2.649716e+03 
3.038500e-01 2.638679e+03 
3.050300e-01 2.627651e+03 
3.062600e-01 2.616151e+03 
3.075000e-01 2.604671e+03 
3.087000e-01 2.593671e+03 
3.099100e-01 2.582684e+03 
3.111200e-01 2.571856e+03 
3.123100e-01 2.561399e+03 
3.135300e-01 2.550780e+03 
3.147300e-01 2.540434e+03 
3.159900e-01 2.529675e+03 
3.171800e-01 2.519586e+03 
3.183700e-01 2.509574e+03 
3.196300e-01 2.499074e+03 
3.208400e-01 2.489087e+03 
3.220300e-01 2.479355e+03 
3.232000e-01 2.469844e+03 
3.244300e-01 2.459925e+03 
3.256700e-01 2.450019e+03 
3.269200e-01 2.440128e+03 
3.280800e-01 2.431032e+03 
3.292500e-01 2.422027e+03 
3.304800e-01 2.412673e+03 
3.317100e-01 2.403405e+03 
3.328900e-01 2.394594e+03 
3.340700e-01 2.385860e+03 
3.353600e-01 2.376362e+03 
3.365300e-01 2.367812e+03 
3.377100e-01 2.359264e+03 
3.389200e-01 2.350575e+03 
3.401600e-01 2.341750e+03 
3.413700e-01 2.333231e+03 
3.425300e-01 2.325144e+03 
3.437700e-01 2.316576e+03 
3.449800e-01 2.308288e+03 
3.461800e-01 2.300140e+03 
3.473600e-01 2.292213e+03 
3.485800e-01 2.284127e+03 
3.498100e-01 2.276047e+03 
3.510200e-01 2.268167e+03 
3.522000e-01 2.260547e+03 
3.533900e-01 2.252927e+03 
3.546400e-01 2.244943e+03 
3.558400e-01 2.237342e+03 
3.570600e-01 2.229679e+03 
3.582700e-01 2.222144e+03 
3.595000e-01 2.214549e+03 
3.607100e-01 2.207144e+03 
3.618900e-01 2.199984e+03 
3.631200e-01 2.192584e+03 
3.643200e-01 2.185423e+03 
3.655500e-01 2.178145e+03 
3.667300e-01 2.171221e+03 
3.679500e-01 2.164157e+03 
3.691900e-01 2.157038e+03 
3.703600e-01 2.150375e+03 
3.715700e-01 2.143540e+03 
3.727700e-01 2.136816e+03 
3.739900e-01 2.130021e+03 
3.752000e-01 2.123306e+03 
3.763900e-01 2.116756e+03 
3.775800e-01 2.110258e+03 
3.788200e-01 2.103541e+03 
3.800300e-01 2.097040e+03 
3.812100e-01 2.090715e+03 
3.824200e-01 2.084257e+03 
3.836100e-01 2.077956e+03 
3.848600e-01 2.071390e+03 
3.860400e-01 2.065240e+03 
3.872400e-01 2.059035e+03 
3.884600e-01 2.052733e+03 
3.896500e-01 2.046618e+03 
3.908700e-01 2.040398e+03 
3.920600e-01 2.034377e+03 
3.933100e-01 2.028102e+03 
3.945300e-01 2.022026e+03 
3.957200e-01 2.016137e+03 
3.969300e-01 2.010193e+03 
3.981700e-01 2.004149e+03 
3.993500e-01 1.998441e+03 
4.094840e-01 1.950848e+03 
4.272360e-01 1.872875e+03 
4.454600e-01 1.799331e+03 
4.630560e-01 1.733488e+03 
4.804610e-01 1.672942e+03 
4.980690e-01 1.615997e+03 
5.159230e-01 1.562025e+03 
5.317440e-01 1.517401e+03 
5.489640e-01 1.471484e+03 
5.671990e-01 1.426035e+03 
5.838690e-01 1.386819e+03 
6.018840e-01 1.346880e+03 
6.202330e-01 1.308372e+03 
6.379250e-01 1.273116e+03 
6.545410e-01 1.241630e+03 
6.714560e-01 1.210977e+03 
6.892080e-01 1.180095e+03 
7.066010e-01 1.151048e+03 
7.240540e-01 1.123151e+03 
7.420450e-01 1.095311e+03 
7.593780e-01 1.069481e+03 
7.764720e-01 1.044943e+03 
7.942840e-01 1.020216e+03 
8.116170e-01 9.967790e+02 
8.288310e-01 9.741627e+02 
8.462240e-01 9.520497e+02 
8.631980e-01 9.311514e+02 
8.810700e-01 9.097901e+02 
8.989410e-01 8.890028e+02 
9.166330e-01 8.690235e+02 
9.345640e-01 8.493101e+02 
9.515980e-01 8.311537e+02 
9.688720e-01 8.132465e+02 
9.865640e-01 7.953515e+02 
1.031870e+00 7.517483e+02 
1.063490e+00 7.230173e+02 
1.097920e+00 6.933686e+02 
1.134370e+00 6.637098e+02 
1.167730e+00 6.379583e+02 
1.203830e+00 6.114955e+02 
1.240470e+00 5.862052e+02 
1.275790e+00 5.629883e+02 
1.309140e+00 5.422534e+02 
1.342970e+00 5.222166e+02 
1.378420e+00 5.023257e+02 
1.413200e+00 4.837574e+02 
1.448110e+00 4.660426e+02 
1.484090e+00 4.487189e+02 
1.518820e+00 4.328785e+02 
1.552880e+00 4.179867e+02 
1.588630e+00 4.031670e+02 
1.623230e+00 3.894904e+02 
1.657720e+00 3.765062e+02 
1.692450e+00 3.640730e+02 
1.726400e+00 3.523705e+02 
1.762200e+00 3.406437e+02 
1.797880e+00 3.294963e+02 
1.833270e+00 3.189456e+02 
1.869070e+00 3.087572e+02 
1.903200e+00 2.994411e+02 
1.937740e+00 2.904152e+02 
1.973190e+00 2.815735e+02 
2.007440e+00 2.733801e+02 
2.042160e+00 2.654061e+02 
2.077900e+00 2.575302e+02 
2.112390e+00 2.502474e+02 
2.146220e+00 2.433975e+02 
2.181600e+00 2.364900e+02 
2.216930e+00 2.298819e+02 
2.250760e+00 2.237997e+02 
2.286500e+00 2.176136e+02 
2.321770e+00 2.117394e+02 
2.355950e+00 2.062518e+02 
2.391280e+00 2.008099e+02 
2.426240e+00 1.956281e+02 
2.460670e+00 1.907039e+02 
2.495640e+00 1.858717e+02 
2.531080e+00 1.811534e+02 
2.566220e+00 1.766360e+02 
2.600830e+00 1.723384e+02 
2.635080e+00 1.682279e+02 
2.670340e+00 1.641548e+02 
2.705970e+00 1.601821e+02 
2.740040e+00 1.565089e+02 
2.774520e+00 1.529017e+02 
2.809730e+00 1.493530e+02 
2.844390e+00 1.459773e+02 
2.879960e+00 1.426205e+02 
2.914860e+00 1.394306e+02 
2.949410e+00 1.363712e+02 
2.984440e+00 1.333661e+02 
3.019760e+00 1.304244e+02 
3.054730e+00 1.275989e+02 
3.089030e+00 1.249258e+02 
3.124060e+00 1.222758e+02 
3.159560e+00 1.196690e+02 
3.194710e+00 1.171741e+02 
3.229010e+00 1.148116e+02 
3.263320e+00 1.124990e+02 
3.297930e+00 1.102361e+02 
3.332830e+00 1.080267e+02 
3.368040e+00 1.058650e+02 
3.403300e+00 1.037640e+02 
3.438450e+00 1.017259e+02 
3.473060e+00 9.977303e+01 
3.508440e+00 9.783246e+01 
3.543110e+00 9.598160e+01 
3.577470e+00 9.419472e+01 
3.613040e+00 9.239580e+01 
3.648120e+00 9.067499e+01 
3.682910e+00 8.901083e+01 
3.718050e+00 8.737010e+01 
3.753320e+00 8.576996e+01 
3.787980e+00 8.424377e+01 
3.822290e+00 8.276868e+01 
3.857020e+00 8.130984e+01 
3.891920e+00 7.988224e+01 
3.926650e+00 7.850074e+01 
3.961970e+00 7.712934e+01 
3.997360e+00 7.578778e+01 
4.031670e+00 7.451913e+01 
4.066330e+00 7.327298e+01 
4.101420e+00 7.204056e+01 
4.136200e+00 7.084608e+01 
4.170810e+00 6.968443e+01 
4.206250e+00 6.852336e+01 
4.241580e+00 6.739254e+01 
4.276300e+00 6.631169e+01 
4.310970e+00 6.525921e+01 
4.346120e+00 6.421425e+01 
4.380600e+00 6.320930e+01 
4.414730e+00 6.223595e+01 
4.450350e+00 6.124996e+01 
4.485320e+00 6.030280e+01 
4.519810e+00 5.938608e+01 
4.555430e+00 5.845833e+01 
4.590870e+00 5.755757e+01 
4.625480e+00 5.670169e+01 
4.659910e+00 5.586755e+01 
4.695230e+00 5.502885e+01 
4.729960e+00 5.422086e+01 
4.764450e+00 5.343546e+01 
4.799530e+00 5.265418e+01 
4.834910e+00 5.188200e+01 
4.869700e+00 5.113930e+01 
4.904370e+00 5.041383e+01 
4.939450e+00 4.969471e+01 
4.973940e+00 4.900303e+01 
5.008430e+00 4.832447e+01 
5.043810e+00 4.764302e+01 
5.078840e+00 4.698199e+01 
5.113500e+00 4.634021e+01 
5.148890e+00 4.569857e+01 
5.184210e+00 4.507030e+01 
5.219060e+00 4.446214e+01 
5.253660e+00 4.387006e+01 
5.288570e+00 4.328353e+01 
5.323420e+00 4.271032e+01 
5.358440e+00 4.214660e+01 
5.393590e+00 4.159094e+01 
5.428310e+00 4.105146e+01 
5.462800e+00 4.052473e+01 
5.497640e+00 4.000194e+01 
5.532670e+00 3.948792e+01 
5.567280e+00 3.898964e+01 
5.602000e+00 3.849833e+01 
5.637270e+00 3.800823e+01 
5.672410e+00 3.752844e+01 
5.707020e+00 3.706389e+01 
5.742040e+00 3.660253e+01 
5.777430e+00 3.614433e+01 
5.812210e+00 3.570158e+01 
5.846820e+00 3.526912e+01 
5.881610e+00 3.484176e+01 
5.916510e+00 3.442007e+01 
5.951600e+00 3.400435e+01 
5.986560e+00 3.359750e+01 
6.021830e+00 3.319370e+01 
6.056490e+00 3.280323e+01 
6.091160e+00 3.241882e+01 
6.125830e+00 3.204047e+01 
6.161090e+00 3.166205e+01 
6.195760e+00 3.129643e+01 
6.230420e+00 3.093659e+01 
6.265690e+00 3.057618e+01 
6.300950e+00 3.022310e+01 
6.335620e+00 2.988127e+01 
6.370880e+00 2.953894e+01 
6.405550e+00 2.920736e+01 
6.440220e+00 2.888072e+01 
6.475480e+00 2.855354e+01 
6.510150e+00 2.823709e+01 
6.544810e+00 2.792638e+01 
6.580080e+00 2.761491e+01 
6.614750e+00 2.731326e+01 
6.649410e+00 2.701677e+01 
6.684080e+00 2.672464e+01 
6.719340e+00 2.643186e+01 
6.754010e+00 2.614813e+01 
6.788680e+00 2.586836e+01 
6.823940e+00 2.558793e+01 
6.859800e+00 2.530688e+01 
6.894470e+00 2.503993e+01 
6.929140e+00 2.477705e+01 
6.963800e+00 2.451793e+01 
6.999070e+00 2.425792e+01 
7.033730e+00 2.400549e+01 
7.068400e+00 2.375647e+01 
7.103660e+00 2.350674e+01 
7.138330e+00 2.326505e+01 
7.173600e+00 2.302354e+01 
7.208260e+00 2.278945e+01 
7.243530e+00 2.255448e+01 
7.277600e+00 2.233017e+01 
7.312860e+00 2.210077e+01 
7.348120e+00 2.187450e+01 
7.382790e+00 2.165500e+01 
7.417460e+00 2.143920e+01 
7.452720e+00 2.122307e+01 
7.487390e+00 2.101337e+01 
7.522650e+00 2.080291e+01 
7.557320e+00 2.059908e+01 
7.591990e+00 2.039803e+01 
7.627250e+00 2.019623e+01 
7.662510e+00 1.999706e+01 
7.697180e+00 1.980317e+01 
7.731850e+00 1.961153e+01 
7.766510e+00 1.942238e+01 
7.801180e+00 1.923558e+01 
7.836440e+00 1.904880e+01 
7.871110e+00 1.886796e+01 
7.906380e+00 1.868631e+01 
7.941040e+00 1.851004e+01 
7.976310e+00 1.833292e+01 
8.011570e+00 1.815809e+01 
8.046240e+00 1.798831e+01 
8.080900e+00 1.782067e+01 
8.115570e+00 1.765502e+01 
8.150830e+00 1.748856e+01 
8.185500e+00 1.732690e+01 
8.220770e+00 1.716445e+01 
8.255430e+00 1.700674e+01 
8.290100e+00 1.685138e+01 
8.324770e+00 1.669794e+01 
8.359430e+00 1.654636e+01 
8.394700e+00 1.639397e+01 
8.429960e+00 1.624345e+01 
8.464630e+00 1.609720e+01 
8.499890e+00 1.595023e+01 
8.534560e+00 1.580743e+01 
8.569200e+00 1.566641e+01 
