# Parameters:
# omega_b = 0.021500, omega_m = 0.126614, n_s = 0.903543, h = 72.480315, w = -1.000000, sigma_8 = 0.896850
# z = 0.300000
#
# k[1/Mpc] # P(k):
8.694000e-04 2.421233e+04 
2.077466e-03 4.835599e+04 
3.285532e-03 6.577889e+04 
4.493598e-03 7.818341e+04 
5.701664e-03 8.663649e+04 
6.909730e-03 9.196877e+04 
8.117797e-03 9.497871e+04 
9.325863e-03 9.607921e+04 
1.053393e-02 9.565654e+04 
1.174199e-02 9.404889e+04 
1.295006e-02 9.147311e+04 
1.415813e-02 8.820423e+04 
1.536619e-02 8.446896e+04 
1.657426e-02 8.043394e+04 
1.778233e-02 7.627031e+04 
1.899039e-02 7.213363e+04 
2.019846e-02 6.803786e+04 
2.140652e-02 6.407523e+04 
2.261459e-02 6.032770e+04 
2.382266e-02 5.685352e+04 
2.503072e-02 5.368210e+04 
2.623879e-02 5.081182e+04 
2.744685e-02 4.824009e+04 
2.865492e-02 4.595120e+04 
2.986299e-02 4.392293e+04 
3.100100e-02 4.223680e+04 
3.220400e-02 4.066361e+04 
3.288100e-02 3.986752e+04 
3.424300e-02 3.842752e+04 
3.555100e-02 3.721193e+04 
3.686000e-02 3.613086e+04 
3.795000e-02 3.530945e+04 
3.929100e-02 3.437394e+04 
4.039800e-02 3.364064e+04 
4.164000e-02 3.284516e+04 
4.294400e-02 3.200801e+04 
4.415000e-02 3.123733e+04 
4.542900e-02 3.039052e+04 
4.660900e-02 2.960254e+04 
4.782300e-02 2.874856e+04 
4.892900e-02 2.795793e+04 
5.031200e-02 2.694773e+04 
5.155900e-02 2.601902e+04 
5.238100e-02 2.540314e+04 
5.378200e-02 2.435955e+04 
5.513400e-02 2.336273e+04 
5.627600e-02 2.253722e+04 
5.735300e-02 2.178256e+04 
5.870100e-02 2.087812e+04 
5.988700e-02 2.012245e+04 
6.113500e-02 1.937203e+04 
6.225900e-02 1.873684e+04 
6.340100e-02 1.813793e+04 
6.480200e-02 1.745985e+04 
6.601100e-02 1.692824e+04 
6.725500e-02 1.642989e+04 
6.829100e-02 1.605533e+04 
6.958600e-02 1.562822e+04 
7.071100e-02 1.529555e+04 
7.192300e-02 1.497011e+04 
7.307400e-02 1.468921e+04 
7.412300e-02 1.445462e+04 
7.550400e-02 1.417506e+04 
7.663100e-02 1.396343e+04 
7.791200e-02 1.373999e+04 
7.912700e-02 1.353648e+04 
8.027600e-02 1.334994e+04 
8.138400e-02 1.317191e+04 
8.272200e-02 1.295509e+04 
8.406100e-02 1.273386e+04 
8.534100e-02 1.251155e+04 
8.653800e-02 1.229500e+04 
8.759800e-02 1.209763e+04 
8.900300e-02 1.182575e+04 
9.009000e-02 1.160646e+04 
9.113300e-02 1.139047e+04 
9.239600e-02 1.112749e+04 
9.358000e-02 1.087813e+04 
9.496100e-02 1.058552e+04 
9.608400e-02 1.035168e+04 
9.727500e-02 1.010897e+04 
9.852600e-02 9.861642e+03 
9.973800e-02 9.632009e+03 
1.009000e-01 9.420566e+03 
1.020900e-01 9.219490e+03 
1.034000e-01 9.010396e+03 
1.046000e-01 8.830444e+03 
1.057200e-01 8.677290e+03 
1.069100e-01 8.523096e+03 
1.082500e-01 8.367065e+03 
1.093900e-01 8.244599e+03 
1.105400e-01 8.128008e+03 
1.116900e-01 8.022970e+03 
1.129600e-01 7.912516e+03 
1.142000e-01 7.812919e+03 
1.153300e-01 7.725757e+03 
1.166400e-01 7.629344e+03 
1.177800e-01 7.547274e+03 
1.190000e-01 7.461440e+03 
1.201200e-01 7.381219e+03 
1.213400e-01 7.295306e+03 
1.227100e-01 7.194757e+03 
1.238900e-01 7.108617e+03 
1.250700e-01 7.018784e+03 
1.263200e-01 6.923508e+03 
1.275500e-01 6.826751e+03 
1.287500e-01 6.732518e+03 
1.299900e-01 6.634184e+03 
1.311300e-01 6.544139e+03 
1.323500e-01 6.447387e+03 
1.335900e-01 6.350774e+03 
1.347100e-01 6.264702e+03 
1.359800e-01 6.169449e+03 
1.372100e-01 6.079664e+03 
1.384300e-01 5.993113e+03 
1.395700e-01 5.915168e+03 
1.407700e-01 5.835101e+03 
1.420300e-01 5.755489e+03 
1.432800e-01 5.678245e+03 
1.444500e-01 5.610158e+03 
1.456300e-01 5.542869e+03 
1.468900e-01 5.474774e+03 
1.480500e-01 5.414026e+03 
1.491700e-01 5.357264e+03 
1.503800e-01 5.298112e+03 
1.516400e-01 5.238029e+03 
1.528200e-01 5.184082e+03 
1.540200e-01 5.130262e+03 
1.551900e-01 5.079047e+03 
1.564300e-01 5.025861e+03 
1.576600e-01 4.974262e+03 
1.588700e-01 4.924631e+03 
1.600900e-01 4.875480e+03 
1.612700e-01 4.828051e+03 
1.625400e-01 4.777947e+03 
1.637600e-01 4.730366e+03 
1.649500e-01 4.684584e+03 
1.662200e-01 4.636462e+03 
1.674000e-01 4.591718e+03 
1.685000e-01 4.550702e+03 
1.697500e-01 4.504441e+03 
1.710300e-01 4.457490e+03 
1.722200e-01 4.414613e+03 
1.734400e-01 4.370761e+03 
1.746400e-01 4.328340e+03 
1.758700e-01 4.285568e+03 
1.770900e-01 4.243804e+03 
1.782700e-01 4.204081e+03 
1.794600e-01 4.164576e+03 
1.807000e-01 4.124029e+03 
1.819100e-01 4.085121e+03 
1.830100e-01 4.050410e+03 
1.842200e-01 4.012838e+03 
1.855000e-01 3.973783e+03 
1.867000e-01 3.938494e+03 
1.879200e-01 3.903187e+03 
1.890900e-01 3.869946e+03 
1.902800e-01 3.837133e+03 
1.915200e-01 3.803474e+03 
1.926900e-01 3.772342e+03 
1.939000e-01 3.741084e+03 
1.951700e-01 3.708787e+03 
1.963100e-01 3.680343e+03 
1.975100e-01 3.651134e+03 
1.987800e-01 3.620691e+03 
2.000100e-01 3.591736e+03 
2.012500e-01 3.563165e+03 
2.023400e-01 3.538405e+03 
2.036100e-01 3.509956e+03 
2.048900e-01 3.481683e+03 
2.060400e-01 3.456650e+03 
2.072200e-01 3.431308e+03 
2.084200e-01 3.405797e+03 
2.096900e-01 3.379187e+03 
2.109200e-01 3.353790e+03 
2.121100e-01 3.329272e+03 
2.132700e-01 3.305681e+03 
2.145200e-01 3.280609e+03 
2.157200e-01 3.256682e+03 
2.168800e-01 3.233771e+03 
2.180700e-01 3.210578e+03 
2.193400e-01 3.186059e+03 
2.206000e-01 3.161875e+03 
2.217500e-01 3.140097e+03 
2.229500e-01 3.117666e+03 
2.241400e-01 3.095463e+03 
2.253500e-01 3.073176e+03 
2.264900e-01 3.052446e+03 
2.277100e-01 3.030480e+03 
2.289900e-01 3.007671e+03 
2.301500e-01 2.987270e+03 
2.313600e-01 2.966255e+03 
2.325600e-01 2.945451e+03 
2.337700e-01 2.924740e+03 
2.350000e-01 2.903956e+03 
2.362000e-01 2.883917e+03 
2.374100e-01 2.863943e+03 
2.386500e-01 2.843732e+03 
2.399100e-01 2.823459e+03 
2.410400e-01 2.805408e+03 
2.422500e-01 2.786297e+03 
2.435000e-01 2.766799e+03 
2.447300e-01 2.747899e+03 
2.458700e-01 2.730772e+03 
2.470600e-01 2.713102e+03 
2.483300e-01 2.694473e+03 
2.495600e-01 2.676743e+03 
2.507600e-01 2.659774e+03 
2.519600e-01 2.643004e+03 
2.532200e-01 2.625606e+03 
2.543700e-01 2.610060e+03 
2.555500e-01 2.594388e+03 
2.568000e-01 2.577980e+03 
2.580100e-01 2.562282e+03 
2.592400e-01 2.546719e+03 
2.604100e-01 2.532175e+03 
2.616100e-01 2.517424e+03 
2.628400e-01 2.502475e+03 
2.640600e-01 2.487949e+03 
2.652200e-01 2.474341e+03 
2.664300e-01 2.460301e+03 
2.676500e-01 2.446302e+03 
2.688400e-01 2.432899e+03 
2.700700e-01 2.419260e+03 
2.712400e-01 2.406427e+03 
2.724800e-01 2.392974e+03 
2.736700e-01 2.380297e+03 
2.748800e-01 2.367643e+03 
2.761000e-01 2.355021e+03 
2.773200e-01 2.342535e+03 
2.785400e-01 2.330174e+03 
2.797000e-01 2.318525e+03 
2.808900e-01 2.306697e+03 
2.821400e-01 2.294404e+03 
2.833900e-01 2.282248e+03 
2.845500e-01 2.271186e+03 
2.857800e-01 2.259576e+03 
2.870300e-01 2.247903e+03 
2.882100e-01 2.236997e+03 
2.893900e-01 2.226145e+03 
2.906300e-01 2.214828e+03 
2.918900e-01 2.203449e+03 
2.930500e-01 2.193079e+03 
2.942500e-01 2.182471e+03 
2.954200e-01 2.172275e+03 
2.966500e-01 2.161662e+03 
2.978900e-01 2.151071e+03 
2.990400e-01 2.141345e+03 
3.002700e-01 2.131027e+03 
3.015100e-01 2.120723e+03 
3.026800e-01 2.111095e+03 
3.038500e-01 2.101557e+03 
3.050300e-01 2.092027e+03 
3.062600e-01 2.082097e+03 
3.075000e-01 2.072185e+03 
3.087000e-01 2.062685e+03 
3.099100e-01 2.053197e+03 
3.111200e-01 2.043844e+03 
3.123100e-01 2.034810e+03 
3.135300e-01 2.025634e+03 
3.147300e-01 2.016695e+03 
3.159900e-01 2.007397e+03 
3.171800e-01 1.998687e+03 
3.183700e-01 1.990047e+03 
3.196300e-01 1.980986e+03 
3.208400e-01 1.972366e+03 
3.220300e-01 1.963966e+03 
3.232000e-01 1.955770e+03 
3.244300e-01 1.947228e+03 
3.256700e-01 1.938696e+03 
3.269200e-01 1.930176e+03 
3.280800e-01 1.922341e+03 
3.292500e-01 1.914587e+03 
3.304800e-01 1.906532e+03 
3.317100e-01 1.898552e+03 
3.328900e-01 1.890963e+03 
3.340700e-01 1.883440e+03 
3.353600e-01 1.875275e+03 
3.365300e-01 1.867929e+03 
3.377100e-01 1.860584e+03 
3.389200e-01 1.853118e+03 
3.401600e-01 1.845534e+03 
3.413700e-01 1.838220e+03 
3.425300e-01 1.831282e+03 
3.437700e-01 1.823930e+03 
3.449800e-01 1.816818e+03 
3.461800e-01 1.809826e+03 
3.473600e-01 1.803026e+03 
3.485800e-01 1.796101e+03 
3.498100e-01 1.789180e+03 
3.510200e-01 1.782429e+03 
3.522000e-01 1.775901e+03 
3.533900e-01 1.769371e+03 
3.546400e-01 1.762547e+03 
3.558400e-01 1.756049e+03 
3.570600e-01 1.749498e+03 
3.582700e-01 1.743055e+03 
3.595000e-01 1.736561e+03 
3.607100e-01 1.730235e+03 
3.618900e-01 1.724124e+03 
3.631200e-01 1.717806e+03 
3.643200e-01 1.711693e+03 
3.655500e-01 1.705478e+03 
3.667300e-01 1.699565e+03 
3.679500e-01 1.693549e+03 
3.691900e-01 1.687485e+03 
3.703600e-01 1.681810e+03 
3.715700e-01 1.675987e+03 
3.727700e-01 1.670258e+03 
3.739900e-01 1.664470e+03 
3.752000e-01 1.658759e+03 
3.763900e-01 1.653186e+03 
3.775800e-01 1.647656e+03 
3.788200e-01 1.641940e+03 
3.800300e-01 1.636407e+03 
3.812100e-01 1.631036e+03 
3.824200e-01 1.625560e+03 
3.836100e-01 1.620216e+03 
3.848600e-01 1.614647e+03 
3.860400e-01 1.609430e+03 
3.872400e-01 1.604166e+03 
3.884600e-01 1.598831e+03 
3.896500e-01 1.593659e+03 
3.908700e-01 1.588396e+03 
3.920600e-01 1.583302e+03 
3.933100e-01 1.577993e+03 
3.945300e-01 1.572851e+03 
3.957200e-01 1.567874e+03 
3.969300e-01 1.562852e+03 
3.981700e-01 1.557745e+03 
3.993500e-01 1.552922e+03 
4.094840e-01 1.512774e+03 
4.272360e-01 1.447289e+03 
4.454600e-01 1.385827e+03 
4.630560e-01 1.331054e+03 
4.804610e-01 1.280908e+03 
4.980690e-01 1.233911e+03 
5.159230e-01 1.189537e+03 
5.317440e-01 1.152954e+03 
5.489640e-01 1.115452e+03 
5.671990e-01 1.078468e+03 
5.838690e-01 1.046678e+03 
6.018840e-01 1.014422e+03 
6.202330e-01 9.834894e+02 
6.379250e-01 9.552813e+02 
6.545410e-01 9.302307e+02 
6.714560e-01 9.059490e+02 
6.892080e-01 8.816218e+02 
7.066010e-01 8.588722e+02 
7.240540e-01 8.371182e+02 
7.420450e-01 8.155526e+02 
7.593780e-01 7.956407e+02 
7.764720e-01 7.768137e+02 
7.942840e-01 7.579304e+02 
8.116170e-01 7.401301e+02 
8.288310e-01 7.230322e+02 
8.462240e-01 7.063757e+02 
8.631980e-01 6.906989e+02 
8.810700e-01 6.747344e+02 
8.989410e-01 6.592492e+02 
9.166330e-01 6.444131e+02 
9.345640e-01 6.298166e+02 
9.515980e-01 6.164089e+02 
9.688720e-01 6.032170e+02 
9.865640e-01 5.900666e+02 
1.031870e+00 5.581145e+02 
1.063490e+00 5.371319e+02 
1.097920e+00 5.155334e+02 
1.134370e+00 4.939540e+02 
1.167730e+00 4.752400e+02 
1.203830e+00 4.560276e+02 
1.240470e+00 4.376697e+02 
1.275790e+00 4.208227e+02 
1.309140e+00 4.057696e+02 
1.342970e+00 3.912213e+02 
1.378420e+00 3.767700e+02 
1.413200e+00 3.632708e+02 
1.448110e+00 3.503813e+02 
1.484090e+00 3.377631e+02 
1.518820e+00 3.262172e+02 
1.552880e+00 3.153493e+02 
1.588630e+00 3.045215e+02 
1.623230e+00 2.945180e+02 
1.657720e+00 2.850114e+02 
1.692450e+00 2.758975e+02 
1.726400e+00 2.673067e+02 
1.762200e+00 2.586876e+02 
1.797880e+00 2.504838e+02 
1.833270e+00 2.427115e+02 
1.869070e+00 2.351955e+02 
1.903200e+00 2.283136e+02 
1.937740e+00 2.216390e+02 
1.973190e+00 2.150925e+02 
2.007440e+00 2.090186e+02 
2.042160e+00 2.030999e+02 
2.077900e+00 1.972475e+02 
2.112390e+00 1.918295e+02 
2.146220e+00 1.867275e+02 
2.181600e+00 1.815756e+02 
2.216930e+00 1.766421e+02 
2.250760e+00 1.720964e+02 
2.286500e+00 1.674677e+02 
2.321770e+00 1.630674e+02 
2.355950e+00 1.589520e+02 
2.391280e+00 1.548665e+02 
2.426240e+00 1.509724e+02 
2.460670e+00 1.472682e+02 
2.495640e+00 1.436294e+02 
2.531080e+00 1.400719e+02 
2.566220e+00 1.366625e+02 
2.600830e+00 1.334160e+02 
2.635080e+00 1.303083e+02 
2.670340e+00 1.272253e+02 
2.705970e+00 1.242156e+02 
2.740040e+00 1.214306e+02 
2.774520e+00 1.186926e+02 
2.809730e+00 1.159967e+02 
2.844390e+00 1.134304e+02 
2.879960e+00 1.108760e+02 
2.914860e+00 1.084462e+02 
2.949410e+00 1.061141e+02 
2.984440e+00 1.038212e+02 
3.019760e+00 1.015748e+02 
3.054730e+00 9.941579e+01 
3.089030e+00 9.737108e+01 
3.124060e+00 9.534279e+01 
3.159560e+00 9.334593e+01 
3.194710e+00 9.143325e+01 
3.229010e+00 8.962110e+01 
3.263320e+00 8.784534e+01 
3.297930e+00 8.610682e+01 
3.332830e+00 8.440815e+01 
3.368040e+00 8.274509e+01 
3.403300e+00 8.112798e+01 
3.438450e+00 7.955771e+01 
3.473060e+00 7.805266e+01 
3.508440e+00 7.655540e+01 
3.543110e+00 7.512694e+01 
3.577470e+00 7.374660e+01 
3.613040e+00 7.235649e+01 
3.648120e+00 7.102580e+01 
3.682910e+00 6.973837e+01 
3.718050e+00 6.846817e+01 
3.753320e+00 6.722885e+01 
3.787980e+00 6.604609e+01 
3.822290e+00 6.490243e+01 
3.857020e+00 6.377066e+01 
3.891920e+00 6.266273e+01 
3.926650e+00 6.158996e+01 
3.961970e+00 6.052467e+01 
3.997360e+00 5.948185e+01 
4.031670e+00 5.849548e+01 
4.066330e+00 5.752597e+01 
4.101420e+00 5.656702e+01 
4.136200e+00 5.563677e+01 
4.170810e+00 5.473201e+01 
4.206250e+00 5.382718e+01 
4.241580e+00 5.294578e+01 
4.276300e+00 5.210288e+01 
4.310970e+00 5.128183e+01 
4.346120e+00 5.046642e+01 
4.380600e+00 4.968190e+01 
4.414730e+00 4.892198e+01 
4.450350e+00 4.815166e+01 
4.485320e+00 4.741162e+01 
4.519810e+00 4.669503e+01 
4.555430e+00 4.596963e+01 
4.590870e+00 4.526520e+01 
4.625480e+00 4.459568e+01 
4.659910e+00 4.394313e+01 
4.695230e+00 4.328661e+01 
4.729960e+00 4.265405e+01 
4.764450e+00 4.203907e+01 
4.799530e+00 4.142716e+01 
4.834910e+00 4.082235e+01 
4.869700e+00 4.024040e+01 
4.904370e+00 3.967190e+01 
4.939450e+00 3.910828e+01 
4.973940e+00 3.856594e+01 
5.008430e+00 3.803387e+01 
5.043810e+00 3.749947e+01 
5.078840e+00 3.698104e+01 
5.113500e+00 3.647769e+01 
5.148890e+00 3.597424e+01 
5.184210e+00 3.548126e+01 
5.219060e+00 3.500401e+01 
5.253660e+00 3.453924e+01 
5.288570e+00 3.407882e+01 
5.323420e+00 3.362883e+01 
5.358440e+00 3.318625e+01 
5.393590e+00 3.275000e+01 
5.428310e+00 3.232638e+01 
5.462800e+00 3.191275e+01 
5.497640e+00 3.150220e+01 
5.532670e+00 3.109850e+01 
5.567280e+00 3.070715e+01 
5.602000e+00 3.032126e+01 
5.637270e+00 2.993629e+01 
5.672410e+00 2.955940e+01 
5.707020e+00 2.919447e+01 
5.742040e+00 2.883202e+01 
5.777430e+00 2.847205e+01 
5.812210e+00 2.812420e+01 
5.846820e+00 2.778446e+01 
5.881610e+00 2.744872e+01 
5.916510e+00 2.711743e+01 
5.951600e+00 2.679083e+01 
5.986560e+00 2.647121e+01 
6.021830e+00 2.615397e+01 
6.056490e+00 2.584720e+01 
6.091160e+00 2.554520e+01 
6.125830e+00 2.524795e+01 
6.161090e+00 2.495066e+01 
6.195760e+00 2.466346e+01 
6.230420e+00 2.438080e+01 
6.265690e+00 2.409768e+01 
6.300950e+00 2.382038e+01 
6.335620e+00 2.355191e+01 
6.370880e+00 2.328305e+01 
6.405550e+00 2.302264e+01 
6.440220e+00 2.276613e+01 
6.475480e+00 2.250919e+01 
6.510150e+00 2.226069e+01 
6.544810e+00 2.201674e+01 
6.580080e+00 2.177218e+01 
6.614750e+00 2.153534e+01 
6.649410e+00 2.130258e+01 
6.684080e+00 2.107324e+01 
6.719340e+00 2.084339e+01 
6.754010e+00 2.062067e+01 
6.788680e+00 2.040111e+01 
6.823940e+00 2.018103e+01 
6.859800e+00 1.996046e+01 
6.894470e+00 1.975100e+01 
6.929140e+00 1.954475e+01 
6.963800e+00 1.934143e+01 
6.999070e+00 1.913742e+01 
7.033730e+00 1.893942e+01 
7.068400e+00 1.874410e+01 
7.103660e+00 1.854820e+01 
7.138330e+00 1.835864e+01 
7.173600e+00 1.816927e+01 
7.208260e+00 1.798571e+01 
7.243530e+00 1.780146e+01 
7.277600e+00 1.762560e+01 
7.312860e+00 1.744577e+01 
7.348120e+00 1.726838e+01 
7.382790e+00 1.709629e+01 
7.417460e+00 1.692716e+01 
7.452720e+00 1.675780e+01 
7.487390e+00 1.659346e+01 
7.522650e+00 1.642852e+01 
7.557320e+00 1.626882e+01 
7.591990e+00 1.611132e+01 
7.627250e+00 1.595322e+01 
7.662510e+00 1.579718e+01 
7.697180e+00 1.564531e+01 
7.731850e+00 1.549523e+01 
7.766510e+00 1.534709e+01 
7.801180e+00 1.520078e+01 
7.836440e+00 1.505452e+01 
7.871110e+00 1.491294e+01 
7.906380e+00 1.477072e+01 
7.941040e+00 1.463270e+01 
7.976310e+00 1.449404e+01 
8.011570e+00 1.435719e+01 
8.046240e+00 1.422430e+01 
8.080900e+00 1.409307e+01 
8.115570e+00 1.396341e+01 
8.150830e+00 1.383317e+01 
8.185500e+00 1.370668e+01 
8.220770e+00 1.357956e+01 
8.255430e+00 1.345614e+01 
8.290100e+00 1.333462e+01 
8.324770e+00 1.321459e+01 
8.359430e+00 1.309601e+01 
8.394700e+00 1.297678e+01 
8.429960e+00 1.285904e+01 
8.464630e+00 1.274467e+01 
8.499890e+00 1.262971e+01 
8.534560e+00 1.251801e+01 
8.569200e+00 1.240769e+01 
