# Parameters:
# omega_b = 0.022382, omega_m = 0.128543, n_s = 0.879921, h = 69.645669, w = -1.000000, sigma_8 = 0.781890
# z = 0.300000
#
# k[1/Mpc] # P(k):
8.694000e-04 2.089955e+04 
2.077466e-03 4.107225e+04 
3.285532e-03 5.537025e+04 
4.493598e-03 6.541354e+04 
5.701664e-03 7.215229e+04 
6.909730e-03 7.631052e+04 
8.117797e-03 7.856705e+04 
9.325863e-03 7.927137e+04 
1.053393e-02 7.874585e+04 
1.174199e-02 7.726941e+04 
1.295006e-02 7.502102e+04 
1.415813e-02 7.222461e+04 
1.536619e-02 6.906363e+04 
1.657426e-02 6.565983e+04 
1.778233e-02 6.211914e+04 
1.899039e-02 5.862275e+04 
2.019846e-02 5.525067e+04 
2.140652e-02 5.203776e+04 
2.261459e-02 4.900580e+04 
2.382266e-02 4.619096e+04 
2.503072e-02 4.361560e+04 
2.623879e-02 4.127847e+04 
2.744685e-02 3.917634e+04 
2.865492e-02 3.729822e+04 
2.986299e-02 3.562669e+04 
3.100100e-02 3.423014e+04 
3.220400e-02 3.292052e+04 
3.288100e-02 3.225477e+04 
3.424300e-02 3.104558e+04 
3.555100e-02 3.002076e+04 
3.686000e-02 2.910690e+04 
3.795000e-02 2.841221e+04 
3.929100e-02 2.762288e+04 
4.039800e-02 2.700719e+04 
4.164000e-02 2.634334e+04 
4.294400e-02 2.565205e+04 
4.415000e-02 2.502038e+04 
4.542900e-02 2.433308e+04 
4.660900e-02 2.369717e+04 
4.782300e-02 2.301254e+04 
4.892900e-02 2.238047e+04 
5.031200e-02 2.157457e+04 
5.155900e-02 2.083410e+04 
5.238100e-02 2.034271e+04 
5.378200e-02 1.950913e+04 
5.513400e-02 1.871074e+04 
5.627600e-02 1.804758e+04 
5.735300e-02 1.743955e+04 
5.870100e-02 1.670838e+04 
5.988700e-02 1.609547e+04 
6.113500e-02 1.548489e+04 
6.225900e-02 1.496643e+04 
6.340100e-02 1.447620e+04 
6.480200e-02 1.391996e+04 
6.601100e-02 1.348282e+04 
6.725500e-02 1.307240e+04 
6.829100e-02 1.276351e+04 
6.958600e-02 1.241116e+04 
7.071100e-02 1.213669e+04 
7.192300e-02 1.186828e+04 
7.307400e-02 1.163679e+04 
7.412300e-02 1.144366e+04 
7.550400e-02 1.121383e+04 
7.663100e-02 1.104009e+04 
7.791200e-02 1.085711e+04 
7.912700e-02 1.069081e+04 
8.027600e-02 1.053868e+04 
8.138400e-02 1.039377e+04 
8.272200e-02 1.021769e+04 
8.406100e-02 1.003856e+04 
8.534100e-02 9.859173e+03 
8.653800e-02 9.684961e+03 
8.759800e-02 9.526538e+03 
8.900300e-02 9.308871e+03 
9.009000e-02 9.133742e+03 
9.113300e-02 8.961543e+03 
9.239600e-02 8.752091e+03 
9.358000e-02 8.553684e+03 
9.496100e-02 8.320834e+03 
9.608400e-02 8.134640e+03 
9.727500e-02 7.941278e+03 
9.852600e-02 7.743600e+03 
9.973800e-02 7.559697e+03 
1.009000e-01 7.390056e+03 
1.020900e-01 7.227753e+03 
1.034000e-01 7.058533e+03 
1.046000e-01 6.912404e+03 
1.057200e-01 6.787249e+03 
1.069100e-01 6.660985e+03 
1.082500e-01 6.532394e+03 
1.093900e-01 6.431132e+03 
1.105400e-01 6.334526e+03 
1.116900e-01 6.247190e+03 
1.129600e-01 6.155306e+03 
1.142000e-01 6.072477e+03 
1.153300e-01 6.000141e+03 
1.166400e-01 5.920359e+03 
1.177800e-01 5.852901e+03 
1.190000e-01 5.782555e+03 
1.201200e-01 5.717558e+03 
1.213400e-01 5.648075e+03 
1.227100e-01 5.567760e+03 
1.238900e-01 5.499137e+03 
1.250700e-01 5.428140e+03 
1.263200e-01 5.352988e+03 
1.275500e-01 5.276989e+03 
1.287500e-01 5.203023e+03 
1.299900e-01 5.125916e+03 
1.311300e-01 5.055241e+03 
1.323500e-01 4.979201e+03 
1.335900e-01 4.903090e+03 
1.347100e-01 4.835045e+03 
1.359800e-01 4.759533e+03 
1.372100e-01 4.687925e+03 
1.384300e-01 4.618712e+03 
1.395700e-01 4.555915e+03 
1.407700e-01 4.491364e+03 
1.420300e-01 4.426557e+03 
1.432800e-01 4.363697e+03 
1.444500e-01 4.307779e+03 
1.456300e-01 4.252533e+03 
1.468900e-01 4.196420e+03 
1.480500e-01 4.146307e+03 
1.491700e-01 4.099481e+03 
1.503800e-01 4.050679e+03 
1.516400e-01 4.001162e+03 
1.528200e-01 3.956897e+03 
1.540200e-01 3.912743e+03 
1.551900e-01 3.871040e+03 
1.564300e-01 3.827814e+03 
1.576600e-01 3.786074e+03 
1.588700e-01 3.746162e+03 
1.600900e-01 3.706659e+03 
1.612700e-01 3.668922e+03 
1.625400e-01 3.629061e+03 
1.637600e-01 3.591377e+03 
1.649500e-01 3.555219e+03 
1.662200e-01 3.517232e+03 
1.674000e-01 3.482006e+03 
1.685000e-01 3.449718e+03 
1.697500e-01 3.413293e+03 
1.710300e-01 3.376316e+03 
1.722200e-01 3.342551e+03 
1.734400e-01 3.307894e+03 
1.746400e-01 3.274366e+03 
1.758700e-01 3.240502e+03 
1.770900e-01 3.207310e+03 
1.782700e-01 3.175745e+03 
1.794600e-01 3.144244e+03 
1.807000e-01 3.111842e+03 
1.819100e-01 3.080755e+03 
1.830100e-01 3.052899e+03 
1.842200e-01 3.022730e+03 
1.855000e-01 2.991371e+03 
1.867000e-01 2.962910e+03 
1.879200e-01 2.934438e+03 
1.890900e-01 2.907627e+03 
1.902800e-01 2.881113e+03 
1.915200e-01 2.853919e+03 
1.926900e-01 2.828770e+03 
1.939000e-01 2.803518e+03 
1.951700e-01 2.777430e+03 
1.963100e-01 2.754471e+03 
1.975100e-01 2.730928e+03 
1.987800e-01 2.706395e+03 
2.000100e-01 2.683086e+03 
2.012500e-01 2.660140e+03 
2.023400e-01 2.640256e+03 
2.036100e-01 2.617432e+03 
2.048900e-01 2.594834e+03 
2.060400e-01 2.574826e+03 
2.072200e-01 2.554581e+03 
2.084200e-01 2.534287e+03 
2.096900e-01 2.513121e+03 
2.109200e-01 2.492920e+03 
2.121100e-01 2.473507e+03 
2.132700e-01 2.454833e+03 
2.145200e-01 2.434988e+03 
2.157200e-01 2.416094e+03 
2.168800e-01 2.398024e+03 
2.180700e-01 2.379733e+03 
2.193400e-01 2.360419e+03 
2.206000e-01 2.341411e+03 
2.217500e-01 2.324295e+03 
2.229500e-01 2.306667e+03 
2.241400e-01 2.289259e+03 
2.253500e-01 2.271788e+03 
2.264900e-01 2.255539e+03 
2.277100e-01 2.238341e+03 
2.289900e-01 2.220506e+03 
2.301500e-01 2.204555e+03 
2.313600e-01 2.188127e+03 
2.325600e-01 2.171897e+03 
2.337700e-01 2.155742e+03 
2.350000e-01 2.139530e+03 
2.362000e-01 2.123914e+03 
2.374100e-01 2.108363e+03 
2.386500e-01 2.092629e+03 
2.399100e-01 2.076848e+03 
2.410400e-01 2.062821e+03 
2.422500e-01 2.047976e+03 
2.435000e-01 2.032832e+03 
2.447300e-01 2.018153e+03 
2.458700e-01 2.004853e+03 
2.470600e-01 1.991132e+03 
2.483300e-01 1.976669e+03 
2.495600e-01 1.962900e+03 
2.507600e-01 1.949719e+03 
2.519600e-01 1.936693e+03 
2.532200e-01 1.923179e+03 
2.543700e-01 1.911095e+03 
2.555500e-01 1.898908e+03 
2.568000e-01 1.886148e+03 
2.580100e-01 1.873941e+03 
2.592400e-01 1.861817e+03 
2.604100e-01 1.850477e+03 
2.616100e-01 1.838976e+03 
2.628400e-01 1.827321e+03 
2.640600e-01 1.815974e+03 
2.652200e-01 1.805335e+03 
2.664300e-01 1.794360e+03 
2.676500e-01 1.783417e+03 
2.688400e-01 1.772918e+03 
2.700700e-01 1.762221e+03 
2.712400e-01 1.752157e+03 
2.724800e-01 1.741606e+03 
2.736700e-01 1.731651e+03 
2.748800e-01 1.721697e+03 
2.761000e-01 1.711770e+03 
2.773200e-01 1.701949e+03 
2.785400e-01 1.692222e+03 
2.797000e-01 1.683043e+03 
2.808900e-01 1.673723e+03 
2.821400e-01 1.664037e+03 
2.833900e-01 1.654459e+03 
2.845500e-01 1.645725e+03 
2.857800e-01 1.636558e+03 
2.870300e-01 1.627341e+03 
2.882100e-01 1.618730e+03 
2.893900e-01 1.610158e+03 
2.906300e-01 1.601217e+03 
2.918900e-01 1.592227e+03 
2.930500e-01 1.584034e+03 
2.942500e-01 1.575652e+03 
2.954200e-01 1.567590e+03 
2.966500e-01 1.559198e+03 
2.978900e-01 1.550825e+03 
2.990400e-01 1.543135e+03 
3.002700e-01 1.534977e+03 
3.015100e-01 1.526829e+03 
3.026800e-01 1.519217e+03 
3.038500e-01 1.511676e+03 
3.050300e-01 1.504141e+03 
3.062600e-01 1.496297e+03 
3.075000e-01 1.488466e+03 
3.087000e-01 1.480961e+03 
3.099100e-01 1.473466e+03 
3.111200e-01 1.466076e+03 
3.123100e-01 1.458935e+03 
3.135300e-01 1.451682e+03 
3.147300e-01 1.444616e+03 
3.159900e-01 1.437267e+03 
3.171800e-01 1.430387e+03 
3.183700e-01 1.423566e+03 
3.196300e-01 1.416413e+03 
3.208400e-01 1.409608e+03 
3.220300e-01 1.402976e+03 
3.232000e-01 1.396514e+03 
3.244300e-01 1.389781e+03 
3.256700e-01 1.383056e+03 
3.269200e-01 1.376340e+03 
3.280800e-01 1.370164e+03 
3.292500e-01 1.364054e+03 
3.304800e-01 1.357709e+03 
3.317100e-01 1.351422e+03 
3.328900e-01 1.345444e+03 
3.340700e-01 1.339517e+03 
3.353600e-01 1.333095e+03 
3.365300e-01 1.327321e+03 
3.377100e-01 1.321548e+03 
3.389200e-01 1.315679e+03 
3.401600e-01 1.309718e+03 
3.413700e-01 1.303974e+03 
3.425300e-01 1.298530e+03 
3.437700e-01 1.292760e+03 
3.449800e-01 1.287179e+03 
3.461800e-01 1.281691e+03 
3.473600e-01 1.276361e+03 
3.485800e-01 1.270946e+03 
3.498100e-01 1.265534e+03 
3.510200e-01 1.260256e+03 
3.522000e-01 1.255150e+03 
3.533900e-01 1.250044e+03 
3.546400e-01 1.244723e+03 
3.558400e-01 1.239657e+03 
3.570600e-01 1.234549e+03 
3.582700e-01 1.229526e+03 
3.595000e-01 1.224461e+03 
3.607100e-01 1.219536e+03 
3.618900e-01 1.214785e+03 
3.631200e-01 1.209872e+03 
3.643200e-01 1.205118e+03 
3.655500e-01 1.200286e+03 
3.667300e-01 1.195686e+03 
3.679500e-01 1.191030e+03 
3.691900e-01 1.186336e+03 
3.703600e-01 1.181942e+03 
3.715700e-01 1.177433e+03 
3.727700e-01 1.172997e+03 
3.739900e-01 1.168519e+03 
3.752000e-01 1.164105e+03 
3.763900e-01 1.159799e+03 
3.775800e-01 1.155525e+03 
3.788200e-01 1.151107e+03 
3.800300e-01 1.146830e+03 
3.812100e-01 1.142693e+03 
3.824200e-01 1.138484e+03 
3.836100e-01 1.134377e+03 
3.848600e-01 1.130096e+03 
3.860400e-01 1.126086e+03 
3.872400e-01 1.122039e+03 
3.884600e-01 1.117953e+03 
3.896500e-01 1.113996e+03 
3.908700e-01 1.109970e+03 
3.920600e-01 1.106073e+03 
3.933100e-01 1.102011e+03 
3.945300e-01 1.098076e+03 
3.957200e-01 1.094274e+03 
3.969300e-01 1.090439e+03 
3.981700e-01 1.086538e+03 
3.993500e-01 1.082853e+03 
4.094840e-01 1.052284e+03 
4.272360e-01 1.002712e+03 
4.454600e-01 9.564728e+02 
4.630560e-01 9.154661e+02 
4.804610e-01 8.780945e+02 
4.980690e-01 8.431790e+02 
5.159230e-01 8.103478e+02 
5.317440e-01 7.833701e+02 
5.489640e-01 7.558477e+02 
5.671990e-01 7.288308e+02 
5.838690e-01 7.057338e+02 
6.018840e-01 6.824225e+02 
6.202330e-01 6.602390e+02 
6.379250e-01 6.401162e+02 
6.545410e-01 6.223882e+02 
6.714560e-01 6.053019e+02 
6.892080e-01 5.883110e+02 
7.066010e-01 5.725402e+02 
7.240540e-01 5.575385e+02 
7.420450e-01 5.427910e+02 
7.593780e-01 5.292514e+02 
7.764720e-01 5.165173e+02 
7.942840e-01 5.038170e+02 
8.116170e-01 4.919197e+02 
8.288310e-01 4.805426e+02 
8.462240e-01 4.694987e+02 
8.631980e-01 4.591552e+02 
8.810700e-01 4.486609e+02 
8.989410e-01 4.385108e+02 
9.166330e-01 4.288144e+02 
9.345640e-01 4.192954e+02 
9.515980e-01 4.105735e+02 
9.688720e-01 4.020091e+02 
9.865640e-01 3.934853e+02 
1.031870e+00 3.728173e+02 
1.063490e+00 3.592713e+02 
1.097920e+00 3.453477e+02 
1.134370e+00 3.314291e+02 
1.167730e+00 3.193566e+02 
1.203830e+00 3.069569e+02 
1.240470e+00 2.950946e+02 
1.275790e+00 2.841985e+02 
1.309140e+00 2.744448e+02 
1.342970e+00 2.650040e+02 
1.378420e+00 2.556107e+02 
1.413200e+00 2.468207e+02 
1.448110e+00 2.384136e+02 
1.484090e+00 2.301647e+02 
1.518820e+00 2.226069e+02 
1.552880e+00 2.154755e+02 
1.588630e+00 2.083568e+02 
1.623230e+00 2.017697e+02 
1.657720e+00 1.954996e+02 
1.692450e+00 1.894759e+02 
1.726400e+00 1.837865e+02 
1.762200e+00 1.780680e+02 
1.797880e+00 1.726136e+02 
1.833270e+00 1.674406e+02 
1.869070e+00 1.624284e+02 
1.903200e+00 1.578302e+02 
1.937740e+00 1.533643e+02 
1.973190e+00 1.489761e+02 
2.007440e+00 1.448986e+02 
2.042160e+00 1.409194e+02 
2.077900e+00 1.369793e+02 
2.112390e+00 1.333256e+02 
2.146220e+00 1.298800e+02 
2.181600e+00 1.263955e+02 
2.216930e+00 1.230543e+02 
2.250760e+00 1.199719e+02 
2.286500e+00 1.168291e+02 
2.321770e+00 1.138373e+02 
2.355950e+00 1.110358e+02 
2.391280e+00 1.082508e+02 
2.426240e+00 1.055932e+02 
2.460670e+00 1.030625e+02 
2.495640e+00 1.005737e+02 
2.531080e+00 9.813722e+01 
2.566220e+00 9.579960e+01 
2.600830e+00 9.357153e+01 
2.635080e+00 9.143673e+01 
2.670340e+00 8.931592e+01 
2.705970e+00 8.724381e+01 
2.740040e+00 8.532476e+01 
2.774520e+00 8.343598e+01 
2.809730e+00 8.157448e+01 
2.844390e+00 7.980116e+01 
2.879960e+00 7.803430e+01 
2.914860e+00 7.635195e+01 
2.949410e+00 7.473620e+01 
2.984440e+00 7.314594e+01 
3.019760e+00 7.158674e+01 
3.054730e+00 7.008736e+01 
3.089030e+00 6.866565e+01 
3.124060e+00 6.725460e+01 
3.159560e+00 6.586441e+01 
3.194710e+00 6.453175e+01 
3.229010e+00 6.326861e+01 
3.263320e+00 6.202948e+01 
3.297930e+00 6.081581e+01 
3.332830e+00 5.962907e+01 
3.368040e+00 5.846654e+01 
3.403300e+00 5.733561e+01 
3.438450e+00 5.623648e+01 
3.473060e+00 5.518269e+01 
3.508440e+00 5.413340e+01 
3.543110e+00 5.313209e+01 
3.577470e+00 5.216368e+01 
3.613040e+00 5.118815e+01 
3.648120e+00 5.025370e+01 
3.682910e+00 4.934934e+01 
3.718050e+00 4.845662e+01 
3.753320e+00 4.758525e+01 
3.787980e+00 4.675318e+01 
3.822290e+00 4.594836e+01 
3.857020e+00 4.515154e+01 
3.891920e+00 4.437126e+01 
3.926650e+00 4.361535e+01 
3.961970e+00 4.286453e+01 
3.997360e+00 4.212919e+01 
4.031670e+00 4.143355e+01 
4.066330e+00 4.074943e+01 
4.101420e+00 4.007273e+01 
4.136200e+00 3.941586e+01 
4.170810e+00 3.877697e+01 
4.206250e+00 3.813771e+01 
4.241580e+00 3.751493e+01 
4.276300e+00 3.691917e+01 
4.310970e+00 3.633875e+01 
4.346120e+00 3.576220e+01 
4.380600e+00 3.520731e+01 
4.414730e+00 3.466982e+01 
4.450350e+00 3.412470e+01 
4.485320e+00 3.360100e+01 
4.519810e+00 3.309378e+01 
4.555430e+00 3.258026e+01 
4.590870e+00 3.208153e+01 
4.625480e+00 3.160741e+01 
4.659910e+00 3.114530e+01 
4.695230e+00 3.068025e+01 
4.729960e+00 3.023215e+01 
4.764450e+00 2.979647e+01 
4.799530e+00 2.936291e+01 
4.834910e+00 2.893439e+01 
4.869700e+00 2.852197e+01 
4.904370e+00 2.811907e+01 
4.939450e+00 2.771961e+01 
4.973940e+00 2.733519e+01 
5.008430e+00 2.695804e+01 
5.043810e+00 2.657925e+01 
5.078840e+00 2.621176e+01 
5.113500e+00 2.585498e+01 
5.148890e+00 2.549809e+01 
5.184210e+00 2.514862e+01 
5.219060e+00 2.481029e+01 
5.253660e+00 2.448082e+01 
5.288570e+00 2.415441e+01 
5.323420e+00 2.383543e+01 
5.358440e+00 2.352173e+01 
5.393590e+00 2.321252e+01 
5.428310e+00 2.291226e+01 
5.462800e+00 2.261909e+01 
5.497640e+00 2.232811e+01 
5.532670e+00 2.204201e+01 
5.567280e+00 2.176467e+01 
5.602000e+00 2.149120e+01 
5.637270e+00 2.121844e+01 
5.672410e+00 2.095141e+01 
5.707020e+00 2.069286e+01 
5.742040e+00 2.043612e+01 
5.777430e+00 2.018114e+01 
5.812210e+00 1.993475e+01 
5.846820e+00 1.969417e+01 
5.881610e+00 1.945644e+01 
5.916510e+00 1.922185e+01 
5.951600e+00 1.899064e+01 
5.986560e+00 1.876439e+01 
6.021830e+00 1.853982e+01 
6.056490e+00 1.832271e+01 
6.091160e+00 1.810901e+01 
6.125830e+00 1.789867e+01 
6.161090e+00 1.768833e+01 
6.195760e+00 1.748519e+01 
6.230420e+00 1.728525e+01 
6.265690e+00 1.708500e+01 
6.300950e+00 1.688895e+01 
6.335620e+00 1.669915e+01 
6.370880e+00 1.650906e+01 
6.405550e+00 1.632502e+01 
6.440220e+00 1.614375e+01 
6.475480e+00 1.596218e+01 
6.510150e+00 1.578660e+01 
6.544810e+00 1.561430e+01 
6.580080e+00 1.544157e+01 
6.614750e+00 1.527429e+01 
6.649410e+00 1.510996e+01 
6.684080e+00 1.494805e+01 
6.719340e+00 1.478578e+01 
6.754010e+00 1.462857e+01 
6.788680e+00 1.447368e+01 
6.823940e+00 1.431840e+01 
6.859800e+00 1.416278e+01 
6.894470e+00 1.401506e+01 
6.929140e+00 1.386961e+01 
6.963800e+00 1.372623e+01 
6.999070e+00 1.358236e+01 
7.033730e+00 1.344283e+01 
7.068400e+00 1.330518e+01 
7.103660e+00 1.316712e+01 
7.138330e+00 1.303355e+01 
7.173600e+00 1.290018e+01 
7.208260e+00 1.277090e+01 
7.243530e+00 1.264113e+01 
7.277600e+00 1.251729e+01 
7.312860e+00 1.239070e+01 
7.348120e+00 1.226581e+01 
7.382790e+00 1.214466e+01 
7.417460e+00 1.202565e+01 
7.452720e+00 1.190650e+01 
7.487390e+00 1.179089e+01 
7.522650e+00 1.167484e+01 
7.557320e+00 1.156254e+01 
7.591990e+00 1.145181e+01 
7.627250e+00 1.134064e+01 
7.662510e+00 1.123091e+01 
7.697180e+00 1.112418e+01 
7.731850e+00 1.101872e+01 
7.766510e+00 1.091461e+01 
7.801180e+00 1.081178e+01 
7.836440e+00 1.070904e+01 
7.871110e+00 1.060961e+01 
7.906380e+00 1.050972e+01 
7.941040e+00 1.041278e+01 
7.976310e+00 1.031542e+01 
8.011570e+00 1.021936e+01 
8.046240e+00 1.012608e+01 
8.080900e+00 1.003395e+01 
8.115570e+00 9.942931e+00 
8.150830e+00 9.851560e+00 
8.185500e+00 9.762804e+00 
8.220770e+00 9.673599e+00 
8.255430e+00 9.586990e+00 
8.290100e+00 9.501774e+00 
8.324770e+00 9.417608e+00 
8.359430e+00 9.334455e+00 
8.394700e+00 9.250836e+00 
8.429960e+00 9.168281e+00 
8.464630e+00 9.088106e+00 
8.499890e+00 9.007519e+00 
8.534560e+00 8.929201e+00 
8.569200e+00 8.851850e+00 
