# Parameters:
# omega_b = 0.023201, omega_m = 0.128819, n_s = 1.035827, h = 80.984252, w = -1.000000, sigma_8 = 0.890551
# z = 0.300000
#
# k[1/Mpc] # P(k):
8.694000e-04 1.098745e+04 
2.077466e-03 2.463889e+04 
3.285532e-03 3.565928e+04 
4.493598e-03 4.425351e+04 
5.701664e-03 5.065516e+04 
6.909730e-03 5.518879e+04 
8.117797e-03 5.825294e+04 
9.325863e-03 6.004914e+04 
1.053393e-02 6.077992e+04 
1.174199e-02 6.063310e+04 
1.295006e-02 5.973819e+04 
1.415813e-02 5.827296e+04 
1.536619e-02 5.638659e+04 
1.657426e-02 5.419873e+04 
1.778233e-02 5.181529e+04 
1.899039e-02 4.929634e+04 
2.019846e-02 4.669311e+04 
2.140652e-02 4.414619e+04 
2.261459e-02 4.172454e+04 
2.382266e-02 3.946706e+04 
2.503072e-02 3.739827e+04 
2.623879e-02 3.552303e+04 
2.744685e-02 3.384528e+04 
2.865492e-02 3.235756e+04 
2.986299e-02 3.104790e+04 
3.100100e-02 2.997055e+04 
3.220400e-02 2.897877e+04 
3.288100e-02 2.848498e+04 
3.424300e-02 2.760697e+04 
3.555100e-02 2.688333e+04 
3.686000e-02 2.625631e+04 
3.795000e-02 2.578976e+04 
3.929100e-02 2.526819e+04 
4.039800e-02 2.486114e+04 
4.164000e-02 2.441692e+04 
4.294400e-02 2.393711e+04 
4.415000e-02 2.348346e+04 
4.542900e-02 2.296219e+04 
4.660900e-02 2.246117e+04 
4.782300e-02 2.189147e+04 
4.892900e-02 2.134785e+04 
5.031200e-02 2.062982e+04 
5.155900e-02 1.994837e+04 
5.238100e-02 1.948734e+04 
5.378200e-02 1.869244e+04 
5.513400e-02 1.791889e+04 
5.627600e-02 1.727029e+04 
5.735300e-02 1.667325e+04 
5.870100e-02 1.595440e+04 
5.988700e-02 1.535332e+04 
6.113500e-02 1.475767e+04 
6.225900e-02 1.425623e+04 
6.340100e-02 1.378723e+04 
6.480200e-02 1.326185e+04 
6.601100e-02 1.285713e+04 
6.725500e-02 1.248488e+04 
6.829100e-02 1.221195e+04 
6.958600e-02 1.190696e+04 
7.071100e-02 1.167641e+04 
7.192300e-02 1.145697e+04 
7.307400e-02 1.127284e+04 
7.412300e-02 1.112296e+04 
7.550400e-02 1.094952e+04 
7.663100e-02 1.082051e+04 
7.791200e-02 1.068598e+04 
7.912700e-02 1.056254e+04 
8.027600e-02 1.044776e+04 
8.138400e-02 1.033591e+04 
8.272200e-02 1.019546e+04 
8.406100e-02 1.004722e+04 
8.534100e-02 9.892213e+03 
8.653800e-02 9.736577e+03 
8.759800e-02 9.591975e+03 
8.900300e-02 9.388729e+03 
9.009000e-02 9.221735e+03 
9.113300e-02 9.054916e+03 
9.239600e-02 8.849891e+03 
9.358000e-02 8.653316e+03 
9.496100e-02 8.419868e+03 
9.608400e-02 8.231881e+03 
9.727500e-02 8.035684e+03 
9.852600e-02 7.833279e+03 
9.973800e-02 7.644557e+03 
1.009000e-01 7.470139e+03 
1.020900e-01 7.303052e+03 
1.034000e-01 7.129185e+03 
1.046000e-01 6.979446e+03 
1.057200e-01 6.852522e+03 
1.069100e-01 6.725151e+03 
1.082500e-01 6.597754e+03 
1.093900e-01 6.499224e+03 
1.105400e-01 6.406306e+03 
1.116900e-01 6.325197e+03 
1.129600e-01 6.240916e+03 
1.142000e-01 6.167649e+03 
1.153300e-01 6.104571e+03 
1.166400e-01 6.036444e+03 
1.177800e-01 5.979534e+03 
1.190000e-01 5.920539e+03 
1.201200e-01 5.865556e+03 
1.213400e-01 5.806720e+03 
1.227100e-01 5.736755e+03 
1.238900e-01 5.676398e+03 
1.250700e-01 5.612001e+03 
1.263200e-01 5.542969e+03 
1.275500e-01 5.471275e+03 
1.287500e-01 5.400550e+03 
1.299900e-01 5.325358e+03 
1.311300e-01 5.255645e+03 
1.323500e-01 5.179477e+03 
1.335900e-01 5.102664e+03 
1.347100e-01 5.033249e+03 
1.359800e-01 4.955951e+03 
1.372100e-01 4.882126e+03 
1.384300e-01 4.810678e+03 
1.395700e-01 4.745639e+03 
1.407700e-01 4.678789e+03 
1.420300e-01 4.611758e+03 
1.432800e-01 4.546737e+03 
1.444500e-01 4.489333e+03 
1.456300e-01 4.432613e+03 
1.468900e-01 4.375527e+03 
1.480500e-01 4.324701e+03 
1.491700e-01 4.277540e+03 
1.503800e-01 4.228819e+03 
1.516400e-01 4.179521e+03 
1.528200e-01 4.136082e+03 
1.540200e-01 4.092746e+03 
1.551900e-01 4.052397e+03 
1.564300e-01 4.010710e+03 
1.576600e-01 3.970671e+03 
1.588700e-01 3.932645e+03 
1.600900e-01 3.895016e+03 
1.612700e-01 3.859274e+03 
1.625400e-01 3.821516e+03 
1.637600e-01 3.785763e+03 
1.649500e-01 3.751421e+03 
1.662200e-01 3.715285e+03 
1.674000e-01 3.681480e+03 
1.685000e-01 3.650490e+03 
1.697500e-01 3.615256e+03 
1.710300e-01 3.579218e+03 
1.722200e-01 3.546305e+03 
1.734400e-01 3.511957e+03 
1.746400e-01 3.478700e+03 
1.758700e-01 3.444943e+03 
1.770900e-01 3.411526e+03 
1.782700e-01 3.379742e+03 
1.794600e-01 3.347787e+03 
1.807000e-01 3.314757e+03 
1.819100e-01 3.283064e+03 
1.830100e-01 3.254479e+03 
1.842200e-01 3.223487e+03 
1.855000e-01 3.191266e+03 
1.867000e-01 3.161972e+03 
1.879200e-01 3.132664e+03 
1.890900e-01 3.105074e+03 
1.902800e-01 3.077844e+03 
1.915200e-01 3.049915e+03 
1.926900e-01 3.024113e+03 
1.939000e-01 2.998301e+03 
1.951700e-01 2.971632e+03 
1.963100e-01 2.948199e+03 
1.975100e-01 2.924277e+03 
1.987800e-01 2.899345e+03 
2.000100e-01 2.875698e+03 
2.012500e-01 2.852516e+03 
2.023400e-01 2.832426e+03 
2.036100e-01 2.809384e+03 
2.048900e-01 2.786643e+03 
2.060400e-01 2.766507e+03 
2.072200e-01 2.746135e+03 
2.084200e-01 2.725769e+03 
2.096900e-01 2.704525e+03 
2.109200e-01 2.684249e+03 
2.121100e-01 2.664772e+03 
2.132700e-01 2.646037e+03 
2.145200e-01 2.626125e+03 
2.157200e-01 2.607197e+03 
2.168800e-01 2.589108e+03 
2.180700e-01 2.570796e+03 
2.193400e-01 2.551482e+03 
2.206000e-01 2.532518e+03 
2.217500e-01 2.515440e+03 
2.229500e-01 2.497849e+03 
2.241400e-01 2.480586e+03 
2.253500e-01 2.463259e+03 
2.264900e-01 2.447143e+03 
2.277100e-01 2.430162e+03 
2.289900e-01 2.412635e+03 
2.301500e-01 2.396958e+03 
2.313600e-01 2.380810e+03 
2.325600e-01 2.365040e+03 
2.337700e-01 2.349339e+03 
2.350000e-01 2.333581e+03 
2.362000e-01 2.318475e+03 
2.374100e-01 2.303518e+03 
2.386500e-01 2.288384e+03 
2.399100e-01 2.273201e+03 
2.410400e-01 2.259780e+03 
2.422500e-01 2.245583e+03 
2.435000e-01 2.231097e+03 
2.447300e-01 2.217065e+03 
2.458700e-01 2.204393e+03 
2.470600e-01 2.191317e+03 
2.483300e-01 2.177532e+03 
2.495600e-01 2.164390e+03 
2.507600e-01 2.151782e+03 
2.519600e-01 2.139322e+03 
2.532200e-01 2.126394e+03 
2.543700e-01 2.114771e+03 
2.555500e-01 2.103004e+03 
2.568000e-01 2.090684e+03 
2.580100e-01 2.078896e+03 
2.592400e-01 2.067091e+03 
2.604100e-01 2.056005e+03 
2.616100e-01 2.044761e+03 
2.628400e-01 2.033366e+03 
2.640600e-01 2.022160e+03 
2.652200e-01 2.011609e+03 
2.664300e-01 2.000722e+03 
2.676500e-01 1.989868e+03 
2.688400e-01 1.979373e+03 
2.700700e-01 1.968630e+03 
2.712400e-01 1.958521e+03 
2.724800e-01 1.947923e+03 
2.736700e-01 1.937874e+03 
2.748800e-01 1.927774e+03 
2.761000e-01 1.917700e+03 
2.773200e-01 1.907735e+03 
2.785400e-01 1.897843e+03 
2.797000e-01 1.888464e+03 
2.808900e-01 1.878941e+03 
2.821400e-01 1.869044e+03 
2.833900e-01 1.859256e+03 
2.845500e-01 1.850302e+03 
2.857800e-01 1.840905e+03 
2.870300e-01 1.831457e+03 
2.882100e-01 1.822630e+03 
2.893900e-01 1.813833e+03 
2.906300e-01 1.804652e+03 
2.918900e-01 1.795421e+03 
2.930500e-01 1.787008e+03 
2.942500e-01 1.778400e+03 
2.954200e-01 1.770118e+03 
2.966500e-01 1.761498e+03 
2.978900e-01 1.752896e+03 
2.990400e-01 1.744997e+03 
3.002700e-01 1.736614e+03 
3.015100e-01 1.728241e+03 
3.026800e-01 1.720418e+03 
3.038500e-01 1.712668e+03 
3.050300e-01 1.704925e+03 
3.062600e-01 1.696855e+03 
3.075000e-01 1.688800e+03 
3.087000e-01 1.681080e+03 
3.099100e-01 1.673369e+03 
3.111200e-01 1.665766e+03 
3.123100e-01 1.658417e+03 
3.135300e-01 1.650954e+03 
3.147300e-01 1.643682e+03 
3.159900e-01 1.636119e+03 
3.171800e-01 1.629028e+03 
3.183700e-01 1.621992e+03 
3.196300e-01 1.614612e+03 
3.208400e-01 1.607592e+03 
3.220300e-01 1.600751e+03 
3.232000e-01 1.594069e+03 
3.244300e-01 1.587101e+03 
3.256700e-01 1.580143e+03 
3.269200e-01 1.573194e+03 
3.280800e-01 1.566803e+03 
3.292500e-01 1.560468e+03 
3.304800e-01 1.553886e+03 
3.317100e-01 1.547363e+03 
3.328900e-01 1.541161e+03 
3.340700e-01 1.535013e+03 
3.353600e-01 1.528331e+03 
3.365300e-01 1.522316e+03 
3.377100e-01 1.516302e+03 
3.389200e-01 1.510188e+03 
3.401600e-01 1.503978e+03 
3.413700e-01 1.497983e+03 
3.425300e-01 1.492293e+03 
3.437700e-01 1.486262e+03 
3.449800e-01 1.480428e+03 
3.461800e-01 1.474692e+03 
3.473600e-01 1.469113e+03 
3.485800e-01 1.463427e+03 
3.498100e-01 1.457744e+03 
3.510200e-01 1.452200e+03 
3.522000e-01 1.446840e+03 
3.533900e-01 1.441479e+03 
3.546400e-01 1.435862e+03 
3.558400e-01 1.430515e+03 
3.570600e-01 1.425123e+03 
3.582700e-01 1.419821e+03 
3.595000e-01 1.414476e+03 
3.607100e-01 1.409268e+03 
3.618900e-01 1.404236e+03 
3.631200e-01 1.399034e+03 
3.643200e-01 1.394001e+03 
3.655500e-01 1.388884e+03 
3.667300e-01 1.384015e+03 
3.679500e-01 1.379064e+03 
3.691900e-01 1.374073e+03 
3.703600e-01 1.369402e+03 
3.715700e-01 1.364610e+03 
3.727700e-01 1.359895e+03 
3.739900e-01 1.355130e+03 
3.752000e-01 1.350425e+03 
3.763900e-01 1.345834e+03 
3.775800e-01 1.341278e+03 
3.788200e-01 1.336569e+03 
3.800300e-01 1.332011e+03 
3.812100e-01 1.327589e+03 
3.824200e-01 1.323084e+03 
3.836100e-01 1.318687e+03 
3.848600e-01 1.314105e+03 
3.860400e-01 1.309812e+03 
3.872400e-01 1.305481e+03 
3.884600e-01 1.301099e+03 
3.896500e-01 1.296852e+03 
3.908700e-01 1.292532e+03 
3.920600e-01 1.288350e+03 
3.933100e-01 1.283991e+03 
3.945300e-01 1.279769e+03 
3.957200e-01 1.275684e+03 
3.969300e-01 1.271563e+03 
3.981700e-01 1.267371e+03 
3.993500e-01 1.263412e+03 
4.094840e-01 1.230520e+03 
4.272360e-01 1.177106e+03 
4.454600e-01 1.127224e+03 
4.630560e-01 1.082979e+03 
4.804610e-01 1.042631e+03 
4.980690e-01 1.004920e+03 
5.159230e-01 9.693807e+02 
5.317440e-01 9.401221e+02 
5.489640e-01 9.101649e+02 
5.671990e-01 8.806524e+02 
5.838690e-01 8.553128e+02 
6.018840e-01 8.296298e+02 
6.202330e-01 8.050498e+02 
6.379250e-01 7.826638e+02 
6.545410e-01 7.628406e+02 
6.714560e-01 7.436616e+02 
6.892080e-01 7.245037e+02 
7.066010e-01 7.066467e+02 
7.240540e-01 6.896085e+02 
7.420450e-01 6.727875e+02 
7.593780e-01 6.572962e+02 
7.764720e-01 6.426884e+02 
7.942840e-01 6.280766e+02 
8.116170e-01 6.143446e+02 
8.288310e-01 6.011806e+02 
8.462240e-01 5.883818e+02 
8.631980e-01 5.763647e+02 
8.810700e-01 5.641502e+02 
8.989410e-01 5.523096e+02 
9.166330e-01 5.409793e+02 
9.345640e-01 5.298373e+02 
9.515980e-01 5.196090e+02 
9.688720e-01 5.095525e+02 
9.865640e-01 4.995279e+02 
1.031870e+00 4.751410e+02 
1.063490e+00 4.590959e+02 
1.097920e+00 4.425643e+02 
1.134370e+00 4.259885e+02 
1.167730e+00 4.115700e+02 
1.203830e+00 3.967104e+02 
1.240470e+00 3.824587e+02 
1.275790e+00 3.693173e+02 
1.309140e+00 3.575309e+02 
1.342970e+00 3.460842e+02 
1.378420e+00 3.346687e+02 
1.413200e+00 3.239530e+02 
1.448110e+00 3.136726e+02 
1.484090e+00 3.035626e+02 
1.518820e+00 2.942723e+02 
1.552880e+00 2.854779e+02 
1.588630e+00 2.766809e+02 
1.623230e+00 2.685171e+02 
1.657720e+00 2.607275e+02 
1.692450e+00 2.532278e+02 
1.726400e+00 2.461203e+02 
1.762200e+00 2.389621e+02 
1.797880e+00 2.321188e+02 
1.833270e+00 2.256122e+02 
1.869070e+00 2.192929e+02 
1.903200e+00 2.134817e+02 
1.937740e+00 2.078257e+02 
1.973190e+00 2.022572e+02 
2.007440e+00 1.970707e+02 
2.042160e+00 1.919983e+02 
2.077900e+00 1.869639e+02 
2.112390e+00 1.822877e+02 
2.146220e+00 1.778680e+02 
2.181600e+00 1.733895e+02 
2.216930e+00 1.690865e+02 
2.250760e+00 1.651093e+02 
2.286500e+00 1.610468e+02 
2.321770e+00 1.571721e+02 
2.355950e+00 1.535374e+02 
2.391280e+00 1.499170e+02 
2.426240e+00 1.464565e+02 
2.460670e+00 1.431555e+02 
2.495640e+00 1.399036e+02 
2.531080e+00 1.367141e+02 
2.566220e+00 1.336488e+02 
2.600830e+00 1.307223e+02 
2.635080e+00 1.279138e+02 
2.670340e+00 1.251191e+02 
2.705970e+00 1.223844e+02 
2.740040e+00 1.198481e+02 
2.774520e+00 1.173475e+02 
2.809730e+00 1.148796e+02 
2.844390e+00 1.125258e+02 
2.879960e+00 1.101766e+02 
2.914860e+00 1.079359e+02 
2.949410e+00 1.057814e+02 
2.984440e+00 1.036578e+02 
3.019760e+00 1.015723e+02 
3.054730e+00 9.956438e+01 
3.089030e+00 9.765773e+01 
3.124060e+00 9.576322e+01 
3.159560e+00 9.389411e+01 
3.194710e+00 9.210026e+01 
3.229010e+00 9.039846e+01 
3.263320e+00 8.872527e+01 
3.297930e+00 8.708512e+01 
3.332830e+00 8.547963e+01 
3.368040e+00 8.390493e+01 
3.403300e+00 8.237138e+01 
3.438450e+00 8.087877e+01 
3.473060e+00 7.944661e+01 
3.508440e+00 7.801831e+01 
3.543110e+00 7.665424e+01 
3.577470e+00 7.533284e+01 
3.613040e+00 7.400070e+01 
3.648120e+00 7.272325e+01 
3.682910e+00 7.148567e+01 
3.718050e+00 7.026224e+01 
3.753320e+00 6.906715e+01 
3.787980e+00 6.792498e+01 
3.822290e+00 6.681901e+01 
3.857020e+00 6.572255e+01 
3.891920e+00 6.464801e+01 
3.926650e+00 6.360599e+01 
3.961970e+00 6.257011e+01 
3.997360e+00 6.155420e+01 
4.031670e+00 6.059250e+01 
4.066330e+00 5.964566e+01 
4.101420e+00 5.870856e+01 
4.136200e+00 5.779764e+01 
4.170810e+00 5.691121e+01 
4.206250e+00 5.602287e+01 
4.241580e+00 5.515681e+01 
4.276300e+00 5.432772e+01 
4.310970e+00 5.351945e+01 
4.346120e+00 5.271576e+01 
4.380600e+00 5.194120e+01 
4.414730e+00 5.119054e+01 
4.450350e+00 5.042851e+01 
4.485320e+00 4.969606e+01 
4.519810e+00 4.898569e+01 
4.555430e+00 4.826588e+01 
4.590870e+00 4.756633e+01 
4.625480e+00 4.690072e+01 
4.659910e+00 4.625166e+01 
4.695230e+00 4.559761e+01 
4.729960e+00 4.496701e+01 
4.764450e+00 4.435337e+01 
4.799530e+00 4.374205e+01 
4.834910e+00 4.313754e+01 
4.869700e+00 4.255502e+01 
4.904370e+00 4.198560e+01 
4.939450e+00 4.142068e+01 
4.973940e+00 4.087650e+01 
5.008430e+00 4.034237e+01 
5.043810e+00 3.980528e+01 
5.078840e+00 3.928377e+01 
5.113500e+00 3.877721e+01 
5.148890e+00 3.826986e+01 
5.184210e+00 3.777282e+01 
5.219060e+00 3.729131e+01 
5.253660e+00 3.682186e+01 
5.288570e+00 3.635660e+01 
5.323420e+00 3.590150e+01 
5.358440e+00 3.545352e+01 
5.393590e+00 3.501175e+01 
5.428310e+00 3.458225e+01 
5.462800e+00 3.416251e+01 
5.497640e+00 3.374573e+01 
5.532670e+00 3.333552e+01 
5.567280e+00 3.293761e+01 
5.602000e+00 3.254510e+01 
5.637270e+00 3.215306e+01 
5.672410e+00 3.176902e+01 
5.707020e+00 3.139702e+01 
5.742040e+00 3.102711e+01 
5.777430e+00 3.065951e+01 
5.812210e+00 3.030416e+01 
5.846820e+00 2.995669e+01 
5.881610e+00 2.961313e+01 
5.916510e+00 2.927398e+01 
5.951600e+00 2.893931e+01 
5.986560e+00 2.861157e+01 
6.021830e+00 2.828615e+01 
6.056490e+00 2.797119e+01 
6.091160e+00 2.766084e+01 
6.125830e+00 2.735527e+01 
6.161090e+00 2.704946e+01 
6.195760e+00 2.675372e+01 
6.230420e+00 2.646253e+01 
6.265690e+00 2.617077e+01 
6.300950e+00 2.588460e+01 
6.335620e+00 2.560745e+01 
6.370880e+00 2.532979e+01 
6.405550e+00 2.506058e+01 
6.440220e+00 2.479522e+01 
6.475480e+00 2.452932e+01 
6.510150e+00 2.427198e+01 
6.544810e+00 2.401910e+01 
6.580080e+00 2.376549e+01 
6.614750e+00 2.351979e+01 
6.649410e+00 2.327805e+01 
6.684080e+00 2.303974e+01 
6.719340e+00 2.280081e+01 
6.754010e+00 2.256912e+01 
6.788680e+00 2.234045e+01 
6.823940e+00 2.211115e+01 
6.859800e+00 2.188127e+01 
6.894470e+00 2.166271e+01 
6.929140e+00 2.144737e+01 
6.963800e+00 2.123503e+01 
6.999070e+00 2.102186e+01 
7.033730e+00 2.081466e+01 
7.068400e+00 2.061018e+01 
7.103660e+00 2.040505e+01 
7.138330e+00 2.020640e+01 
7.173600e+00 2.000774e+01 
7.208260e+00 1.981511e+01 
7.243530e+00 1.962170e+01 
7.277600e+00 1.943688e+01 
7.312860e+00 1.924769e+01 
7.348120e+00 1.906101e+01 
7.382790e+00 1.887985e+01 
7.417460e+00 1.870162e+01 
7.452720e+00 1.852301e+01 
7.487390e+00 1.834966e+01 
7.522650e+00 1.817562e+01 
7.557320e+00 1.800689e+01 
7.591990e+00 1.784037e+01 
7.627250e+00 1.767317e+01 
7.662510e+00 1.750809e+01 
7.697180e+00 1.734718e+01 
7.731850e+00 1.718803e+01 
7.766510e+00 1.703089e+01 
7.801180e+00 1.687566e+01 
7.836440e+00 1.672032e+01 
7.871110e+00 1.656983e+01 
7.906380e+00 1.641861e+01 
7.941040e+00 1.627182e+01 
7.976310e+00 1.612421e+01 
8.011570e+00 1.597835e+01 
8.046240e+00 1.583668e+01 
8.080900e+00 1.569674e+01 
8.115570e+00 1.555837e+01 
8.150830e+00 1.541915e+01 
8.185500e+00 1.528389e+01 
8.220770e+00 1.514793e+01 
8.255430e+00 1.501590e+01 
8.290100e+00 1.488568e+01 
8.324770e+00 1.475701e+01 
8.359430e+00 1.462987e+01 
8.394700e+00 1.450200e+01 
8.429960e+00 1.437558e+01 
8.464630e+00 1.425263e+01 
8.499890e+00 1.412903e+01 
8.534560e+00 1.400889e+01 
8.569200e+00 1.389023e+01 
