# Parameters:
# omega_b = 0.023028, omega_m = 0.134055, n_s = 1.038976, h = 83.346457, w = -1.000000, sigma_8 = 0.866929
# z = 0.300000
#
# k[1/Mpc] # P(k):
8.694000e-04 8.757430e+03 
2.077466e-03 1.979177e+04 
3.285532e-03 2.881570e+04 
4.493598e-03 3.595639e+04 
5.701664e-03 4.137257e+04 
6.909730e-03 4.530103e+04 
8.117797e-03 4.804597e+04 
9.325863e-03 4.976065e+04 
1.053393e-02 5.060198e+04 
1.174199e-02 5.071717e+04 
1.295006e-02 5.020750e+04 
1.415813e-02 4.921381e+04 
1.536619e-02 4.785445e+04 
1.657426e-02 4.623267e+04 
1.778233e-02 4.444907e+04 
1.899039e-02 4.250892e+04 
2.019846e-02 4.041727e+04 
2.140652e-02 3.832674e+04 
2.261459e-02 3.632180e+04 
2.382266e-02 3.444130e+04 
2.503072e-02 3.270828e+04 
2.623879e-02 3.112920e+04 
2.744685e-02 2.970874e+04 
2.865492e-02 2.844353e+04 
2.986299e-02 2.732536e+04 
3.100100e-02 2.640221e+04 
3.220400e-02 2.555016e+04 
3.288100e-02 2.512535e+04 
3.424300e-02 2.436973e+04 
3.555100e-02 2.374774e+04 
3.686000e-02 2.321061e+04 
3.795000e-02 2.281285e+04 
3.929100e-02 2.237156e+04 
4.039800e-02 2.202958e+04 
4.164000e-02 2.165831e+04 
4.294400e-02 2.125905e+04 
4.415000e-02 2.088168e+04 
4.542900e-02 2.044670e+04 
4.660900e-02 2.002707e+04 
4.782300e-02 1.954624e+04 
4.892900e-02 1.908461e+04 
5.031200e-02 1.847040e+04 
5.155900e-02 1.788271e+04 
5.238100e-02 1.748275e+04 
5.378200e-02 1.678930e+04 
5.513400e-02 1.610965e+04 
5.627600e-02 1.553645e+04 
5.735300e-02 1.500649e+04 
5.870100e-02 1.436563e+04 
5.988700e-02 1.382776e+04 
6.113500e-02 1.329307e+04 
6.225900e-02 1.284172e+04 
6.340100e-02 1.241869e+04 
6.480200e-02 1.194413e+04 
6.601100e-02 1.157810e+04 
6.725500e-02 1.124132e+04 
6.829100e-02 1.099447e+04 
6.958600e-02 1.071881e+04 
7.071100e-02 1.051079e+04 
7.192300e-02 1.031320e+04 
7.307400e-02 1.014785e+04 
7.412300e-02 1.001369e+04 
7.550400e-02 9.859143e+03 
7.663100e-02 9.744635e+03 
7.791200e-02 9.625900e+03 
7.912700e-02 9.517437e+03 
8.027600e-02 9.416915e+03 
8.138400e-02 9.319145e+03 
8.272200e-02 9.196543e+03 
8.406100e-02 9.067244e+03 
8.534100e-02 8.932021e+03 
8.653800e-02 8.796205e+03 
8.759800e-02 8.669926e+03 
8.900300e-02 8.492218e+03 
9.009000e-02 8.345965e+03 
9.113300e-02 8.199591e+03 
9.239600e-02 8.019382e+03 
9.358000e-02 7.846148e+03 
9.496100e-02 7.639581e+03 
9.608400e-02 7.472678e+03 
9.727500e-02 7.298023e+03 
9.852600e-02 7.116583e+03 
9.973800e-02 6.946794e+03 
1.009000e-01 6.789366e+03 
1.020900e-01 6.637311e+03 
1.034000e-01 6.478543e+03 
1.046000e-01 6.341237e+03 
1.057200e-01 6.224024e+03 
1.069100e-01 6.106139e+03 
1.082500e-01 5.987521e+03 
1.093900e-01 5.895496e+03 
1.105400e-01 5.808537e+03 
1.116900e-01 5.732445e+03 
1.129600e-01 5.653368e+03 
1.142000e-01 5.584755e+03 
1.153300e-01 5.525869e+03 
1.166400e-01 5.462565e+03 
1.177800e-01 5.410177e+03 
1.190000e-01 5.356102e+03 
1.201200e-01 5.306421e+03 
1.213400e-01 5.253382e+03 
1.227100e-01 5.191227e+03 
1.238900e-01 5.137748e+03 
1.250700e-01 5.081100e+03 
1.263200e-01 5.020447e+03 
1.275500e-01 4.957606e+03 
1.287500e-01 4.895587e+03 
1.299900e-01 4.829606e+03 
1.311300e-01 4.768276e+03 
1.323500e-01 4.701042e+03 
1.335900e-01 4.632994e+03 
1.347100e-01 4.571186e+03 
1.359800e-01 4.502115e+03 
1.372100e-01 4.435671e+03 
1.384300e-01 4.371154e+03 
1.395700e-01 4.311928e+03 
1.407700e-01 4.250992e+03 
1.420300e-01 4.189251e+03 
1.432800e-01 4.129368e+03 
1.444500e-01 4.075990e+03 
1.456300e-01 4.023255e+03 
1.468900e-01 3.969962e+03 
1.480500e-01 3.922450e+03 
1.491700e-01 3.878345e+03 
1.503800e-01 3.832756e+03 
1.516400e-01 3.786662e+03 
1.528200e-01 3.746186e+03 
1.540200e-01 3.705807e+03 
1.551900e-01 3.668477e+03 
1.564300e-01 3.629978e+03 
1.576600e-01 3.593171e+03 
1.588700e-01 3.558422e+03 
1.600900e-01 3.524056e+03 
1.612700e-01 3.491758e+03 
1.625400e-01 3.457638e+03 
1.637600e-01 3.425484e+03 
1.649500e-01 3.394689e+03 
1.662200e-01 3.362300e+03 
1.674000e-01 3.332087e+03 
1.685000e-01 3.304389e+03 
1.697500e-01 3.272880e+03 
1.710300e-01 3.240634e+03 
1.722200e-01 3.211182e+03 
1.734400e-01 3.180313e+03 
1.746400e-01 3.150419e+03 
1.758700e-01 3.120015e+03 
1.770900e-01 3.089792e+03 
1.782700e-01 3.061046e+03 
1.794600e-01 3.032030e+03 
1.807000e-01 3.001961e+03 
1.819100e-01 2.973110e+03 
1.830100e-01 2.946954e+03 
1.842200e-01 2.918573e+03 
1.855000e-01 2.889062e+03 
1.867000e-01 2.862108e+03 
1.879200e-01 2.835142e+03 
1.890900e-01 2.809746e+03 
1.902800e-01 2.784620e+03 
1.915200e-01 2.758849e+03 
1.926900e-01 2.735035e+03 
1.939000e-01 2.711192e+03 
1.951700e-01 2.686558e+03 
1.963100e-01 2.664918e+03 
1.975100e-01 2.642836e+03 
1.987800e-01 2.619823e+03 
2.000100e-01 2.598011e+03 
2.012500e-01 2.576660e+03 
2.023400e-01 2.558158e+03 
2.036100e-01 2.536952e+03 
2.048900e-01 2.516078e+03 
2.060400e-01 2.497596e+03 
2.072200e-01 2.478903e+03 
2.084200e-01 2.460284e+03 
2.096900e-01 2.440863e+03 
2.109200e-01 2.422327e+03 
2.121100e-01 2.404595e+03 
2.132700e-01 2.387540e+03 
2.145200e-01 2.369415e+03 
2.157200e-01 2.352238e+03 
2.168800e-01 2.335847e+03 
2.180700e-01 2.319254e+03 
2.193400e-01 2.301783e+03 
2.206000e-01 2.284685e+03 
2.217500e-01 2.269287e+03 
2.229500e-01 2.253428e+03 
2.241400e-01 2.237948e+03 
2.253500e-01 2.222414e+03 
2.264900e-01 2.207965e+03 
2.277100e-01 2.192787e+03 
2.289900e-01 2.177174e+03 
2.301500e-01 2.163208e+03 
2.313600e-01 2.148824e+03 
2.325600e-01 2.134871e+03 
2.337700e-01 2.120979e+03 
2.350000e-01 2.107037e+03 
2.362000e-01 2.093709e+03 
2.374100e-01 2.080558e+03 
2.386500e-01 2.067251e+03 
2.399100e-01 2.053901e+03 
2.410400e-01 2.042146e+03 
2.422500e-01 2.029716e+03 
2.435000e-01 2.017035e+03 
2.447300e-01 2.004754e+03 
2.458700e-01 1.993681e+03 
2.470600e-01 1.982256e+03 
2.483300e-01 1.970211e+03 
2.495600e-01 1.958718e+03 
2.507600e-01 1.947681e+03 
2.519600e-01 1.936773e+03 
2.532200e-01 1.925455e+03 
2.543700e-01 1.915247e+03 
2.555500e-01 1.904891e+03 
2.568000e-01 1.894047e+03 
2.580100e-01 1.883673e+03 
2.592400e-01 1.873228e+03 
2.604100e-01 1.863395e+03 
2.616100e-01 1.853422e+03 
2.628400e-01 1.843315e+03 
2.640600e-01 1.833312e+03 
2.652200e-01 1.823870e+03 
2.664300e-01 1.814128e+03 
2.676500e-01 1.804414e+03 
2.688400e-01 1.794973e+03 
2.700700e-01 1.785279e+03 
2.712400e-01 1.776157e+03 
2.724800e-01 1.766594e+03 
2.736700e-01 1.757494e+03 
2.748800e-01 1.748317e+03 
2.761000e-01 1.739163e+03 
2.773200e-01 1.730108e+03 
2.785400e-01 1.721106e+03 
2.797000e-01 1.712541e+03 
2.808900e-01 1.703845e+03 
2.821400e-01 1.694807e+03 
2.833900e-01 1.685866e+03 
2.845500e-01 1.677663e+03 
2.857800e-01 1.669053e+03 
2.870300e-01 1.660396e+03 
2.882100e-01 1.652308e+03 
2.893900e-01 1.644238e+03 
2.906300e-01 1.635810e+03 
2.918900e-01 1.627337e+03 
2.930500e-01 1.619614e+03 
2.942500e-01 1.611710e+03 
2.954200e-01 1.604100e+03 
2.966500e-01 1.596179e+03 
2.978900e-01 1.588274e+03 
2.990400e-01 1.581014e+03 
3.002700e-01 1.573309e+03 
3.015100e-01 1.565611e+03 
3.026800e-01 1.558418e+03 
3.038500e-01 1.551293e+03 
3.050300e-01 1.544173e+03 
3.062600e-01 1.536752e+03 
3.075000e-01 1.529345e+03 
3.087000e-01 1.522245e+03 
3.099100e-01 1.515155e+03 
3.111200e-01 1.508162e+03 
3.123100e-01 1.501401e+03 
3.135300e-01 1.494534e+03 
3.147300e-01 1.487844e+03 
3.159900e-01 1.480886e+03 
3.171800e-01 1.474362e+03 
3.183700e-01 1.467888e+03 
3.196300e-01 1.461097e+03 
3.208400e-01 1.454638e+03 
3.220300e-01 1.448343e+03 
3.232000e-01 1.442194e+03 
3.244300e-01 1.435782e+03 
3.256700e-01 1.429378e+03 
3.269200e-01 1.422983e+03 
3.280800e-01 1.417102e+03 
3.292500e-01 1.411271e+03 
3.304800e-01 1.405212e+03 
3.317100e-01 1.399207e+03 
3.328900e-01 1.393498e+03 
3.340700e-01 1.387839e+03 
3.353600e-01 1.381687e+03 
3.365300e-01 1.376150e+03 
3.377100e-01 1.370614e+03 
3.389200e-01 1.364986e+03 
3.401600e-01 1.359269e+03 
3.413700e-01 1.353750e+03 
3.425300e-01 1.348511e+03 
3.437700e-01 1.342958e+03 
3.449800e-01 1.337588e+03 
3.461800e-01 1.332307e+03 
3.473600e-01 1.327171e+03 
3.485800e-01 1.321940e+03 
3.498100e-01 1.316711e+03 
3.510200e-01 1.311611e+03 
3.522000e-01 1.306678e+03 
3.533900e-01 1.301745e+03 
3.546400e-01 1.296579e+03 
3.558400e-01 1.291659e+03 
3.570600e-01 1.286699e+03 
3.582700e-01 1.281821e+03 
3.595000e-01 1.276903e+03 
3.607100e-01 1.272113e+03 
3.618900e-01 1.267487e+03 
3.631200e-01 1.262703e+03 
3.643200e-01 1.258075e+03 
3.655500e-01 1.253369e+03 
3.667300e-01 1.248892e+03 
3.679500e-01 1.244344e+03 
3.691900e-01 1.239760e+03 
3.703600e-01 1.235469e+03 
3.715700e-01 1.231067e+03 
3.727700e-01 1.226735e+03 
3.739900e-01 1.222359e+03 
3.752000e-01 1.218037e+03 
3.763900e-01 1.213820e+03 
3.775800e-01 1.209637e+03 
3.788200e-01 1.205311e+03 
3.800300e-01 1.201124e+03 
3.812100e-01 1.197067e+03 
3.824200e-01 1.192934e+03 
3.836100e-01 1.188901e+03 
3.848600e-01 1.184698e+03 
3.860400e-01 1.180761e+03 
3.872400e-01 1.176788e+03 
3.884600e-01 1.172773e+03 
3.896500e-01 1.168884e+03 
3.908700e-01 1.164927e+03 
3.920600e-01 1.161096e+03 
3.933100e-01 1.157103e+03 
3.945300e-01 1.153236e+03 
3.957200e-01 1.149496e+03 
3.969300e-01 1.145722e+03 
3.981700e-01 1.141884e+03 
3.993500e-01 1.138259e+03 
4.094840e-01 1.108171e+03 
4.272360e-01 1.059401e+03 
4.454600e-01 1.013947e+03 
4.630560e-01 9.736932e+02 
4.804610e-01 9.370356e+02 
4.980690e-01 9.028038e+02 
5.159230e-01 8.705751e+02 
5.317440e-01 8.440618e+02 
5.489640e-01 8.169449e+02 
5.671990e-01 7.902577e+02 
5.838690e-01 7.673719e+02 
6.018840e-01 7.442049e+02 
6.202330e-01 7.220744e+02 
6.379250e-01 7.019444e+02 
6.545410e-01 6.841569e+02 
6.714560e-01 6.669723e+02 
6.892080e-01 6.498413e+02 
7.066010e-01 6.339066e+02 
7.240540e-01 6.187236e+02 
7.420450e-01 6.037704e+02 
7.593780e-01 5.900205e+02 
7.764720e-01 5.770741e+02 
7.942840e-01 5.641449e+02 
8.116170e-01 5.520156e+02 
8.288310e-01 5.404008e+02 
8.462240e-01 5.291195e+02 
8.631980e-01 5.185424e+02 
8.810700e-01 5.078025e+02 
8.989410e-01 4.973973e+02 
9.166330e-01 4.874478e+02 
9.345640e-01 4.776674e+02 
9.515980e-01 4.686940e+02 
9.688720e-01 4.598753e+02 
9.865640e-01 4.510862e+02 
1.031870e+00 4.297055e+02 
1.063490e+00 4.156354e+02 
1.097920e+00 4.011384e+02 
1.134370e+00 3.865877e+02 
1.167730e+00 3.739208e+02 
1.203830e+00 3.608529e+02 
1.240470e+00 3.483059e+02 
1.275790e+00 3.367213e+02 
1.309140e+00 3.263189e+02 
1.342970e+00 3.162017e+02 
1.378420e+00 3.061002e+02 
1.413200e+00 2.966046e+02 
1.448110e+00 2.874823e+02 
1.484090e+00 2.784983e+02 
1.518820e+00 2.702333e+02 
1.552880e+00 2.623960e+02 
1.588630e+00 2.545470e+02 
1.623230e+00 2.472542e+02 
1.657720e+00 2.402876e+02 
1.692450e+00 2.335714e+02 
1.726400e+00 2.271969e+02 
1.762200e+00 2.207696e+02 
1.797880e+00 2.146171e+02 
1.833270e+00 2.087619e+02 
1.869070e+00 2.030682e+02 
1.903200e+00 1.978257e+02 
1.937740e+00 1.927183e+02 
1.973190e+00 1.876842e+02 
2.007440e+00 1.829906e+02 
2.042160e+00 1.783957e+02 
2.077900e+00 1.738305e+02 
2.112390e+00 1.695860e+02 
2.146220e+00 1.655703e+02 
2.181600e+00 1.614972e+02 
2.216930e+00 1.575802e+02 
2.250760e+00 1.539567e+02 
2.286500e+00 1.502523e+02 
2.321770e+00 1.467161e+02 
2.355950e+00 1.433962e+02 
2.391280e+00 1.400862e+02 
2.426240e+00 1.369201e+02 
2.460670e+00 1.338976e+02 
2.495640e+00 1.309179e+02 
2.531080e+00 1.279928e+02 
2.566220e+00 1.251795e+02 
2.600830e+00 1.224918e+02 
2.635080e+00 1.199108e+02 
2.670340e+00 1.173402e+02 
2.705970e+00 1.148233e+02 
2.740040e+00 1.124876e+02 
2.774520e+00 1.101830e+02 
2.809730e+00 1.079073e+02 
2.844390e+00 1.057356e+02 
2.879960e+00 1.035667e+02 
2.914860e+00 1.014965e+02 
2.949410e+00 9.950496e+01 
2.984440e+00 9.754080e+01 
3.019760e+00 9.561073e+01 
3.054730e+00 9.375158e+01 
3.089030e+00 9.198494e+01 
3.124060e+00 9.022885e+01 
3.159560e+00 8.849539e+01 
3.194710e+00 8.683089e+01 
3.229010e+00 8.525132e+01 
3.263320e+00 8.369698e+01 
3.297930e+00 8.217287e+01 
3.332830e+00 8.068027e+01 
3.368040e+00 7.921564e+01 
3.403300e+00 7.778876e+01 
3.438450e+00 7.639915e+01 
3.473060e+00 7.506548e+01 
3.508440e+00 7.373459e+01 
3.543110e+00 7.246328e+01 
3.577470e+00 7.123094e+01 
3.613040e+00 6.998830e+01 
3.648120e+00 6.879616e+01 
3.682910e+00 6.764087e+01 
3.718050e+00 6.649827e+01 
3.753320e+00 6.538183e+01 
3.787980e+00 6.431444e+01 
3.822290e+00 6.328055e+01 
3.857020e+00 6.225513e+01 
3.891920e+00 6.124995e+01 
3.926650e+00 6.027483e+01 
3.961970e+00 5.930522e+01 
3.997360e+00 5.835391e+01 
4.031670e+00 5.745321e+01 
4.066330e+00 5.656607e+01 
4.101420e+00 5.568796e+01 
4.136200e+00 5.483398e+01 
4.170810e+00 5.400286e+01 
4.206250e+00 5.316956e+01 
4.241580e+00 5.235701e+01 
4.276300e+00 5.157897e+01 
4.310970e+00 5.082035e+01 
4.346120e+00 5.006583e+01 
4.380600e+00 4.933839e+01 
4.414730e+00 4.863332e+01 
4.450350e+00 4.791734e+01 
4.485320e+00 4.722908e+01 
4.519810e+00 4.656136e+01 
4.555430e+00 4.588463e+01 
4.590870e+00 4.522684e+01 
4.625480e+00 4.460082e+01 
4.659910e+00 4.399031e+01 
4.695230e+00 4.337491e+01 
4.729960e+00 4.278149e+01 
4.764450e+00 4.220393e+01 
4.799530e+00 4.162842e+01 
4.834910e+00 4.105927e+01 
4.869700e+00 4.051065e+01 
4.904370e+00 3.997430e+01 
4.939450e+00 3.944213e+01 
4.973940e+00 3.892939e+01 
5.008430e+00 3.842610e+01 
5.043810e+00 3.791989e+01 
5.078840e+00 3.742828e+01 
5.113500e+00 3.695072e+01 
5.148890e+00 3.647231e+01 
5.184210e+00 3.600359e+01 
5.219060e+00 3.554944e+01 
5.253660e+00 3.510659e+01 
5.288570e+00 3.466765e+01 
5.323420e+00 3.423824e+01 
5.358440e+00 3.381549e+01 
5.393590e+00 3.339857e+01 
5.428310e+00 3.299313e+01 
5.462800e+00 3.259686e+01 
5.497640e+00 3.220335e+01 
5.532670e+00 3.181597e+01 
5.567280e+00 3.144017e+01 
5.602000e+00 3.106945e+01 
5.637270e+00 3.069911e+01 
5.672410e+00 3.033629e+01 
5.707020e+00 2.998483e+01 
5.742040e+00 2.963527e+01 
5.777430e+00 2.928786e+01 
5.812210e+00 2.895200e+01 
5.846820e+00 2.862355e+01 
5.881610e+00 2.829875e+01 
5.916510e+00 2.797810e+01 
5.951600e+00 2.766165e+01 
5.986560e+00 2.735171e+01 
6.021830e+00 2.704395e+01 
6.056490e+00 2.674604e+01 
6.091160e+00 2.645246e+01 
6.125830e+00 2.616337e+01 
6.161090e+00 2.587402e+01 
6.195760e+00 2.559417e+01 
6.230420e+00 2.531860e+01 
6.265690e+00 2.504247e+01 
6.300950e+00 2.477159e+01 
6.335620e+00 2.450922e+01 
6.370880e+00 2.424635e+01 
6.405550e+00 2.399145e+01 
6.440220e+00 2.374017e+01 
6.475480e+00 2.348835e+01 
6.510150e+00 2.324464e+01 
6.544810e+00 2.300509e+01 
6.580080e+00 2.276485e+01 
6.614750e+00 2.253209e+01 
6.649410e+00 2.230304e+01 
6.684080e+00 2.207723e+01 
6.719340e+00 2.185081e+01 
6.754010e+00 2.163123e+01 
6.788680e+00 2.141448e+01 
6.823940e+00 2.119712e+01 
6.859800e+00 2.097918e+01 
6.894470e+00 2.077195e+01 
6.929140e+00 2.056776e+01 
6.963800e+00 2.036639e+01 
6.999070e+00 2.016423e+01 
7.033730e+00 1.996768e+01 
7.068400e+00 1.977371e+01 
7.103660e+00 1.957910e+01 
7.138330e+00 1.939063e+01 
7.173600e+00 1.920211e+01 
7.208260e+00 1.901931e+01 
7.243530e+00 1.883576e+01 
7.277600e+00 1.866032e+01 
7.312860e+00 1.848071e+01 
7.348120e+00 1.830347e+01 
7.382790e+00 1.813146e+01 
7.417460e+00 1.796221e+01 
7.452720e+00 1.779259e+01 
7.487390e+00 1.762795e+01 
7.522650e+00 1.746264e+01 
7.557320e+00 1.730236e+01 
7.591990e+00 1.714415e+01 
7.627250e+00 1.698528e+01 
7.662510e+00 1.682842e+01 
7.697180e+00 1.667549e+01 
7.731850e+00 1.652421e+01 
7.766510e+00 1.637483e+01 
7.801180e+00 1.622725e+01 
7.836440e+00 1.607956e+01 
7.871110e+00 1.593646e+01 
7.906380e+00 1.579266e+01 
7.941040e+00 1.565307e+01 
7.976310e+00 1.551266e+01 
8.011570e+00 1.537391e+01 
8.046240e+00 1.523912e+01 
8.080900e+00 1.510598e+01 
8.115570e+00 1.497432e+01 
8.150830e+00 1.484180e+01 
8.185500e+00 1.471305e+01 
8.220770e+00 1.458362e+01 
8.255430e+00 1.445793e+01 
8.290100e+00 1.433394e+01 
8.324770e+00 1.421142e+01 
8.359430e+00 1.409034e+01 
8.394700e+00 1.396856e+01 
8.429960e+00 1.384814e+01 
8.464630e+00 1.373100e+01 
8.499890e+00 1.361324e+01 
8.534560e+00 1.349877e+01 
8.569200e+00 1.338569e+01 
