# Parameters:
# omega_b = 0.023059, omega_m = 0.122205, n_s = 0.963386, h = 66.338583, w = -1.000000, sigma_8 = 0.838583
# z = 0.300000
#
# k[1/Mpc] # P(k):
8.694000e-04 2.026132e+04 
2.077466e-03 4.260639e+04 
3.285532e-03 5.938277e+04 
4.493598e-03 7.167599e+04 
5.701664e-03 8.024349e+04 
6.909730e-03 8.579896e+04 
8.117797e-03 8.908051e+04 
9.325863e-03 9.046629e+04 
1.053393e-02 9.031610e+04 
1.174199e-02 8.895011e+04 
1.295006e-02 8.658050e+04 
1.415813e-02 8.348290e+04 
1.536619e-02 7.988751e+04 
1.657426e-02 7.592849e+04 
1.778233e-02 7.168871e+04 
1.899039e-02 6.750492e+04 
2.019846e-02 6.360796e+04 
2.140652e-02 5.997097e+04 
2.261459e-02 5.654779e+04 
2.382266e-02 5.336876e+04 
2.503072e-02 5.046222e+04 
2.623879e-02 4.782865e+04 
2.744685e-02 4.546703e+04 
2.865492e-02 4.336370e+04 
2.986299e-02 4.149857e+04 
3.100100e-02 3.994689e+04 
3.220400e-02 3.849754e+04 
3.288100e-02 3.776313e+04 
3.424300e-02 3.643222e+04 
3.555100e-02 3.530526e+04 
3.686000e-02 3.429913e+04 
3.795000e-02 3.353173e+04 
3.929100e-02 3.265352e+04 
4.039800e-02 3.196245e+04 
4.164000e-02 3.121078e+04 
4.294400e-02 3.041797e+04 
4.415000e-02 2.968782e+04 
4.542900e-02 2.888619e+04 
4.660900e-02 2.814117e+04 
4.782300e-02 2.733576e+04 
4.892900e-02 2.659140e+04 
5.031200e-02 2.564231e+04 
5.155900e-02 2.477154e+04 
5.238100e-02 2.419469e+04 
5.378200e-02 2.321809e+04 
5.513400e-02 2.228568e+04 
5.627600e-02 2.151337e+04 
5.735300e-02 2.080693e+04 
5.870100e-02 1.995941e+04 
5.988700e-02 1.925023e+04 
6.113500e-02 1.854481e+04 
6.225900e-02 1.794651e+04 
6.340100e-02 1.738135e+04 
6.480200e-02 1.674030e+04 
6.601100e-02 1.623662e+04 
6.725500e-02 1.576371e+04 
6.829100e-02 1.540784e+04 
6.958600e-02 1.500186e+04 
7.071100e-02 1.468561e+04 
7.192300e-02 1.437638e+04 
7.307400e-02 1.410973e+04 
7.412300e-02 1.388733e+04 
7.550400e-02 1.362283e+04 
7.663100e-02 1.342291e+04 
7.791200e-02 1.321225e+04 
7.912700e-02 1.302043e+04 
8.027600e-02 1.284451e+04 
8.138400e-02 1.267636e+04 
8.272200e-02 1.247101e+04 
8.406100e-02 1.226074e+04 
8.534100e-02 1.204839e+04 
8.653800e-02 1.184065e+04 
8.759800e-02 1.165080e+04 
8.900300e-02 1.138852e+04 
9.009000e-02 1.117644e+04 
9.113300e-02 1.096724e+04 
9.239600e-02 1.071233e+04 
9.358000e-02 1.047052e+04 
9.496100e-02 1.018685e+04 
9.608400e-02 9.960335e+03 
9.727500e-02 9.725400e+03 
9.852600e-02 9.486617e+03 
9.973800e-02 9.265269e+03 
1.009000e-01 9.061744e+03 
1.020900e-01 8.868993e+03 
1.034000e-01 8.668924e+03 
1.046000e-01 8.497131e+03 
1.057200e-01 8.351523e+03 
1.069100e-01 8.205122e+03 
1.082500e-01 8.057524e+03 
1.093900e-01 7.941911e+03 
1.105400e-01 7.831988e+03 
1.116900e-01 7.733141e+03 
1.129600e-01 7.629215e+03 
1.142000e-01 7.535446e+03 
1.153300e-01 7.453268e+03 
1.166400e-01 7.362185e+03 
1.177800e-01 7.284322e+03 
1.190000e-01 7.202733e+03 
1.201200e-01 7.125966e+03 
1.213400e-01 7.043663e+03 
1.227100e-01 6.946623e+03 
1.238900e-01 6.863367e+03 
1.250700e-01 6.776159e+03 
1.263200e-01 6.683562e+03 
1.275500e-01 6.589302e+03 
1.287500e-01 6.497447e+03 
1.299900e-01 6.401509e+03 
1.311300e-01 6.313685e+03 
1.323500e-01 6.219355e+03 
1.335900e-01 6.125252e+03 
1.347100e-01 6.041530e+03 
1.359800e-01 5.948991e+03 
1.372100e-01 5.861980e+03 
1.384300e-01 5.778211e+03 
1.395700e-01 5.703021e+03 
1.407700e-01 5.625819e+03 
1.420300e-01 5.549401e+03 
1.432800e-01 5.475254e+03 
1.444500e-01 5.410191e+03 
1.456300e-01 5.345888e+03 
1.468900e-01 5.280951e+03 
1.480500e-01 5.223062e+03 
1.491700e-01 5.168991e+03 
1.503800e-01 5.112671e+03 
1.516400e-01 5.055447e+03 
1.528200e-01 5.004007e+03 
1.540200e-01 4.952685e+03 
1.551900e-01 4.903712e+03 
1.564300e-01 4.852820e+03 
1.576600e-01 4.803352e+03 
1.588700e-01 4.755659e+03 
1.600900e-01 4.708416e+03 
1.612700e-01 4.662626e+03 
1.625400e-01 4.614254e+03 
1.637600e-01 4.568216e+03 
1.649500e-01 4.523861e+03 
1.662200e-01 4.477222e+03 
1.674000e-01 4.433763e+03 
1.685000e-01 4.393926e+03 
1.697500e-01 4.348974e+03 
1.710300e-01 4.303329e+03 
1.722200e-01 4.261644e+03 
1.734400e-01 4.219016e+03 
1.746400e-01 4.177780e+03 
1.758700e-01 4.136216e+03 
1.770900e-01 4.095660e+03 
1.782700e-01 4.057086e+03 
1.794600e-01 4.018757e+03 
1.807000e-01 3.979439e+03 
1.819100e-01 3.941712e+03 
1.830100e-01 3.908103e+03 
1.842200e-01 3.871732e+03 
1.855000e-01 3.833929e+03 
1.867000e-01 3.799825e+03 
1.879200e-01 3.765702e+03 
1.890900e-01 3.733585e+03 
1.902800e-01 3.701921e+03 
1.915200e-01 3.669441e+03 
1.926900e-01 3.639409e+03 
1.939000e-01 3.609281e+03 
1.951700e-01 3.578152e+03 
1.963100e-01 3.550744e+03 
1.975100e-01 3.522615e+03 
1.987800e-01 3.493298e+03 
2.000100e-01 3.465418e+03 
2.012500e-01 3.437915e+03 
2.023400e-01 3.414081e+03 
2.036100e-01 3.386693e+03 
2.048900e-01 3.359469e+03 
2.060400e-01 3.335362e+03 
2.072200e-01 3.310958e+03 
2.084200e-01 3.286362e+03 
2.096900e-01 3.260706e+03 
2.109200e-01 3.236220e+03 
2.121100e-01 3.212526e+03 
2.132700e-01 3.189725e+03 
2.145200e-01 3.165492e+03 
2.157200e-01 3.142301e+03 
2.168800e-01 3.120066e+03 
2.180700e-01 3.097557e+03 
2.193400e-01 3.073712e+03 
2.206000e-01 3.050105e+03 
2.217500e-01 3.028846e+03 
2.229500e-01 3.006950e+03 
2.241400e-01 2.985111e+03 
2.253500e-01 2.963185e+03 
2.264900e-01 2.942792e+03 
2.277100e-01 2.921088e+03 
2.289900e-01 2.898447e+03 
2.301500e-01 2.878196e+03 
2.313600e-01 2.857336e+03 
2.325600e-01 2.836491e+03 
2.337700e-01 2.815740e+03 
2.350000e-01 2.794917e+03 
2.362000e-01 2.774762e+03 
2.374100e-01 2.754579e+03 
2.386500e-01 2.734158e+03 
2.399100e-01 2.713676e+03 
2.410400e-01 2.695345e+03 
2.422500e-01 2.675928e+03 
2.435000e-01 2.656120e+03 
2.447300e-01 2.636909e+03 
2.458700e-01 2.619455e+03 
2.470600e-01 2.601448e+03 
2.483300e-01 2.582466e+03 
2.495600e-01 2.564408e+03 
2.507600e-01 2.547137e+03 
2.519600e-01 2.530070e+03 
2.532200e-01 2.512363e+03 
2.543700e-01 2.496590e+03 
2.555500e-01 2.480722e+03 
2.568000e-01 2.464109e+03 
2.580100e-01 2.448216e+03 
2.592400e-01 2.432542e+03 
2.604100e-01 2.417931e+03 
2.616100e-01 2.403112e+03 
2.628400e-01 2.388094e+03 
2.640600e-01 2.373601e+03 
2.652200e-01 2.360064e+03 
2.664300e-01 2.346098e+03 
2.676500e-01 2.332173e+03 
2.688400e-01 2.318919e+03 
2.700700e-01 2.305482e+03 
2.712400e-01 2.292839e+03 
2.724800e-01 2.279585e+03 
2.736700e-01 2.267148e+03 
2.748800e-01 2.254786e+03 
2.761000e-01 2.242455e+03 
2.773200e-01 2.230258e+03 
2.785400e-01 2.218208e+03 
2.797000e-01 2.206905e+03 
2.808900e-01 2.195429e+03 
2.821400e-01 2.183501e+03 
2.833900e-01 2.171709e+03 
2.845500e-01 2.161025e+03 
2.857800e-01 2.149812e+03 
2.870300e-01 2.138537e+03 
2.882100e-01 2.128004e+03 
2.893900e-01 2.117543e+03 
2.906300e-01 2.106645e+03 
2.918900e-01 2.095687e+03 
2.930500e-01 2.085701e+03 
2.942500e-01 2.075490e+03 
2.954200e-01 2.065686e+03 
2.966500e-01 2.055481e+03 
2.978900e-01 2.045299e+03 
2.990400e-01 2.035947e+03 
3.002700e-01 2.026032e+03 
3.015100e-01 2.016133e+03 
3.026800e-01 2.006883e+03 
3.038500e-01 1.997721e+03 
3.050300e-01 1.988565e+03 
3.062600e-01 1.979029e+03 
3.075000e-01 1.969509e+03 
3.087000e-01 1.960385e+03 
3.099100e-01 1.951273e+03 
3.111200e-01 1.942291e+03 
3.123100e-01 1.933613e+03 
3.135300e-01 1.924800e+03 
3.147300e-01 1.916214e+03 
3.159900e-01 1.907284e+03 
3.171800e-01 1.898918e+03 
3.183700e-01 1.890621e+03 
3.196300e-01 1.881918e+03 
3.208400e-01 1.873639e+03 
3.220300e-01 1.865571e+03 
3.232000e-01 1.857699e+03 
3.244300e-01 1.849495e+03 
3.256700e-01 1.841300e+03 
3.269200e-01 1.833117e+03 
3.280800e-01 1.825591e+03 
3.292500e-01 1.818143e+03 
3.304800e-01 1.810407e+03 
3.317100e-01 1.802741e+03 
3.328900e-01 1.795452e+03 
3.340700e-01 1.788226e+03 
3.353600e-01 1.780383e+03 
3.365300e-01 1.773328e+03 
3.377100e-01 1.766273e+03 
3.389200e-01 1.759102e+03 
3.401600e-01 1.751818e+03 
3.413700e-01 1.744793e+03 
3.425300e-01 1.738130e+03 
3.437700e-01 1.731069e+03 
3.449800e-01 1.724238e+03 
3.461800e-01 1.717522e+03 
3.473600e-01 1.710993e+03 
3.485800e-01 1.704346e+03 
3.498100e-01 1.697702e+03 
3.510200e-01 1.691223e+03 
3.522000e-01 1.684956e+03 
3.533900e-01 1.678689e+03 
3.546400e-01 1.672140e+03 
3.558400e-01 1.665905e+03 
3.570600e-01 1.659619e+03 
3.582700e-01 1.653436e+03 
3.595000e-01 1.647204e+03 
3.607100e-01 1.641135e+03 
3.618900e-01 1.635274e+03 
3.631200e-01 1.629213e+03 
3.643200e-01 1.623350e+03 
3.655500e-01 1.617389e+03 
3.667300e-01 1.611716e+03 
3.679500e-01 1.605951e+03 
3.691900e-01 1.600139e+03 
3.703600e-01 1.594699e+03 
3.715700e-01 1.589118e+03 
3.727700e-01 1.583628e+03 
3.739900e-01 1.578081e+03 
3.752000e-01 1.572608e+03 
3.763900e-01 1.567268e+03 
3.775800e-01 1.561969e+03 
3.788200e-01 1.556491e+03 
3.800300e-01 1.551189e+03 
3.812100e-01 1.546045e+03 
3.824200e-01 1.540802e+03 
3.836100e-01 1.535687e+03 
3.848600e-01 1.530355e+03 
3.860400e-01 1.525361e+03 
3.872400e-01 1.520321e+03 
3.884600e-01 1.515217e+03 
3.896500e-01 1.510270e+03 
3.908700e-01 1.505237e+03 
3.920600e-01 1.500364e+03 
3.933100e-01 1.495286e+03 
3.945300e-01 1.490367e+03 
3.957200e-01 1.485608e+03 
3.969300e-01 1.480806e+03 
3.981700e-01 1.475922e+03 
3.993500e-01 1.471309e+03 
4.094840e-01 1.432939e+03 
4.272360e-01 1.370413e+03 
4.454600e-01 1.311784e+03 
4.630560e-01 1.259569e+03 
4.804610e-01 1.211790e+03 
4.980690e-01 1.167023e+03 
5.159230e-01 1.124773e+03 
5.317440e-01 1.089955e+03 
5.489640e-01 1.054284e+03 
5.671990e-01 1.019126e+03 
5.838690e-01 9.889300e+02 
6.018840e-01 9.583148e+02 
6.202330e-01 9.289906e+02 
6.379250e-01 9.022686e+02 
6.545410e-01 8.785674e+02 
6.714560e-01 8.556119e+02 
6.892080e-01 8.326389e+02 
7.066010e-01 8.111785e+02 
7.240540e-01 7.906710e+02 
7.420450e-01 7.703649e+02 
7.593780e-01 7.516289e+02 
7.764720e-01 7.339247e+02 
7.942840e-01 7.161800e+02 
8.116170e-01 6.994651e+02 
8.288310e-01 6.834153e+02 
8.462240e-01 6.677846e+02 
8.631980e-01 6.530816e+02 
8.810700e-01 6.381133e+02 
8.989410e-01 6.235961e+02 
9.166330e-01 6.096897e+02 
9.345640e-01 5.960078e+02 
9.515980e-01 5.834417e+02 
9.688720e-01 5.710785e+02 
9.865640e-01 5.587530e+02 
1.031870e+00 5.288011e+02 
1.063490e+00 5.091260e+02 
1.097920e+00 4.888688e+02 
1.134370e+00 4.686178e+02 
1.167730e+00 4.510476e+02 
1.203830e+00 4.330001e+02 
1.240470e+00 4.157458e+02 
1.275790e+00 3.999029e+02 
1.309140e+00 3.857388e+02 
1.342970e+00 3.720415e+02 
1.378420e+00 3.584286e+02 
1.413200e+00 3.457054e+02 
1.448110e+00 3.335508e+02 
1.484090e+00 3.216450e+02 
1.518820e+00 3.107465e+02 
1.552880e+00 3.004813e+02 
1.588630e+00 2.902493e+02 
1.623230e+00 2.807925e+02 
1.657720e+00 2.718017e+02 
1.692450e+00 2.631780e+02 
1.726400e+00 2.550453e+02 
1.762200e+00 2.468826e+02 
1.797880e+00 2.391094e+02 
1.833270e+00 2.317431e+02 
1.869070e+00 2.246168e+02 
1.903200e+00 2.180889e+02 
1.937740e+00 2.117557e+02 
1.973190e+00 2.055415e+02 
2.007440e+00 1.997741e+02 
2.042160e+00 1.941525e+02 
2.077900e+00 1.885920e+02 
2.112390e+00 1.834425e+02 
2.146220e+00 1.785918e+02 
2.181600e+00 1.736923e+02 
2.216930e+00 1.689992e+02 
2.250760e+00 1.646737e+02 
2.286500e+00 1.602683e+02 
2.321770e+00 1.560791e+02 
2.355950e+00 1.521602e+02 
2.391280e+00 1.482686e+02 
2.426240e+00 1.445585e+02 
2.460670e+00 1.410286e+02 
2.495640e+00 1.375602e+02 
2.531080e+00 1.341686e+02 
2.566220e+00 1.309175e+02 
2.600830e+00 1.278210e+02 
2.635080e+00 1.248564e+02 
2.670340e+00 1.219146e+02 
2.705970e+00 1.190423e+02 
2.740040e+00 1.163840e+02 
2.774520e+00 1.137700e+02 
2.809730e+00 1.111957e+02 
2.844390e+00 1.087449e+02 
2.879960e+00 1.063049e+02 
2.914860e+00 1.039836e+02 
2.949410e+00 1.017553e+02 
2.984440e+00 9.956409e+01 
3.019760e+00 9.741700e+01 
3.054730e+00 9.535324e+01 
3.089030e+00 9.339829e+01 
3.124060e+00 9.145886e+01 
3.159560e+00 8.954923e+01 
3.194710e+00 8.771988e+01 
3.229010e+00 8.598654e+01 
3.263320e+00 8.428765e+01 
3.297930e+00 8.262426e+01 
3.332830e+00 8.099880e+01 
3.368040e+00 7.940723e+01 
3.403300e+00 7.785951e+01 
3.438450e+00 7.635639e+01 
3.473060e+00 7.491562e+01 
3.508440e+00 7.348212e+01 
3.543110e+00 7.211442e+01 
3.577470e+00 7.079260e+01 
3.613040e+00 6.946134e+01 
3.648120e+00 6.818684e+01 
3.682910e+00 6.695370e+01 
3.718050e+00 6.573697e+01 
3.753320e+00 6.454972e+01 
3.787980e+00 6.341656e+01 
3.822290e+00 6.232079e+01 
3.857020e+00 6.123633e+01 
3.891920e+00 6.017464e+01 
3.926650e+00 5.914655e+01 
3.961970e+00 5.812559e+01 
3.997360e+00 5.712608e+01 
4.031670e+00 5.618065e+01 
4.066330e+00 5.525130e+01 
4.101420e+00 5.433205e+01 
4.136200e+00 5.344024e+01 
4.170810e+00 5.257285e+01 
4.206250e+00 5.170530e+01 
4.241580e+00 5.086018e+01 
4.276300e+00 5.005196e+01 
4.310970e+00 4.926467e+01 
4.346120e+00 4.848275e+01 
4.380600e+00 4.773039e+01 
4.414730e+00 4.700162e+01 
4.450350e+00 4.626283e+01 
4.485320e+00 4.555307e+01 
4.519810e+00 4.486578e+01 
4.555430e+00 4.417001e+01 
4.590870e+00 4.349434e+01 
4.625480e+00 4.285212e+01 
4.659910e+00 4.222616e+01 
4.695230e+00 4.159639e+01 
4.729960e+00 4.098959e+01 
4.764450e+00 4.039963e+01 
4.799530e+00 3.981259e+01 
4.834910e+00 3.923236e+01 
4.869700e+00 3.867404e+01 
4.904370e+00 3.812861e+01 
4.939450e+00 3.758785e+01 
4.973940e+00 3.706752e+01 
5.008430e+00 3.655702e+01 
5.043810e+00 3.604428e+01 
5.078840e+00 3.554684e+01 
5.113500e+00 3.506387e+01 
5.148890e+00 3.458080e+01 
5.184210e+00 3.410777e+01 
5.219060e+00 3.364982e+01 
5.253660e+00 3.320385e+01 
5.288570e+00 3.276205e+01 
5.323420e+00 3.233025e+01 
5.358440e+00 3.190556e+01 
5.393590e+00 3.148694e+01 
5.428310e+00 3.108043e+01 
5.462800e+00 3.068349e+01 
5.497640e+00 3.028951e+01 
5.532670e+00 2.990211e+01 
5.567280e+00 2.952654e+01 
5.602000e+00 2.915622e+01 
5.637270e+00 2.878678e+01 
5.672410e+00 2.842509e+01 
5.707020e+00 2.807488e+01 
5.742040e+00 2.772705e+01 
5.777430e+00 2.738159e+01 
5.812210e+00 2.704776e+01 
5.846820e+00 2.672172e+01 
5.881610e+00 2.639951e+01 
5.916510e+00 2.608157e+01 
5.951600e+00 2.576814e+01 
5.986560e+00 2.546139e+01 
6.021830e+00 2.515693e+01 
6.056490e+00 2.486252e+01 
6.091160e+00 2.457269e+01 
6.125830e+00 2.428741e+01 
6.161090e+00 2.400209e+01 
6.195760e+00 2.372646e+01 
6.230420e+00 2.345518e+01 
6.265690e+00 2.318346e+01 
6.300950e+00 2.291732e+01 
6.335620e+00 2.265965e+01 
6.370880e+00 2.240160e+01 
6.405550e+00 2.215168e+01 
6.440220e+00 2.190549e+01 
6.475480e+00 2.165889e+01 
6.510150e+00 2.142039e+01 
6.544810e+00 2.118626e+01 
6.580080e+00 2.095154e+01 
6.614750e+00 2.072422e+01 
6.649410e+00 2.050082e+01 
6.684080e+00 2.028071e+01 
6.719340e+00 2.006011e+01 
6.754010e+00 1.984633e+01 
6.788680e+00 1.963561e+01 
6.823940e+00 1.942438e+01 
6.859800e+00 1.921267e+01 
6.894470e+00 1.901163e+01 
6.929140e+00 1.881367e+01 
6.963800e+00 1.861852e+01 
6.999070e+00 1.842269e+01 
7.033730e+00 1.823265e+01 
7.068400e+00 1.804517e+01 
7.103660e+00 1.785714e+01 
7.138330e+00 1.767519e+01 
7.173600e+00 1.749343e+01 
7.208260e+00 1.731724e+01 
7.243530e+00 1.714038e+01 
7.277600e+00 1.697157e+01 
7.312860e+00 1.679895e+01 
7.348120e+00 1.662867e+01 
7.382790e+00 1.646348e+01 
7.417460e+00 1.630113e+01 
7.452720e+00 1.613856e+01 
7.487390e+00 1.598080e+01 
7.522650e+00 1.582247e+01 
7.557320e+00 1.566917e+01 
7.591990e+00 1.551798e+01 
7.627250e+00 1.536621e+01 
7.662510e+00 1.521641e+01 
7.697180e+00 1.507062e+01 
7.731850e+00 1.492654e+01 
7.766510e+00 1.478432e+01 
7.801180e+00 1.464386e+01 
7.836440e+00 1.450345e+01 
7.871110e+00 1.436753e+01 
7.906380e+00 1.423099e+01 
7.941040e+00 1.409848e+01 
7.976310e+00 1.396536e+01 
8.011570e+00 1.383398e+01 
8.046240e+00 1.370639e+01 
8.080900e+00 1.358040e+01 
8.115570e+00 1.345590e+01 
8.150830e+00 1.333086e+01 
8.185500e+00 1.320940e+01 
8.220770e+00 1.308733e+01 
8.255430e+00 1.296883e+01 
8.290100e+00 1.285214e+01 
8.324770e+00 1.273689e+01 
8.359430e+00 1.262303e+01 
8.394700e+00 1.250854e+01 
8.429960e+00 1.239548e+01 
8.464630e+00 1.228565e+01 
8.499890e+00 1.217526e+01 
8.534560e+00 1.206798e+01 
8.569200e+00 1.196204e+01 
