# Parameters:
# omega_b = 0.022067, omega_m = 0.124961, n_s = 0.854724, h = 77.677165, w = -1.000000, sigma_8 = 0.859055
# z = 0.300000
#
# k[1/Mpc] # P(k):
8.694000e-04 2.810439e+04 
2.077466e-03 5.359965e+04 
3.285532e-03 7.114734e+04 
4.493598e-03 8.309959e+04 
5.701664e-03 9.081327e+04 
6.909730e-03 9.528877e+04 
8.117797e-03 9.742580e+04 
9.325863e-03 9.768349e+04 
1.053393e-02 9.647510e+04 
1.174199e-02 9.415133e+04 
1.295006e-02 9.093815e+04 
1.415813e-02 8.711543e+04 
1.536619e-02 8.290782e+04 
1.657426e-02 7.848465e+04 
1.778233e-02 7.401381e+04 
1.899039e-02 6.959973e+04 
2.019846e-02 6.524353e+04 
2.140652e-02 6.107278e+04 
2.261459e-02 5.717737e+04 
2.382266e-02 5.360404e+04 
2.503072e-02 5.037158e+04 
2.623879e-02 4.747081e+04 
2.744685e-02 4.489432e+04 
2.865492e-02 4.261874e+04 
2.986299e-02 4.061702e+04 
3.100100e-02 3.896576e+04 
3.220400e-02 3.743622e+04 
3.288100e-02 3.666743e+04 
3.424300e-02 3.528525e+04 
3.555100e-02 3.412740e+04 
3.686000e-02 3.310497e+04 
3.795000e-02 3.233206e+04 
3.929100e-02 3.145539e+04 
4.039800e-02 3.076893e+04 
4.164000e-02 3.002372e+04 
4.294400e-02 2.923599e+04 
4.415000e-02 2.850781e+04 
4.542900e-02 2.770219e+04 
4.660900e-02 2.694890e+04 
4.782300e-02 2.612707e+04 
4.892900e-02 2.536371e+04 
5.031200e-02 2.438502e+04 
5.155900e-02 2.348316e+04 
5.238100e-02 2.288482e+04 
5.378200e-02 2.187116e+04 
5.513400e-02 2.090473e+04 
5.627600e-02 2.010685e+04 
5.735300e-02 1.938004e+04 
5.870100e-02 1.851310e+04 
5.988700e-02 1.779322e+04 
6.113500e-02 1.708313e+04 
6.225900e-02 1.648683e+04 
6.340100e-02 1.592898e+04 
6.480200e-02 1.530274e+04 
6.601100e-02 1.481747e+04 
6.725500e-02 1.436732e+04 
6.829100e-02 1.403293e+04 
6.958600e-02 1.365488e+04 
7.071100e-02 1.336367e+04 
7.192300e-02 1.308127e+04 
7.307400e-02 1.283935e+04 
7.412300e-02 1.263840e+04 
7.550400e-02 1.239984e+04 
7.663100e-02 1.221925e+04 
7.791200e-02 1.202768e+04 
7.912700e-02 1.185138e+04 
8.027600e-02 1.168804e+04 
8.138400e-02 1.153049e+04 
8.272200e-02 1.133621e+04 
8.406100e-02 1.113564e+04 
8.534100e-02 1.093178e+04 
8.653800e-02 1.073180e+04 
8.759800e-02 1.054900e+04 
8.900300e-02 1.029670e+04 
9.009000e-02 1.009310e+04 
9.113300e-02 9.892682e+03 
9.239600e-02 9.648927e+03 
9.358000e-02 9.418244e+03 
9.496100e-02 9.148310e+03 
9.608400e-02 8.933115e+03 
9.727500e-02 8.710212e+03 
9.852600e-02 8.483882e+03 
9.973800e-02 8.274259e+03 
1.009000e-01 8.081673e+03 
1.020900e-01 7.899377e+03 
1.034000e-01 7.710360e+03 
1.046000e-01 7.548239e+03 
1.057200e-01 7.411253e+03 
1.069100e-01 7.273750e+03 
1.082500e-01 7.135728e+03 
1.093900e-01 7.028205e+03 
1.105400e-01 6.926329e+03 
1.116900e-01 6.835642e+03 
1.129600e-01 6.740647e+03 
1.142000e-01 6.655875e+03 
1.153300e-01 6.581908e+03 
1.166400e-01 6.500440e+03 
1.177800e-01 6.431090e+03 
1.190000e-01 6.358556e+03 
1.201200e-01 6.290288e+03 
1.213400e-01 6.217093e+03 
1.227100e-01 6.130274e+03 
1.238900e-01 6.055628e+03 
1.250700e-01 5.976914e+03 
1.263200e-01 5.893096e+03 
1.275500e-01 5.807250e+03 
1.287500e-01 5.723306e+03 
1.299900e-01 5.635184e+03 
1.311300e-01 5.554291e+03 
1.323500e-01 5.467074e+03 
1.335900e-01 5.379887e+03 
1.347100e-01 5.302073e+03 
1.359800e-01 5.215970e+03 
1.372100e-01 5.134787e+03 
1.384300e-01 5.056605e+03 
1.395700e-01 4.986319e+03 
1.407700e-01 4.914175e+03 
1.420300e-01 4.842730e+03 
1.432800e-01 4.773436e+03 
1.444500e-01 4.712742e+03 
1.456300e-01 4.652776e+03 
1.468900e-01 4.592428e+03 
1.480500e-01 4.538700e+03 
1.491700e-01 4.488679e+03 
1.503800e-01 4.436782e+03 
1.516400e-01 4.384144e+03 
1.528200e-01 4.337191e+03 
1.540200e-01 4.290351e+03 
1.551900e-01 4.246009e+03 
1.564300e-01 4.200019e+03 
1.576600e-01 4.155478e+03 
1.588700e-01 4.112727e+03 
1.600900e-01 4.070395e+03 
1.612700e-01 4.029601e+03 
1.625400e-01 3.986510e+03 
1.637600e-01 3.945556e+03 
1.649500e-01 3.906132e+03 
1.662200e-01 3.864674e+03 
1.674000e-01 3.826007e+03 
1.685000e-01 3.790564e+03 
1.697500e-01 3.750499e+03 
1.710300e-01 3.709747e+03 
1.722200e-01 3.672535e+03 
1.734400e-01 3.634295e+03 
1.746400e-01 3.597299e+03 
1.758700e-01 3.559949e+03 
1.770900e-01 3.523371e+03 
1.782700e-01 3.488587e+03 
1.794600e-01 3.453938e+03 
1.807000e-01 3.418340e+03 
1.819100e-01 3.384187e+03 
1.830100e-01 3.353695e+03 
1.842200e-01 3.320692e+03 
1.855000e-01 3.286391e+03 
1.867000e-01 3.255401e+03 
1.879200e-01 3.224398e+03 
1.890900e-01 3.195222e+03 
1.902800e-01 3.166466e+03 
1.915200e-01 3.136973e+03 
1.926900e-01 3.109715e+03 
1.939000e-01 3.082405e+03 
1.951700e-01 3.054191e+03 
1.963100e-01 3.029368e+03 
1.975100e-01 3.003936e+03 
1.987800e-01 2.977433e+03 
2.000100e-01 2.952247e+03 
2.012500e-01 2.927442e+03 
2.023400e-01 2.905946e+03 
2.036100e-01 2.881262e+03 
2.048900e-01 2.856785e+03 
2.060400e-01 2.835113e+03 
2.072200e-01 2.813179e+03 
2.084200e-01 2.791142e+03 
2.096900e-01 2.768158e+03 
2.109200e-01 2.746221e+03 
2.121100e-01 2.725096e+03 
2.132700e-01 2.704773e+03 
2.145200e-01 2.683175e+03 
2.157200e-01 2.662606e+03 
2.168800e-01 2.642932e+03 
2.180700e-01 2.623016e+03 
2.193400e-01 2.601997e+03 
2.206000e-01 2.581331e+03 
2.217500e-01 2.562721e+03 
2.229500e-01 2.543555e+03 
2.241400e-01 2.524696e+03 
2.253500e-01 2.505769e+03 
2.264900e-01 2.488166e+03 
2.277100e-01 2.469585e+03 
2.289900e-01 2.450372e+03 
2.301500e-01 2.433187e+03 
2.313600e-01 2.415488e+03 
2.325600e-01 2.398120e+03 
2.337700e-01 2.380829e+03 
2.350000e-01 2.363478e+03 
2.362000e-01 2.346815e+03 
2.374100e-01 2.330282e+03 
2.386500e-01 2.313553e+03 
2.399100e-01 2.296772e+03 
2.410400e-01 2.281920e+03 
2.422500e-01 2.266206e+03 
2.435000e-01 2.250175e+03 
2.447300e-01 2.234645e+03 
2.458700e-01 2.220616e+03 
2.470600e-01 2.206140e+03 
2.483300e-01 2.190880e+03 
2.495600e-01 2.176355e+03 
2.507600e-01 2.162451e+03 
2.519600e-01 2.148710e+03 
2.532200e-01 2.134454e+03 
2.543700e-01 2.121688e+03 
2.555500e-01 2.108799e+03 
2.568000e-01 2.095304e+03 
2.580100e-01 2.082393e+03 
2.592400e-01 2.069534e+03 
2.604100e-01 2.057489e+03 
2.616100e-01 2.045273e+03 
2.628400e-01 2.032894e+03 
2.640600e-01 2.020794e+03 
2.652200e-01 2.009431e+03 
2.664300e-01 1.997707e+03 
2.676500e-01 1.986018e+03 
2.688400e-01 1.974766e+03 
2.700700e-01 1.963277e+03 
2.712400e-01 1.952468e+03 
2.724800e-01 1.941136e+03 
2.736700e-01 1.930417e+03 
2.748800e-01 1.919675e+03 
2.761000e-01 1.908961e+03 
2.773200e-01 1.898363e+03 
2.785400e-01 1.887852e+03 
2.797000e-01 1.877907e+03 
2.808900e-01 1.867810e+03 
2.821400e-01 1.857316e+03 
2.833900e-01 1.846937e+03 
2.845500e-01 1.837450e+03 
2.857800e-01 1.827495e+03 
2.870300e-01 1.817484e+03 
2.882100e-01 1.808131e+03 
2.893900e-01 1.798812e+03 
2.906300e-01 1.789086e+03 
2.918900e-01 1.779307e+03 
2.930500e-01 1.770395e+03 
2.942500e-01 1.761275e+03 
2.954200e-01 1.752499e+03 
2.966500e-01 1.743365e+03 
2.978900e-01 1.734250e+03 
2.990400e-01 1.725879e+03 
3.002700e-01 1.716997e+03 
3.015100e-01 1.708125e+03 
3.026800e-01 1.699835e+03 
3.038500e-01 1.691623e+03 
3.050300e-01 1.683418e+03 
3.062600e-01 1.674875e+03 
3.075000e-01 1.666348e+03 
3.087000e-01 1.658175e+03 
3.099100e-01 1.650013e+03 
3.111200e-01 1.641967e+03 
3.123100e-01 1.634193e+03 
3.135300e-01 1.626297e+03 
3.147300e-01 1.618605e+03 
3.159900e-01 1.610604e+03 
3.171800e-01 1.603114e+03 
3.183700e-01 1.595687e+03 
3.196300e-01 1.587898e+03 
3.208400e-01 1.580488e+03 
3.220300e-01 1.573268e+03 
3.232000e-01 1.566230e+03 
3.244300e-01 1.558899e+03 
3.256700e-01 1.551576e+03 
3.269200e-01 1.544263e+03 
3.280800e-01 1.537538e+03 
3.292500e-01 1.530884e+03 
3.304800e-01 1.523973e+03 
3.317100e-01 1.517125e+03 
3.328900e-01 1.510613e+03 
3.340700e-01 1.504158e+03 
3.353600e-01 1.497160e+03 
3.365300e-01 1.490868e+03 
3.377100e-01 1.484577e+03 
3.389200e-01 1.478181e+03 
3.401600e-01 1.471685e+03 
3.413700e-01 1.465424e+03 
3.425300e-01 1.459489e+03 
3.437700e-01 1.453199e+03 
3.449800e-01 1.447114e+03 
3.461800e-01 1.441131e+03 
3.473600e-01 1.435316e+03 
3.485800e-01 1.429402e+03 
3.498100e-01 1.423491e+03 
3.510200e-01 1.417726e+03 
3.522000e-01 1.412150e+03 
3.533900e-01 1.406573e+03 
3.546400e-01 1.400755e+03 
3.558400e-01 1.395215e+03 
3.570600e-01 1.389631e+03 
3.582700e-01 1.384138e+03 
3.595000e-01 1.378601e+03 
3.607100e-01 1.373212e+03 
3.618900e-01 1.368010e+03 
3.631200e-01 1.362632e+03 
3.643200e-01 1.357428e+03 
3.655500e-01 1.352137e+03 
3.667300e-01 1.347102e+03 
3.679500e-01 1.341993e+03 
3.691900e-01 1.336843e+03 
3.703600e-01 1.332023e+03 
3.715700e-01 1.327077e+03 
3.727700e-01 1.322211e+03 
3.739900e-01 1.317297e+03 
3.752000e-01 1.312452e+03 
3.763900e-01 1.307724e+03 
3.775800e-01 1.303032e+03 
3.788200e-01 1.298182e+03 
3.800300e-01 1.293487e+03 
3.812100e-01 1.288939e+03 
3.824200e-01 1.284308e+03 
3.836100e-01 1.279788e+03 
3.848600e-01 1.275078e+03 
3.860400e-01 1.270666e+03 
3.872400e-01 1.266212e+03 
3.884600e-01 1.261709e+03 
3.896500e-01 1.257346e+03 
3.908700e-01 1.252906e+03 
3.920600e-01 1.248609e+03 
3.933100e-01 1.244129e+03 
3.945300e-01 1.239790e+03 
3.957200e-01 1.235596e+03 
3.969300e-01 1.231364e+03 
3.981700e-01 1.227061e+03 
3.993500e-01 1.222996e+03 
4.094840e-01 1.189224e+03 
4.272360e-01 1.134355e+03 
4.454600e-01 1.083083e+03 
4.630560e-01 1.037568e+03 
4.804610e-01 9.960492e+02 
4.980690e-01 9.572488e+02 
5.159230e-01 9.207297e+02 
5.317440e-01 8.906977e+02 
5.489640e-01 8.600116e+02 
5.671990e-01 8.298446e+02 
5.838690e-01 8.040048e+02 
6.018840e-01 7.778727e+02 
6.202330e-01 7.529341e+02 
6.379250e-01 7.302713e+02 
6.545410e-01 7.102459e+02 
6.714560e-01 6.909088e+02 
6.892080e-01 6.716301e+02 
7.066010e-01 6.536918e+02 
7.240540e-01 6.366024e+02 
7.420450e-01 6.197581e+02 
7.593780e-01 6.042693e+02 
7.764720e-01 5.896822e+02 
7.942840e-01 5.751108e+02 
8.116170e-01 5.614387e+02 
8.288310e-01 5.483549e+02 
8.462240e-01 5.356471e+02 
8.631980e-01 5.237295e+02 
8.810700e-01 5.116307e+02 
8.989410e-01 4.999253e+02 
9.166330e-01 4.887394e+02 
9.345640e-01 4.777588e+02 
9.515980e-01 4.676945e+02 
9.688720e-01 4.578113e+02 
9.865640e-01 4.479775e+02 
1.031870e+00 4.241352e+02 
1.063490e+00 4.085170e+02 
1.097920e+00 3.924703e+02 
1.134370e+00 3.764467e+02 
1.167730e+00 3.625597e+02 
1.203830e+00 3.483088e+02 
1.240470e+00 3.346886e+02 
1.275790e+00 3.221882e+02 
1.309140e+00 3.110101e+02 
1.342970e+00 3.002011e+02 
1.378420e+00 2.894552e+02 
1.413200e+00 2.794080e+02 
1.448110e+00 2.698051e+02 
1.484090e+00 2.603922e+02 
1.518820e+00 2.517722e+02 
1.552880e+00 2.436464e+02 
1.588630e+00 2.355407e+02 
1.623230e+00 2.280434e+02 
1.657720e+00 2.209110e+02 
1.692450e+00 2.140642e+02 
1.726400e+00 2.076006e+02 
1.762200e+00 2.011077e+02 
1.797880e+00 1.949191e+02 
1.833270e+00 1.890506e+02 
1.869070e+00 1.833674e+02 
1.903200e+00 1.781564e+02 
1.937740e+00 1.730972e+02 
1.973190e+00 1.681286e+02 
2.007440e+00 1.635132e+02 
2.042160e+00 1.590104e+02 
2.077900e+00 1.545531e+02 
2.112390e+00 1.504218e+02 
2.146220e+00 1.465270e+02 
2.181600e+00 1.425890e+02 
2.216930e+00 1.388142e+02 
2.250760e+00 1.353325e+02 
2.286500e+00 1.317835e+02 
2.321770e+00 1.284059e+02 
2.355950e+00 1.252436e+02 
2.391280e+00 1.221010e+02 
2.426240e+00 1.191027e+02 
2.460670e+00 1.162480e+02 
2.495640e+00 1.134410e+02 
2.531080e+00 1.106936e+02 
2.566220e+00 1.080580e+02 
2.600830e+00 1.055462e+02 
2.635080e+00 1.031400e+02 
2.670340e+00 1.007500e+02 
2.705970e+00 9.841521e+01 
2.740040e+00 9.625302e+01 
2.774520e+00 9.412525e+01 
2.809730e+00 9.202847e+01 
2.844390e+00 9.003114e+01 
2.879960e+00 8.804130e+01 
2.914860e+00 8.614682e+01 
2.949410e+00 8.432741e+01 
2.984440e+00 8.253687e+01 
3.019760e+00 8.078139e+01 
3.054730e+00 7.909332e+01 
3.089030e+00 7.749294e+01 
3.124060e+00 7.590457e+01 
3.159560e+00 7.433974e+01 
3.194710e+00 7.283970e+01 
3.229010e+00 7.141791e+01 
3.263320e+00 7.002326e+01 
3.297930e+00 6.865727e+01 
3.332830e+00 6.732165e+01 
3.368040e+00 6.601330e+01 
3.403300e+00 6.474054e+01 
3.438450e+00 6.350360e+01 
3.473060e+00 6.231767e+01 
3.508440e+00 6.113675e+01 
3.543110e+00 6.000980e+01 
3.577470e+00 5.891994e+01 
3.613040e+00 5.782202e+01 
3.648120e+00 5.677038e+01 
3.682910e+00 5.575254e+01 
3.718050e+00 5.474772e+01 
3.753320e+00 5.376695e+01 
3.787980e+00 5.283045e+01 
3.822290e+00 5.192455e+01 
3.857020e+00 5.102759e+01 
3.891920e+00 5.014924e+01 
3.926650e+00 4.929834e+01 
3.961970e+00 4.845312e+01 
3.997360e+00 4.762525e+01 
4.031670e+00 4.684205e+01 
4.066330e+00 4.607180e+01 
4.101420e+00 4.530985e+01 
4.136200e+00 4.457016e+01 
4.170810e+00 4.385069e+01 
4.206250e+00 4.313080e+01 
4.241580e+00 4.242943e+01 
4.276300e+00 4.175842e+01 
4.310970e+00 4.110463e+01 
4.346120e+00 4.045517e+01 
4.380600e+00 3.983007e+01 
4.414730e+00 3.922453e+01 
4.450350e+00 3.861035e+01 
4.485320e+00 3.802029e+01 
4.519810e+00 3.744870e+01 
4.555430e+00 3.686996e+01 
4.590870e+00 3.630787e+01 
4.625480e+00 3.577349e+01 
4.659910e+00 3.525263e+01 
4.695230e+00 3.472835e+01 
4.729960e+00 3.422315e+01 
4.764450e+00 3.373192e+01 
4.799530e+00 3.324304e+01 
4.834910e+00 3.275981e+01 
4.869700e+00 3.229470e+01 
4.904370e+00 3.184030e+01 
4.939450e+00 3.138973e+01 
4.973940e+00 3.095605e+01 
5.008430e+00 3.053055e+01 
5.043810e+00 3.010316e+01 
5.078840e+00 2.968850e+01 
5.113500e+00 2.928590e+01 
5.148890e+00 2.888309e+01 
5.184210e+00 2.848863e+01 
5.219060e+00 2.810673e+01 
5.253660e+00 2.773475e+01 
5.288570e+00 2.736623e+01 
5.323420e+00 2.700604e+01 
5.358440e+00 2.665177e+01 
5.393590e+00 2.630256e+01 
5.428310e+00 2.596342e+01 
5.462800e+00 2.563225e+01 
5.497640e+00 2.530354e+01 
5.532670e+00 2.498030e+01 
5.567280e+00 2.466693e+01 
5.602000e+00 2.435793e+01 
5.637270e+00 2.404966e+01 
5.672410e+00 2.374784e+01 
5.707020e+00 2.345559e+01 
5.742040e+00 2.316532e+01 
5.777430e+00 2.287703e+01 
5.812210e+00 2.259844e+01 
5.846820e+00 2.232636e+01 
5.881610e+00 2.205748e+01 
5.916510e+00 2.179216e+01 
5.951600e+00 2.153061e+01 
5.986560e+00 2.127464e+01 
6.021830e+00 2.102058e+01 
6.056490e+00 2.077491e+01 
6.091160e+00 2.053305e+01 
6.125830e+00 2.029499e+01 
6.161090e+00 2.005692e+01 
6.195760e+00 1.982695e+01 
6.230420e+00 1.960060e+01 
6.265690e+00 1.937390e+01 
6.300950e+00 1.915189e+01 
6.335620e+00 1.893694e+01 
6.370880e+00 1.872167e+01 
6.405550e+00 1.851320e+01 
6.440220e+00 1.830785e+01 
6.475480e+00 1.810215e+01 
6.510150e+00 1.790323e+01 
6.544810e+00 1.770797e+01 
6.580080e+00 1.751223e+01 
6.614750e+00 1.732265e+01 
6.649410e+00 1.713637e+01 
6.684080e+00 1.695283e+01 
6.719340e+00 1.676888e+01 
6.754010e+00 1.659063e+01 
6.788680e+00 1.641498e+01 
6.823940e+00 1.623889e+01 
6.859800e+00 1.606241e+01 
6.894470e+00 1.589485e+01 
6.929140e+00 1.572986e+01 
6.963800e+00 1.556721e+01 
6.999070e+00 1.540401e+01 
7.033730e+00 1.524566e+01 
7.068400e+00 1.508945e+01 
7.103660e+00 1.493278e+01 
7.138330e+00 1.478118e+01 
7.173600e+00 1.462978e+01 
7.208260e+00 1.448303e+01 
7.243530e+00 1.433571e+01 
7.277600e+00 1.419511e+01 
7.312860e+00 1.405136e+01 
7.348120e+00 1.390955e+01 
7.382790e+00 1.377197e+01 
7.417460e+00 1.363681e+01 
7.452720e+00 1.350146e+01 
7.487390e+00 1.337013e+01 
7.522650e+00 1.323830e+01 
7.557320e+00 1.311071e+01 
7.591990e+00 1.298488e+01 
7.627250e+00 1.285856e+01 
7.662510e+00 1.273388e+01 
7.697180e+00 1.261257e+01 
7.731850e+00 1.249269e+01 
7.766510e+00 1.237435e+01 
7.801180e+00 1.225747e+01 
7.836440e+00 1.214067e+01 
7.871110e+00 1.202761e+01 
7.906380e+00 1.191403e+01 
7.941040e+00 1.180380e+01 
7.976310e+00 1.169308e+01 
8.011570e+00 1.158383e+01 
8.046240e+00 1.147773e+01 
8.080900e+00 1.137294e+01 
8.115570e+00 1.126941e+01 
8.150830e+00 1.116546e+01 
8.185500e+00 1.106449e+01 
8.220770e+00 1.096301e+01 
8.255430e+00 1.086448e+01 
8.290100e+00 1.076751e+01 
8.324770e+00 1.067172e+01 
8.359430e+00 1.057709e+01 
8.394700e+00 1.048193e+01 
8.429960e+00 1.038797e+01 
8.464630e+00 1.029670e+01 
8.499890e+00 1.020497e+01 
8.534560e+00 1.011582e+01 
8.569200e+00 1.002778e+01 
