# Parameters:
# omega_b = 0.022587, omega_m = 0.150866, n_s = 0.878346, h = 65.157480, w = -1.000000, sigma_8 = 0.707874
# z = 0.300000
#
# k[1/Mpc] # P(k):
8.694000e-04 1.124725e+04 
2.077466e-03 2.243016e+04 
3.285532e-03 3.074559e+04 
4.493598e-03 3.695006e+04 
5.701664e-03 4.145600e+04 
6.909730e-03 4.458041e+04 
8.117797e-03 4.664419e+04 
9.325863e-03 4.781429e+04 
1.053393e-02 4.825234e+04 
1.174199e-02 4.810346e+04 
1.295006e-02 4.745915e+04 
1.415813e-02 4.643679e+04 
1.536619e-02 4.513459e+04 
1.657426e-02 4.362126e+04 
1.778233e-02 4.196280e+04 
1.899039e-02 4.024329e+04 
2.019846e-02 3.849010e+04 
2.140652e-02 3.674442e+04 
2.261459e-02 3.503450e+04 
2.382266e-02 3.339175e+04 
2.503072e-02 3.183937e+04 
2.623879e-02 3.038522e+04 
2.744685e-02 2.903053e+04 
2.865492e-02 2.778285e+04 
2.986299e-02 2.663975e+04 
3.100100e-02 2.565632e+04 
3.220400e-02 2.471068e+04 
3.288100e-02 2.422028e+04 
3.424300e-02 2.331637e+04 
3.555100e-02 2.254080e+04 
3.686000e-02 2.184619e+04 
3.795000e-02 2.132048e+04 
3.929100e-02 2.073304e+04 
4.039800e-02 2.028579e+04 
4.164000e-02 1.981569e+04 
4.294400e-02 1.934628e+04 
4.415000e-02 1.892860e+04 
4.542900e-02 1.848841e+04 
4.660900e-02 1.808777e+04 
4.782300e-02 1.766213e+04 
4.892900e-02 1.726915e+04 
5.031200e-02 1.676552e+04 
5.155900e-02 1.629643e+04 
5.238100e-02 1.598042e+04 
5.378200e-02 1.543544e+04 
5.513400e-02 1.489945e+04 
5.627600e-02 1.444264e+04 
5.735300e-02 1.401437e+04 
5.870100e-02 1.348665e+04 
5.988700e-02 1.303332e+04 
6.113500e-02 1.257111e+04 
6.225900e-02 1.216919e+04 
6.340100e-02 1.178109e+04 
6.480200e-02 1.133208e+04 
6.601100e-02 1.097061e+04 
6.725500e-02 1.062466e+04 
6.829100e-02 1.035904e+04 
6.958600e-02 1.005203e+04 
7.071100e-02 9.809064e+03 
7.192300e-02 9.568778e+03 
7.307400e-02 9.359775e+03 
7.412300e-02 9.184583e+03 
7.550400e-02 8.975940e+03 
7.663100e-02 8.819064e+03 
7.791200e-02 8.656656e+03 
7.912700e-02 8.513309e+03 
8.027600e-02 8.386151e+03 
8.138400e-02 8.268830e+03 
8.272200e-02 8.131850e+03 
8.406100e-02 7.998373e+03 
8.534100e-02 7.870822e+03 
8.653800e-02 7.751219e+03 
8.759800e-02 7.644427e+03 
8.900300e-02 7.499999e+03 
9.009000e-02 7.384854e+03 
9.113300e-02 7.271727e+03 
9.239600e-02 7.133612e+03 
9.358000e-02 7.001498e+03 
9.496100e-02 6.843060e+03 
9.608400e-02 6.713829e+03 
9.727500e-02 6.577448e+03 
9.852600e-02 6.431871e+03 
9.973800e-02 6.293222e+03 
1.009000e-01 6.162641e+03 
1.020900e-01 6.031044e+03 
1.034000e-01 5.890732e+03 
1.046000e-01 5.766302e+03 
1.057200e-01 5.654775e+03 
1.069100e-01 5.540625e+03 
1.082500e-01 5.419834e+03 
1.093900e-01 5.322646e+03 
1.105400e-01 5.228700e+03 
1.116900e-01 5.141939e+03 
1.129600e-01 5.050378e+03 
1.142000e-01 4.967743e+03 
1.153300e-01 4.896287e+03 
1.166400e-01 4.818562e+03 
1.177800e-01 4.755092e+03 
1.190000e-01 4.689961e+03 
1.201200e-01 4.633503e+03 
1.213400e-01 4.573798e+03 
1.227100e-01 4.510223e+03 
1.238900e-01 4.456896e+03 
1.250700e-01 4.404828e+03 
1.263200e-01 4.350595e+03 
1.275500e-01 4.297667e+03 
1.287500e-01 4.246671e+03 
1.299900e-01 4.194313e+03 
1.311300e-01 4.146155e+03 
1.323500e-01 4.094099e+03 
1.335900e-01 4.041286e+03 
1.347100e-01 3.993158e+03 
1.359800e-01 3.938831e+03 
1.372100e-01 3.885518e+03 
1.384300e-01 3.833086e+03 
1.395700e-01 3.783406e+03 
1.407700e-01 3.732040e+03 
1.420300e-01 3.677546e+03 
1.432800e-01 3.624693e+03 
1.444500e-01 3.575135e+03 
1.456300e-01 3.526190e+03 
1.468900e-01 3.475198e+03 
1.480500e-01 3.429285e+03 
1.491700e-01 3.386110e+03 
1.503800e-01 3.340753e+03 
1.516400e-01 3.294806e+03 
1.528200e-01 3.253956e+03 
1.540200e-01 3.213228e+03 
1.551900e-01 3.175559e+03 
1.564300e-01 3.136719e+03 
1.576600e-01 3.099810e+03 
1.588700e-01 3.065231e+03 
1.600900e-01 3.031084e+03 
1.612700e-01 2.999762e+03 
1.625400e-01 2.966679e+03 
1.637600e-01 2.936070e+03 
1.649500e-01 2.907087e+03 
1.662200e-01 2.876737e+03 
1.674000e-01 2.849147e+03 
1.685000e-01 2.823855e+03 
1.697500e-01 2.795425e+03 
1.710300e-01 2.766664e+03 
1.722200e-01 2.740398e+03 
1.734400e-01 2.713284e+03 
1.746400e-01 2.687044e+03 
1.758700e-01 2.660405e+03 
1.770900e-01 2.634024e+03 
1.782700e-01 2.608935e+03 
1.794600e-01 2.583593e+03 
1.807000e-01 2.557323e+03 
1.819100e-01 2.532119e+03 
1.830100e-01 2.509127e+03 
1.842200e-01 2.484158e+03 
1.855000e-01 2.458186e+03 
1.867000e-01 2.434198e+03 
1.879200e-01 2.410204e+03 
1.890900e-01 2.387563e+03 
1.902800e-01 2.364923e+03 
1.915200e-01 2.341707e+03 
1.926900e-01 2.320199e+03 
1.939000e-01 2.298477e+03 
1.951700e-01 2.276039e+03 
1.963100e-01 2.256284e+03 
1.975100e-01 2.236000e+03 
1.987800e-01 2.214866e+03 
2.000100e-01 2.194811e+03 
2.012500e-01 2.175122e+03 
2.023400e-01 2.158062e+03 
2.036100e-01 2.138514e+03 
2.048900e-01 2.119282e+03 
2.060400e-01 2.102255e+03 
2.072200e-01 2.085041e+03 
2.084200e-01 2.067959e+03 
2.096900e-01 2.050144e+03 
2.109200e-01 2.033143e+03 
2.121100e-01 2.016998e+03 
2.132700e-01 2.001478e+03 
2.145200e-01 1.984986e+03 
2.157200e-01 1.969418e+03 
2.168800e-01 1.954592e+03 
2.180700e-01 1.939584e+03 
2.193400e-01 1.923809e+03 
2.206000e-01 1.908416e+03 
2.217500e-01 1.894556e+03 
2.229500e-01 1.880282e+03 
2.241400e-01 1.866372e+03 
2.253500e-01 1.852416e+03 
2.264900e-01 1.839436e+03 
2.277100e-01 1.825788e+03 
2.289900e-01 1.811733e+03 
2.301500e-01 1.799162e+03 
2.313600e-01 1.786215e+03 
2.325600e-01 1.773587e+03 
2.337700e-01 1.761015e+03 
2.350000e-01 1.748399e+03 
2.362000e-01 1.736302e+03 
2.374100e-01 1.724322e+03 
2.386500e-01 1.712200e+03 
2.399100e-01 1.700040e+03 
2.410400e-01 1.689291e+03 
2.422500e-01 1.677920e+03 
2.435000e-01 1.666319e+03 
2.447300e-01 1.655074e+03 
2.458700e-01 1.644888e+03 
2.470600e-01 1.634378e+03 
2.483300e-01 1.623298e+03 
2.495600e-01 1.612722e+03 
2.507600e-01 1.602559e+03 
2.519600e-01 1.592515e+03 
2.532200e-01 1.582094e+03 
2.543700e-01 1.572707e+03 
2.555500e-01 1.563192e+03 
2.568000e-01 1.553230e+03 
2.580100e-01 1.543699e+03 
2.592400e-01 1.534130e+03 
2.604100e-01 1.525134e+03 
2.616100e-01 1.516009e+03 
2.628400e-01 1.506763e+03 
2.640600e-01 1.497648e+03 
2.652200e-01 1.489058e+03 
2.664300e-01 1.480195e+03 
2.676500e-01 1.471359e+03 
2.688400e-01 1.462798e+03 
2.700700e-01 1.454023e+03 
2.712400e-01 1.445767e+03 
2.724800e-01 1.437111e+03 
2.736700e-01 1.428892e+03 
2.748800e-01 1.420621e+03 
2.761000e-01 1.412372e+03 
2.773200e-01 1.404211e+03 
2.785400e-01 1.396104e+03 
2.797000e-01 1.388405e+03 
2.808900e-01 1.380588e+03 
2.821400e-01 1.372464e+03 
2.833900e-01 1.364428e+03 
2.845500e-01 1.357057e+03 
2.857800e-01 1.349321e+03 
2.870300e-01 1.341543e+03 
2.882100e-01 1.334277e+03 
2.893900e-01 1.327025e+03 
2.906300e-01 1.319452e+03 
2.918900e-01 1.311838e+03 
2.930500e-01 1.304899e+03 
2.942500e-01 1.297796e+03 
2.954200e-01 1.290952e+03 
2.966500e-01 1.283829e+03 
2.978900e-01 1.276721e+03 
2.990400e-01 1.270193e+03 
3.002700e-01 1.263264e+03 
3.015100e-01 1.256341e+03 
3.026800e-01 1.249872e+03 
3.038500e-01 1.243465e+03 
3.050300e-01 1.237063e+03 
3.062600e-01 1.230391e+03 
3.075000e-01 1.223732e+03 
3.087000e-01 1.217350e+03 
3.099100e-01 1.210976e+03 
3.111200e-01 1.204690e+03 
3.123100e-01 1.198611e+03 
3.135300e-01 1.192437e+03 
3.147300e-01 1.186422e+03 
3.159900e-01 1.180167e+03 
3.171800e-01 1.174311e+03 
3.183700e-01 1.168505e+03 
3.196300e-01 1.162415e+03 
3.208400e-01 1.156622e+03 
3.220300e-01 1.150978e+03 
3.232000e-01 1.145475e+03 
3.244300e-01 1.139741e+03 
3.256700e-01 1.134014e+03 
3.269200e-01 1.128295e+03 
3.280800e-01 1.123036e+03 
3.292500e-01 1.117833e+03 
3.304800e-01 1.112430e+03 
3.317100e-01 1.107075e+03 
3.328900e-01 1.101984e+03 
3.340700e-01 1.096937e+03 
3.353600e-01 1.091469e+03 
3.365300e-01 1.086554e+03 
3.377100e-01 1.081640e+03 
3.389200e-01 1.076643e+03 
3.401600e-01 1.071569e+03 
3.413700e-01 1.066679e+03 
3.425300e-01 1.062046e+03 
3.437700e-01 1.057134e+03 
3.449800e-01 1.052384e+03 
3.461800e-01 1.047713e+03 
3.473600e-01 1.043179e+03 
3.485800e-01 1.038581e+03 
3.498100e-01 1.033986e+03 
3.510200e-01 1.029504e+03 
3.522000e-01 1.025170e+03 
3.533900e-01 1.020834e+03 
3.546400e-01 1.016320e+03 
3.558400e-01 1.012023e+03 
3.570600e-01 1.007691e+03 
3.582700e-01 1.003430e+03 
3.595000e-01 9.991341e+02 
3.607100e-01 9.949607e+02 
3.618900e-01 9.909372e+02 
3.631200e-01 9.867772e+02 
3.643200e-01 9.827519e+02 
3.655500e-01 9.786595e+02 
3.667300e-01 9.747650e+02 
3.679500e-01 9.708338e+02 
3.691900e-01 9.668708e+02 
3.703600e-01 9.631612e+02 
3.715700e-01 9.593549e+02 
3.727700e-01 9.556100e+02 
3.739900e-01 9.518303e+02 
3.752000e-01 9.481069e+02 
3.763900e-01 9.444737e+02 
3.775800e-01 9.408684e+02 
3.788200e-01 9.371412e+02 
3.800300e-01 9.335328e+02 
3.812100e-01 9.300500e+02 
3.824200e-01 9.265122e+02 
3.836100e-01 9.230595e+02 
3.848600e-01 9.194608e+02 
3.860400e-01 9.160899e+02 
3.872400e-01 9.126876e+02 
3.884600e-01 9.092610e+02 
3.896500e-01 9.059463e+02 
3.908700e-01 9.025737e+02 
3.920600e-01 8.993088e+02 
3.933100e-01 8.959053e+02 
3.945300e-01 8.926089e+02 
3.957200e-01 8.894251e+02 
3.969300e-01 8.862139e+02 
3.981700e-01 8.829479e+02 
3.993500e-01 8.798630e+02 
4.094840e-01 8.543276e+02 
4.272360e-01 8.130526e+02 
4.454600e-01 7.746786e+02 
4.630560e-01 7.407127e+02 
4.804610e-01 7.098114e+02 
4.980690e-01 6.809579e+02 
5.159230e-01 6.538666e+02 
5.317440e-01 6.316318e+02 
5.489640e-01 6.089990e+02 
5.671990e-01 5.868291e+02 
5.838690e-01 5.679289e+02 
6.018840e-01 5.489097e+02 
6.202330e-01 5.308877e+02 
6.379250e-01 5.145833e+02 
6.545410e-01 5.002863e+02 
6.714560e-01 4.865470e+02 
6.892080e-01 4.729405e+02 
7.066010e-01 4.603615e+02 
7.240540e-01 4.484247e+02 
7.420450e-01 4.367422e+02 
7.593780e-01 4.260439e+02 
7.764720e-01 4.160051e+02 
7.942840e-01 4.060197e+02 
8.116170e-01 3.966911e+02 
8.288310e-01 3.877805e+02 
8.462240e-01 3.791395e+02 
8.631980e-01 3.710648e+02 
8.810700e-01 3.628812e+02 
8.989410e-01 3.549685e+02 
9.166330e-01 3.474131e+02 
9.345640e-01 3.399940e+02 
9.515980e-01 3.331990e+02 
9.688720e-01 3.265270e+02 
9.865640e-01 3.198823e+02 
1.031870e+00 3.037599e+02 
1.063490e+00 2.931767e+02 
1.097920e+00 2.822862e+02 
1.134370e+00 2.713711e+02 
1.167730e+00 2.618841e+02 
1.203830e+00 2.521174e+02 
1.240470e+00 2.427520e+02 
1.275790e+00 2.341289e+02 
1.309140e+00 2.263910e+02 
1.342970e+00 2.188824e+02 
1.378420e+00 2.113959e+02 
1.413200e+00 2.043738e+02 
1.448110e+00 1.976443e+02 
1.484090e+00 1.910252e+02 
1.518820e+00 1.849511e+02 
1.552880e+00 1.792044e+02 
1.588630e+00 1.734577e+02 
1.623230e+00 1.681324e+02 
1.657720e+00 1.630549e+02 
1.692450e+00 1.581671e+02 
1.726400e+00 1.535424e+02 
1.762200e+00 1.488867e+02 
1.797880e+00 1.444376e+02 
1.833270e+00 1.402143e+02 
1.869070e+00 1.361158e+02 
1.903200e+00 1.323499e+02 
1.937740e+00 1.286882e+02 
1.973190e+00 1.250845e+02 
2.007440e+00 1.217322e+02 
2.042160e+00 1.184573e+02 
2.077900e+00 1.152107e+02 
2.112390e+00 1.121964e+02 
2.146220e+00 1.093505e+02 
2.181600e+00 1.064698e+02 
2.216930e+00 1.037046e+02 
2.250760e+00 1.011512e+02 
2.286500e+00 9.854554e+01 
2.321770e+00 9.606275e+01 
2.355950e+00 9.373600e+01 
2.391280e+00 9.142049e+01 
2.426240e+00 8.920915e+01 
2.460670e+00 8.710179e+01 
2.495640e+00 8.502800e+01 
2.531080e+00 8.299611e+01 
2.566220e+00 8.104531e+01 
2.600830e+00 7.918468e+01 
2.635080e+00 7.740075e+01 
2.670340e+00 7.562697e+01 
2.705970e+00 7.389298e+01 
2.740040e+00 7.228626e+01 
2.774520e+00 7.070377e+01 
2.809730e+00 6.914325e+01 
2.844390e+00 6.765599e+01 
2.879960e+00 6.617328e+01 
2.914860e+00 6.476061e+01 
2.949410e+00 6.340335e+01 
2.984440e+00 6.206681e+01 
3.019760e+00 6.075573e+01 
3.054730e+00 5.949450e+01 
3.089030e+00 5.829779e+01 
3.124060e+00 5.710970e+01 
3.159560e+00 5.593874e+01 
3.194710e+00 5.481581e+01 
3.229010e+00 5.375123e+01 
3.263320e+00 5.270619e+01 
3.297930e+00 5.168239e+01 
3.332830e+00 5.068094e+01 
3.368040e+00 4.969958e+01 
3.403300e+00 4.874464e+01 
3.438450e+00 4.781615e+01 
3.473060e+00 4.692581e+01 
3.508440e+00 4.603900e+01 
3.543110e+00 4.519261e+01 
3.577470e+00 4.437365e+01 
3.613040e+00 4.354853e+01 
3.648120e+00 4.275791e+01 
3.682910e+00 4.199264e+01 
3.718050e+00 4.123705e+01 
3.753320e+00 4.049939e+01 
3.787980e+00 3.979481e+01 
3.822290e+00 3.911319e+01 
3.857020e+00 3.843822e+01 
3.891920e+00 3.777715e+01 
3.926650e+00 3.713656e+01 
3.961970e+00 3.650022e+01 
3.997360e+00 3.587688e+01 
4.031670e+00 3.528715e+01 
4.066330e+00 3.470708e+01 
4.101420e+00 3.413327e+01 
4.136200e+00 3.357617e+01 
4.170810e+00 3.303430e+01 
4.206250e+00 3.249196e+01 
4.241580e+00 3.196354e+01 
4.276300e+00 3.145805e+01 
4.310970e+00 3.096556e+01 
4.346120e+00 3.047630e+01 
4.380600e+00 3.000534e+01 
4.414730e+00 2.954912e+01 
4.450350e+00 2.908639e+01 
4.485320e+00 2.864183e+01 
4.519810e+00 2.821123e+01 
4.555430e+00 2.777528e+01 
4.590870e+00 2.735185e+01 
4.625480e+00 2.694927e+01 
4.659910e+00 2.655687e+01 
4.695230e+00 2.616198e+01 
4.729960e+00 2.578148e+01 
4.764450e+00 2.541151e+01 
4.799530e+00 2.504332e+01 
4.834910e+00 2.467938e+01 
4.869700e+00 2.432910e+01 
4.904370e+00 2.398688e+01 
4.939450e+00 2.364758e+01 
4.973940e+00 2.332111e+01 
5.008430e+00 2.300079e+01 
5.043810e+00 2.267906e+01 
5.078840e+00 2.236692e+01 
5.113500e+00 2.206385e+01 
5.148890e+00 2.176073e+01 
5.184210e+00 2.146390e+01 
5.219060e+00 2.117654e+01 
5.253660e+00 2.089671e+01 
5.288570e+00 2.061949e+01 
5.323420e+00 2.034857e+01 
5.358440e+00 2.008215e+01 
5.393590e+00 1.981953e+01 
5.428310e+00 1.956452e+01 
5.462800e+00 1.931552e+01 
5.497640e+00 1.906837e+01 
5.532670e+00 1.882538e+01 
5.567280e+00 1.858982e+01 
5.602000e+00 1.835754e+01 
5.637270e+00 1.812591e+01 
5.672410e+00 1.789915e+01 
5.707020e+00 1.767957e+01 
5.742040e+00 1.746156e+01 
5.777430e+00 1.724505e+01 
5.812210e+00 1.703582e+01 
5.846820e+00 1.683154e+01 
5.881610e+00 1.662968e+01 
5.916510e+00 1.643048e+01 
5.951600e+00 1.623417e+01 
5.986560e+00 1.604206e+01 
6.021830e+00 1.585138e+01 
6.056490e+00 1.566706e+01 
6.091160e+00 1.548564e+01 
6.125830e+00 1.530706e+01 
6.161090e+00 1.512848e+01 
6.195760e+00 1.495603e+01 
6.230420e+00 1.478629e+01 
6.265690e+00 1.461627e+01 
6.300950e+00 1.444986e+01 
6.335620e+00 1.428872e+01 
6.370880e+00 1.412734e+01 
6.405550e+00 1.397113e+01 
6.440220e+00 1.381727e+01 
6.475480e+00 1.366314e+01 
6.510150e+00 1.351410e+01 
6.544810e+00 1.336787e+01 
6.580080e+00 1.322126e+01 
6.614750e+00 1.307927e+01 
6.649410e+00 1.293981e+01 
6.684080e+00 1.280240e+01 
6.719340e+00 1.266468e+01 
6.754010e+00 1.253125e+01 
6.788680e+00 1.239981e+01 
6.823940e+00 1.226803e+01 
6.859800e+00 1.213595e+01 
6.894470e+00 1.201058e+01 
6.929140e+00 1.188715e+01 
6.963800e+00 1.176547e+01 
6.999070e+00 1.164336e+01 
7.033730e+00 1.152496e+01 
7.068400e+00 1.140815e+01 
7.103660e+00 1.129099e+01 
7.138330e+00 1.117763e+01 
7.173600e+00 1.106447e+01 
7.208260e+00 1.095476e+01 
7.243530e+00 1.084462e+01 
7.277600e+00 1.073953e+01 
7.312860e+00 1.063210e+01 
7.348120e+00 1.052610e+01 
7.382790e+00 1.042327e+01 
7.417460e+00 1.032228e+01 
7.452720e+00 1.022117e+01 
7.487390e+00 1.012306e+01 
7.522650e+00 1.002457e+01 
7.557320e+00 9.929275e+00 
7.591990e+00 9.835304e+00 
7.627250e+00 9.740959e+00 
7.662510e+00 9.647828e+00 
7.697180e+00 9.557246e+00 
7.731850e+00 9.467735e+00 
7.766510e+00 9.379372e+00 
7.801180e+00 9.292085e+00 
7.836440e+00 9.204888e+00 
7.871110e+00 9.120504e+00 
7.906380e+00 9.035724e+00 
7.941040e+00 8.953438e+00 
7.976310e+00 8.870797e+00 
8.011570e+00 8.789275e+00 
8.046240e+00 8.710094e+00 
8.080900e+00 8.631889e+00 
8.115570e+00 8.554618e+00 
8.150830e+00 8.477043e+00 
8.185500e+00 8.401683e+00 
8.220770e+00 8.325935e+00 
8.255430e+00 8.252385e+00 
8.290100e+00 8.180039e+00 
8.324770e+00 8.108581e+00 
8.359430e+00 8.037978e+00 
8.394700e+00 7.966973e+00 
8.429960e+00 7.896870e+00 
8.464630e+00 7.828787e+00 
8.499890e+00 7.760348e+00 
8.534560e+00 7.693831e+00 
8.569200e+00 7.628129e+00 
