# Parameters:
# omega_b = 0.021909, omega_m = 0.131299, n_s = 0.892520, h = 76.496063, w = -1.000000, sigma_8 = 0.881102
# z = 0.300000
#
# k[1/Mpc] # P(k):
8.694000e-04 2.108508e+04 
2.077466e-03 4.189168e+04 
3.285532e-03 5.694072e+04 
4.493598e-03 6.772457e+04 
5.701664e-03 7.513272e+04 
6.909730e-03 7.987276e+04 
8.117797e-03 8.262563e+04 
9.325863e-03 8.374119e+04 
1.053393e-02 8.354424e+04 
1.174199e-02 8.231763e+04 
1.295006e-02 8.024559e+04 
1.415813e-02 7.756214e+04 
1.536619e-02 7.445834e+04 
1.657426e-02 7.108475e+04 
1.778233e-02 6.759419e+04 
1.899039e-02 6.405654e+04 
2.019846e-02 6.046585e+04 
2.140652e-02 5.696497e+04 
2.261459e-02 5.365110e+04 
2.382266e-02 5.057501e+04 
2.503072e-02 4.776240e+04 
2.623879e-02 4.521291e+04 
2.744685e-02 4.292492e+04 
2.865492e-02 4.088633e+04 
2.986299e-02 3.907865e+04 
3.100100e-02 3.757575e+04 
3.220400e-02 3.617455e+04 
3.288100e-02 3.546674e+04 
3.424300e-02 3.418961e+04 
3.555100e-02 3.311649e+04 
3.686000e-02 3.216805e+04 
3.795000e-02 3.145197e+04 
3.929100e-02 3.064309e+04 
4.039800e-02 3.001302e+04 
4.164000e-02 2.933228e+04 
4.294400e-02 2.861765e+04 
4.415000e-02 2.795912e+04 
4.542900e-02 2.723235e+04 
4.660900e-02 2.655287e+04 
4.782300e-02 2.580996e+04 
4.892900e-02 2.511754e+04 
5.031200e-02 2.422558e+04 
5.155900e-02 2.339832e+04 
5.238100e-02 2.284637e+04 
5.378200e-02 2.190586e+04 
5.513400e-02 2.100153e+04 
5.627600e-02 2.024899e+04 
5.735300e-02 1.955885e+04 
5.870100e-02 1.872960e+04 
5.988700e-02 1.803580e+04 
6.113500e-02 1.734647e+04 
6.225900e-02 1.676326e+04 
6.340100e-02 1.621399e+04 
6.480200e-02 1.559338e+04 
6.601100e-02 1.510851e+04 
6.725500e-02 1.465571e+04 
6.829100e-02 1.431701e+04 
6.958600e-02 1.393228e+04 
7.071100e-02 1.363425e+04 
7.192300e-02 1.334410e+04 
7.307400e-02 1.309486e+04 
7.412300e-02 1.288758e+04 
7.550400e-02 1.264172e+04 
7.663100e-02 1.245615e+04 
7.791200e-02 1.226079e+04 
7.912700e-02 1.208303e+04 
8.027600e-02 1.192012e+04 
8.138400e-02 1.176458e+04 
8.272200e-02 1.157494e+04 
8.406100e-02 1.138125e+04 
8.534100e-02 1.118635e+04 
8.653800e-02 1.099633e+04 
8.759800e-02 1.082301e+04 
8.900300e-02 1.058400e+04 
9.009000e-02 1.039095e+04 
9.113300e-02 1.020047e+04 
9.239600e-02 9.968174e+03 
9.358000e-02 9.747344e+03 
9.496100e-02 9.487090e+03 
9.608400e-02 9.278360e+03 
9.727500e-02 9.061097e+03 
9.852600e-02 8.837925e+03 
9.973800e-02 8.629914e+03 
1.009000e-01 8.437712e+03 
1.020900e-01 8.253279e+03 
1.034000e-01 8.060861e+03 
1.046000e-01 7.894591e+03 
1.057200e-01 7.752253e+03 
1.069100e-01 7.608751e+03 
1.082500e-01 7.463043e+03 
1.093900e-01 7.348712e+03 
1.105400e-01 7.239884e+03 
1.116900e-01 7.142260e+03 
1.129600e-01 7.039846e+03 
1.142000e-01 6.948328e+03 
1.153300e-01 6.868702e+03 
1.166400e-01 6.781356e+03 
1.177800e-01 6.707813e+03 
1.190000e-01 6.631272e+03 
1.201200e-01 6.560586e+03 
1.213400e-01 6.485032e+03 
1.227100e-01 6.397405e+03 
1.238900e-01 6.322415e+03 
1.250700e-01 6.244422e+03 
1.263200e-01 6.161668e+03 
1.275500e-01 6.077556e+03 
1.287500e-01 5.995480e+03 
1.299900e-01 5.909589e+03 
1.311300e-01 5.830670e+03 
1.323500e-01 5.745479e+03 
1.335900e-01 5.660069e+03 
1.347100e-01 5.583533e+03 
1.359800e-01 5.498530e+03 
1.372100e-01 5.417799e+03 
1.384300e-01 5.339735e+03 
1.395700e-01 5.268847e+03 
1.407700e-01 5.195968e+03 
1.420300e-01 5.122796e+03 
1.432800e-01 5.051812e+03 
1.444500e-01 4.988733e+03 
1.456300e-01 4.926404e+03 
1.468900e-01 4.863173e+03 
1.480500e-01 4.806722e+03 
1.491700e-01 4.754018e+03 
1.503800e-01 4.699150e+03 
1.516400e-01 4.643490e+03 
1.528200e-01 4.593810e+03 
1.540200e-01 4.544248e+03 
1.551900e-01 4.497513e+03 
1.564300e-01 4.449085e+03 
1.576600e-01 4.402346e+03 
1.588700e-01 4.357682e+03 
1.600900e-01 4.313476e+03 
1.612700e-01 4.271268e+03 
1.625400e-01 4.226683e+03 
1.637600e-01 4.184525e+03 
1.649500e-01 4.144067e+03 
1.662200e-01 4.101557e+03 
1.674000e-01 4.062114e+03 
1.685000e-01 4.025957e+03 
1.697500e-01 3.985139e+03 
1.710300e-01 3.943673e+03 
1.722200e-01 3.905805e+03 
1.734400e-01 3.866887e+03 
1.746400e-01 3.829230e+03 
1.758700e-01 3.791181e+03 
1.770900e-01 3.753860e+03 
1.782700e-01 3.718365e+03 
1.794600e-01 3.682917e+03 
1.807000e-01 3.646436e+03 
1.819100e-01 3.611432e+03 
1.830100e-01 3.580041e+03 
1.842200e-01 3.546036e+03 
1.855000e-01 3.510685e+03 
1.867000e-01 3.478599e+03 
1.879200e-01 3.446498e+03 
1.890900e-01 3.416265e+03 
1.902800e-01 3.386360e+03 
1.915200e-01 3.355685e+03 
1.926900e-01 3.327312e+03 
1.939000e-01 3.298812e+03 
1.951700e-01 3.269367e+03 
1.963100e-01 3.243445e+03 
1.975100e-01 3.216850e+03 
1.987800e-01 3.189134e+03 
2.000100e-01 3.162793e+03 
2.012500e-01 3.136848e+03 
2.023400e-01 3.114364e+03 
2.036100e-01 3.088550e+03 
2.048900e-01 3.062973e+03 
2.060400e-01 3.040325e+03 
2.072200e-01 3.017407e+03 
2.084200e-01 2.994429e+03 
2.096900e-01 2.970461e+03 
2.109200e-01 2.947586e+03 
2.121100e-01 2.925610e+03 
2.132700e-01 2.904470e+03 
2.145200e-01 2.882004e+03 
2.157200e-01 2.860651e+03 
2.168800e-01 2.840245e+03 
2.180700e-01 2.819589e+03 
2.193400e-01 2.797808e+03 
2.206000e-01 2.776432e+03 
2.217500e-01 2.757182e+03 
2.229500e-01 2.737355e+03 
2.241400e-01 2.717904e+03 
2.253500e-01 2.698383e+03 
2.264900e-01 2.680225e+03 
2.277100e-01 2.661083e+03 
2.289900e-01 2.641315e+03 
2.301500e-01 2.623633e+03 
2.313600e-01 2.605422e+03 
2.325600e-01 2.587591e+03 
2.337700e-01 2.569839e+03 
2.350000e-01 2.552023e+03 
2.362000e-01 2.534925e+03 
2.374100e-01 2.517974e+03 
2.386500e-01 2.500821e+03 
2.399100e-01 2.483615e+03 
2.410400e-01 2.468387e+03 
2.422500e-01 2.452275e+03 
2.435000e-01 2.435838e+03 
2.447300e-01 2.419912e+03 
2.458700e-01 2.405518e+03 
2.470600e-01 2.390667e+03 
2.483300e-01 2.375009e+03 
2.495600e-01 2.360092e+03 
2.507600e-01 2.345797e+03 
2.519600e-01 2.331668e+03 
2.532200e-01 2.317009e+03 
2.543700e-01 2.303856e+03 
2.555500e-01 2.290557e+03 
2.568000e-01 2.276633e+03 
2.580100e-01 2.263312e+03 
2.592400e-01 2.250010e+03 
2.604100e-01 2.237536e+03 
2.616100e-01 2.224883e+03 
2.628400e-01 2.212061e+03 
2.640600e-01 2.199491e+03 
2.652200e-01 2.187671e+03 
2.664300e-01 2.175475e+03 
2.676500e-01 2.163316e+03 
2.688400e-01 2.151585e+03 
2.700700e-01 2.139592e+03 
2.712400e-01 2.128308e+03 
2.724800e-01 2.116478e+03 
2.736700e-01 2.105274e+03 
2.748800e-01 2.094030e+03 
2.761000e-01 2.082814e+03 
2.773200e-01 2.071720e+03 
2.785400e-01 2.060709e+03 
2.797000e-01 2.050277e+03 
2.808900e-01 2.039684e+03 
2.821400e-01 2.028675e+03 
2.833900e-01 2.017787e+03 
2.845500e-01 2.007827e+03 
2.857800e-01 1.997373e+03 
2.870300e-01 1.986863e+03 
2.882100e-01 1.977043e+03 
2.893900e-01 1.967252e+03 
2.906300e-01 1.957032e+03 
2.918900e-01 1.946755e+03 
2.930500e-01 1.937390e+03 
2.942500e-01 1.927805e+03 
2.954200e-01 1.918580e+03 
2.966500e-01 1.908978e+03 
2.978900e-01 1.899397e+03 
2.990400e-01 1.890597e+03 
3.002700e-01 1.881258e+03 
3.015100e-01 1.871927e+03 
3.026800e-01 1.863210e+03 
3.038500e-01 1.854574e+03 
3.050300e-01 1.845946e+03 
3.062600e-01 1.836954e+03 
3.075000e-01 1.827979e+03 
3.087000e-01 1.819377e+03 
3.099100e-01 1.810785e+03 
3.111200e-01 1.802315e+03 
3.123100e-01 1.794131e+03 
3.135300e-01 1.785819e+03 
3.147300e-01 1.777720e+03 
3.159900e-01 1.769297e+03 
3.171800e-01 1.761407e+03 
3.183700e-01 1.753581e+03 
3.196300e-01 1.745373e+03 
3.208400e-01 1.737564e+03 
3.220300e-01 1.729955e+03 
3.232000e-01 1.722532e+03 
3.244300e-01 1.714796e+03 
3.256700e-01 1.707070e+03 
3.269200e-01 1.699353e+03 
3.280800e-01 1.692257e+03 
3.292500e-01 1.685233e+03 
3.304800e-01 1.677937e+03 
3.317100e-01 1.670707e+03 
3.328900e-01 1.663833e+03 
3.340700e-01 1.657018e+03 
3.353600e-01 1.649622e+03 
3.365300e-01 1.642970e+03 
3.377100e-01 1.636319e+03 
3.389200e-01 1.629557e+03 
3.401600e-01 1.622688e+03 
3.413700e-01 1.616065e+03 
3.425300e-01 1.609783e+03 
3.437700e-01 1.603126e+03 
3.449800e-01 1.596686e+03 
3.461800e-01 1.590354e+03 
3.473600e-01 1.584198e+03 
3.485800e-01 1.577932e+03 
3.498100e-01 1.571670e+03 
3.510200e-01 1.565561e+03 
3.522000e-01 1.559654e+03 
3.533900e-01 1.553746e+03 
3.546400e-01 1.547573e+03 
3.558400e-01 1.541695e+03 
3.570600e-01 1.535770e+03 
3.582700e-01 1.529942e+03 
3.595000e-01 1.524068e+03 
3.607100e-01 1.518348e+03 
3.618900e-01 1.512824e+03 
3.631200e-01 1.507113e+03 
3.643200e-01 1.501587e+03 
3.655500e-01 1.495969e+03 
3.667300e-01 1.490623e+03 
3.679500e-01 1.485192e+03 
3.691900e-01 1.479717e+03 
3.703600e-01 1.474593e+03 
3.715700e-01 1.469335e+03 
3.727700e-01 1.464163e+03 
3.739900e-01 1.458938e+03 
3.752000e-01 1.453783e+03 
3.763900e-01 1.448753e+03 
3.775800e-01 1.443762e+03 
3.788200e-01 1.438602e+03 
3.800300e-01 1.433607e+03 
3.812100e-01 1.428764e+03 
3.824200e-01 1.423830e+03 
3.836100e-01 1.419015e+03 
3.848600e-01 1.413996e+03 
3.860400e-01 1.409296e+03 
3.872400e-01 1.404552e+03 
3.884600e-01 1.399750e+03 
3.896500e-01 1.395097e+03 
3.908700e-01 1.390363e+03 
3.920600e-01 1.385780e+03 
3.933100e-01 1.381003e+03 
3.945300e-01 1.376377e+03 
3.957200e-01 1.371902e+03 
3.969300e-01 1.367386e+03 
3.981700e-01 1.362794e+03 
3.993500e-01 1.358457e+03 
4.094840e-01 1.322397e+03 
4.272360e-01 1.263721e+03 
4.454600e-01 1.208793e+03 
4.630560e-01 1.159952e+03 
4.804610e-01 1.115326e+03 
4.980690e-01 1.073561e+03 
5.159230e-01 1.034186e+03 
5.317440e-01 1.001762e+03 
5.489640e-01 9.685748e+02 
5.671990e-01 9.358932e+02 
5.838690e-01 9.078486e+02 
6.018840e-01 8.794386e+02 
6.202330e-01 8.522610e+02 
6.379250e-01 8.275186e+02 
6.545410e-01 8.056043e+02 
6.714560e-01 7.844027e+02 
6.892080e-01 7.632157e+02 
7.066010e-01 7.434546e+02 
7.240540e-01 7.245930e+02 
7.420450e-01 7.059512e+02 
7.593780e-01 6.887737e+02 
7.764720e-01 6.725637e+02 
7.942840e-01 6.563382e+02 
8.116170e-01 6.410779e+02 
8.288310e-01 6.264434e+02 
8.462240e-01 6.122062e+02 
8.631980e-01 5.988298e+02 
8.810700e-01 5.852266e+02 
8.989410e-01 5.720441e+02 
9.166330e-01 5.594274e+02 
9.345640e-01 5.470236e+02 
9.515980e-01 5.356392e+02 
9.688720e-01 5.244459e+02 
9.865640e-01 5.132933e+02 
1.031870e+00 4.862060e+02 
1.063490e+00 4.684230e+02 
1.097920e+00 4.501229e+02 
1.134370e+00 4.318264e+02 
1.167730e+00 4.159510e+02 
1.203830e+00 3.996407e+02 
1.240470e+00 3.840412e+02 
1.275790e+00 3.697106e+02 
1.309140e+00 3.568915e+02 
1.342970e+00 3.444872e+02 
1.378420e+00 3.321518e+02 
1.413200e+00 3.206138e+02 
1.448110e+00 3.095829e+02 
1.484090e+00 2.987690e+02 
1.518820e+00 2.888633e+02 
1.552880e+00 2.795239e+02 
1.588630e+00 2.702077e+02 
1.623230e+00 2.615900e+02 
1.657720e+00 2.533911e+02 
1.692450e+00 2.455205e+02 
1.726400e+00 2.380904e+02 
1.762200e+00 2.306272e+02 
1.797880e+00 2.235141e+02 
1.833270e+00 2.167687e+02 
1.869070e+00 2.102372e+02 
1.903200e+00 2.042490e+02 
1.937740e+00 1.984354e+02 
1.973190e+00 1.927266e+02 
2.007440e+00 1.874241e+02 
2.042160e+00 1.822516e+02 
2.077900e+00 1.771316e+02 
2.112390e+00 1.723867e+02 
2.146220e+00 1.679138e+02 
2.181600e+00 1.633924e+02 
2.216930e+00 1.590586e+02 
2.250760e+00 1.550617e+02 
2.286500e+00 1.509881e+02 
2.321770e+00 1.471117e+02 
2.355950e+00 1.434831e+02 
2.391280e+00 1.398774e+02 
2.426240e+00 1.364377e+02 
2.460670e+00 1.331630e+02 
2.495640e+00 1.299436e+02 
2.531080e+00 1.267931e+02 
2.566220e+00 1.237712e+02 
2.600830e+00 1.208916e+02 
2.635080e+00 1.181331e+02 
2.670340e+00 1.153939e+02 
2.705970e+00 1.127181e+02 
2.740040e+00 1.102404e+02 
2.774520e+00 1.078026e+02 
2.809730e+00 1.054005e+02 
2.844390e+00 1.031126e+02 
2.879960e+00 1.008336e+02 
2.914860e+00 9.866409e+01 
2.949410e+00 9.658072e+01 
2.984440e+00 9.453079e+01 
3.019760e+00 9.252115e+01 
3.054730e+00 9.058877e+01 
3.089030e+00 8.875717e+01 
3.124060e+00 8.693944e+01 
3.159560e+00 8.514882e+01 
3.194710e+00 8.343265e+01 
3.229010e+00 8.180609e+01 
3.263320e+00 8.021075e+01 
3.297930e+00 7.864830e+01 
3.332830e+00 7.712082e+01 
3.368040e+00 7.562461e+01 
3.403300e+00 7.416914e+01 
3.438450e+00 7.275488e+01 
3.473060e+00 7.139895e+01 
3.508440e+00 7.004908e+01 
3.543110e+00 6.876089e+01 
3.577470e+00 6.751523e+01 
3.613040e+00 6.626041e+01 
3.648120e+00 6.505860e+01 
3.682910e+00 6.389546e+01 
3.718050e+00 6.274730e+01 
3.753320e+00 6.162667e+01 
3.787980e+00 6.055674e+01 
3.822290e+00 5.952180e+01 
3.857020e+00 5.849714e+01 
3.891920e+00 5.749377e+01 
3.926650e+00 5.652182e+01 
3.961970e+00 5.555639e+01 
3.997360e+00 5.461085e+01 
4.031670e+00 5.371632e+01 
4.066330e+00 5.283667e+01 
4.101420e+00 5.196649e+01 
4.136200e+00 5.112186e+01 
4.170810e+00 5.030029e+01 
4.206250e+00 4.947823e+01 
4.241580e+00 4.867729e+01 
4.276300e+00 4.791112e+01 
4.310970e+00 4.716465e+01 
4.346120e+00 4.642309e+01 
4.380600e+00 4.570934e+01 
4.414730e+00 4.501789e+01 
4.450350e+00 4.431668e+01 
4.485320e+00 4.364298e+01 
4.519810e+00 4.299037e+01 
4.555430e+00 4.232960e+01 
4.590870e+00 4.168781e+01 
4.625480e+00 4.107766e+01 
4.659910e+00 4.048292e+01 
4.695230e+00 3.988432e+01 
4.729960e+00 3.930749e+01 
4.764450e+00 3.874658e+01 
4.799530e+00 3.818832e+01 
4.834910e+00 3.763649e+01 
4.869700e+00 3.710534e+01 
4.904370e+00 3.658639e+01 
4.939450e+00 3.607182e+01 
4.973940e+00 3.557655e+01 
5.008430e+00 3.509062e+01 
5.043810e+00 3.460245e+01 
5.078840e+00 3.412879e+01 
5.113500e+00 3.366887e+01 
5.148890e+00 3.320873e+01 
5.184210e+00 3.275811e+01 
5.219060e+00 3.232180e+01 
5.253660e+00 3.189681e+01 
5.288570e+00 3.147576e+01 
5.323420e+00 3.106419e+01 
5.358440e+00 3.065935e+01 
5.393590e+00 3.026026e+01 
5.428310e+00 2.987264e+01 
5.462800e+00 2.949409e+01 
5.497640e+00 2.911834e+01 
5.532670e+00 2.874880e+01 
5.567280e+00 2.839052e+01 
5.602000e+00 2.803722e+01 
5.637270e+00 2.768470e+01 
5.672410e+00 2.733954e+01 
5.707020e+00 2.700531e+01 
5.742040e+00 2.667329e+01 
5.777430e+00 2.634351e+01 
5.812210e+00 2.602481e+01 
5.846820e+00 2.571349e+01 
5.881610e+00 2.540582e+01 
5.916510e+00 2.510219e+01 
5.951600e+00 2.480283e+01 
5.986560e+00 2.450984e+01 
6.021830e+00 2.421900e+01 
6.056490e+00 2.393774e+01 
6.091160e+00 2.366080e+01 
6.125830e+00 2.338821e+01 
6.161090e+00 2.311556e+01 
6.195760e+00 2.285213e+01 
6.230420e+00 2.259284e+01 
6.265690e+00 2.233312e+01 
6.300950e+00 2.207869e+01 
6.335620e+00 2.183236e+01 
6.370880e+00 2.158564e+01 
6.405550e+00 2.134666e+01 
6.440220e+00 2.111123e+01 
6.475480e+00 2.087539e+01 
6.510150e+00 2.064728e+01 
6.544810e+00 2.042333e+01 
6.580080e+00 2.019880e+01 
6.614750e+00 1.998134e+01 
6.649410e+00 1.976760e+01 
6.684080e+00 1.955699e+01 
6.719340e+00 1.934590e+01 
6.754010e+00 1.914133e+01 
6.788680e+00 1.893966e+01 
6.823940e+00 1.873748e+01 
6.859800e+00 1.853484e+01 
6.894470e+00 1.834239e+01 
6.929140e+00 1.815287e+01 
6.963800e+00 1.796604e+01 
6.999070e+00 1.777855e+01 
7.033730e+00 1.759657e+01 
7.068400e+00 1.741703e+01 
7.103660e+00 1.723695e+01 
7.138330e+00 1.706269e+01 
7.173600e+00 1.688859e+01 
7.208260e+00 1.671982e+01 
7.243530e+00 1.655040e+01 
7.277600e+00 1.638867e+01 
7.312860e+00 1.622327e+01 
7.348120e+00 1.606011e+01 
7.382790e+00 1.590181e+01 
7.417460e+00 1.574622e+01 
7.452720e+00 1.559041e+01 
7.487390e+00 1.543921e+01 
7.522650e+00 1.528744e+01 
7.557320e+00 1.514049e+01 
7.591990e+00 1.499555e+01 
7.627250e+00 1.485004e+01 
7.662510e+00 1.470641e+01 
7.697180e+00 1.456662e+01 
7.731850e+00 1.442844e+01 
7.766510e+00 1.429205e+01 
7.801180e+00 1.415732e+01 
7.836440e+00 1.402265e+01 
7.871110e+00 1.389227e+01 
7.906380e+00 1.376128e+01 
7.941040e+00 1.363416e+01 
7.976310e+00 1.350644e+01 
8.011570e+00 1.338037e+01 
8.046240e+00 1.325794e+01 
8.080900e+00 1.313703e+01 
8.115570e+00 1.301755e+01 
8.150830e+00 1.289752e+01 
8.185500e+00 1.278093e+01 
8.220770e+00 1.266376e+01 
8.255430e+00 1.254999e+01 
8.290100e+00 1.243796e+01 
8.324770e+00 1.232730e+01 
8.359430e+00 1.221797e+01 
8.394700e+00 1.210803e+01 
8.429960e+00 1.199945e+01 
8.464630e+00 1.189395e+01 
8.499890e+00 1.178792e+01 
8.534560e+00 1.168487e+01 
8.569200e+00 1.158310e+01 
