# Parameters:
# omega_b = 0.021610, omega_m = 0.137638, n_s = 0.906693, h = 66.102362, w = -1.000000, sigma_8 = 0.851181
# z = 0.300000
#
# k[1/Mpc] # P(k):
8.694000e-04 1.807983e+04 
2.077466e-03 3.663648e+04 
3.285532e-03 5.039866e+04 
4.493598e-03 6.052870e+04 
5.701664e-03 6.774000e+04 
6.909730e-03 7.258906e+04 
8.117797e-03 7.563728e+04 
9.325863e-03 7.717724e+04 
1.053393e-02 7.749210e+04 
1.174199e-02 7.683592e+04 
1.295006e-02 7.536891e+04 
1.415813e-02 7.329728e+04 
1.536619e-02 7.079450e+04 
1.657426e-02 6.798193e+04 
1.778233e-02 6.498487e+04 
1.899039e-02 6.196565e+04 
2.019846e-02 5.895556e+04 
2.140652e-02 5.599770e+04 
2.261459e-02 5.314140e+04 
2.382266e-02 5.043973e+04 
2.503072e-02 4.792643e+04 
2.623879e-02 4.560860e+04 
2.744685e-02 4.348743e+04 
2.865492e-02 4.156350e+04 
2.986299e-02 3.982647e+04 
3.100100e-02 3.835364e+04 
3.220400e-02 3.695454e+04 
3.288100e-02 3.623547e+04 
3.424300e-02 3.491826e+04 
3.555100e-02 3.379214e+04 
3.686000e-02 3.278239e+04 
3.795000e-02 3.201378e+04 
3.929100e-02 3.114336e+04 
4.039800e-02 3.046949e+04 
4.164000e-02 2.974916e+04 
4.294400e-02 2.901101e+04 
4.415000e-02 2.834383e+04 
4.542900e-02 2.762827e+04 
4.660900e-02 2.697178e+04 
4.782300e-02 2.627144e+04 
4.892900e-02 2.562671e+04 
5.031200e-02 2.480613e+04 
5.155900e-02 2.405124e+04 
5.238100e-02 2.354863e+04 
5.378200e-02 2.269241e+04 
5.513400e-02 2.186556e+04 
5.627600e-02 2.117238e+04 
5.735300e-02 2.053118e+04 
5.870100e-02 1.975198e+04 
5.988700e-02 1.909090e+04 
6.113500e-02 1.842418e+04 
6.225900e-02 1.785020e+04 
6.340100e-02 1.730034e+04 
6.480200e-02 1.666801e+04 
6.601100e-02 1.616206e+04 
6.725500e-02 1.567951e+04 
6.829100e-02 1.531001e+04 
6.958600e-02 1.488323e+04 
7.071100e-02 1.454542e+04 
7.192300e-02 1.421093e+04 
7.307400e-02 1.391932e+04 
7.412300e-02 1.367417e+04 
7.550400e-02 1.338081e+04 
7.663100e-02 1.315910e+04 
7.791200e-02 1.292741e+04 
7.912700e-02 1.272058e+04 
8.027600e-02 1.253506e+04 
8.138400e-02 1.236200e+04 
8.272200e-02 1.215714e+04 
8.406100e-02 1.195438e+04 
8.534100e-02 1.175719e+04 
8.653800e-02 1.156967e+04 
8.759800e-02 1.140093e+04 
8.900300e-02 1.117109e+04 
9.009000e-02 1.098704e+04 
9.113300e-02 1.080618e+04 
9.239600e-02 1.058579e+04 
9.358000e-02 1.037603e+04 
9.496100e-02 1.012748e+04 
9.608400e-02 9.926968e+03 
9.727500e-02 9.717222e+03 
9.852600e-02 9.498932e+03 
9.973800e-02 9.293767e+03 
1.009000e-01 9.102767e+03 
1.020900e-01 8.915922e+03 
1.034000e-01 8.719055e+03 
1.046000e-01 8.546907e+03 
1.057200e-01 8.396066e+03 
1.069100e-01 8.242674e+03 
1.082500e-01 8.083159e+03 
1.093900e-01 7.955731e+03 
1.105400e-01 7.833066e+03 
1.116900e-01 7.720196e+03 
1.129600e-01 7.600924e+03 
1.142000e-01 7.492462e+03 
1.153300e-01 7.397831e+03 
1.166400e-01 7.293597e+03 
1.177800e-01 7.206493e+03 
1.190000e-01 7.116143e+03 
1.201200e-01 7.034844e+03 
1.213400e-01 6.948315e+03 
1.227100e-01 6.851976e+03 
1.238900e-01 6.770396e+03 
1.250700e-01 6.688325e+03 
1.263200e-01 6.602219e+03 
1.275500e-01 6.516812e+03 
1.287500e-01 6.434322e+03 
1.299900e-01 6.349312e+03 
1.311300e-01 6.271583e+03 
1.323500e-01 6.188241e+03 
1.335900e-01 6.104673e+03 
1.347100e-01 6.029787e+03 
1.359800e-01 5.946321e+03 
1.372100e-01 5.866501e+03 
1.384300e-01 5.788906e+03 
1.395700e-01 5.717520e+03 
1.407700e-01 5.643956e+03 
1.420300e-01 5.568564e+03 
1.432800e-01 5.495407e+03 
1.444500e-01 5.428800e+03 
1.456300e-01 5.362976e+03 
1.468900e-01 5.295140e+03 
1.480500e-01 5.234252e+03 
1.491700e-01 5.176985e+03 
1.503800e-01 5.116824e+03 
1.516400e-01 5.055692e+03 
1.528200e-01 5.000674e+03 
1.540200e-01 4.945790e+03 
1.551900e-01 4.893917e+03 
1.564300e-01 4.840137e+03 
1.576600e-01 4.788320e+03 
1.588700e-01 4.738910e+03 
1.600900e-01 4.690029e+03 
1.612700e-01 4.643765e+03 
1.625400e-01 4.594893e+03 
1.637600e-01 4.549015e+03 
1.649500e-01 4.505179e+03 
1.662200e-01 4.459201e+03 
1.674000e-01 4.417000e+03 
1.685000e-01 4.378314e+03 
1.697500e-01 4.334874e+03 
1.710300e-01 4.290976e+03 
1.722200e-01 4.250883e+03 
1.734400e-01 4.210003e+03 
1.746400e-01 4.170459e+03 
1.758700e-01 4.130555e+03 
1.770900e-01 4.091529e+03 
1.782700e-01 4.054408e+03 
1.794600e-01 4.017349e+03 
1.807000e-01 3.979215e+03 
1.819100e-01 3.942622e+03 
1.830100e-01 3.909719e+03 
1.842200e-01 3.874058e+03 
1.855000e-01 3.836975e+03 
1.867000e-01 3.803151e+03 
1.879200e-01 3.769308e+03 
1.890900e-01 3.737399e+03 
1.902800e-01 3.705660e+03 
1.915200e-01 3.673103e+03 
1.926900e-01 3.642940e+03 
1.939000e-01 3.612490e+03 
1.951700e-01 3.581029e+03 
1.963100e-01 3.553290e+03 
1.975100e-01 3.524719e+03 
1.987800e-01 3.494942e+03 
2.000100e-01 3.466616e+03 
2.012500e-01 3.438658e+03 
2.023400e-01 3.414429e+03 
2.036100e-01 3.386605e+03 
2.048900e-01 3.359009e+03 
2.060400e-01 3.334575e+03 
2.072200e-01 3.309849e+03 
2.084200e-01 3.285073e+03 
2.096900e-01 3.259230e+03 
2.109200e-01 3.234564e+03 
2.121100e-01 3.210899e+03 
2.132700e-01 3.188136e+03 
2.145200e-01 3.163944e+03 
2.157200e-01 3.140954e+03 
2.168800e-01 3.118987e+03 
2.180700e-01 3.096749e+03 
2.193400e-01 3.073288e+03 
2.206000e-01 3.050235e+03 
2.217500e-01 3.029476e+03 
2.229500e-01 3.008094e+03 
2.241400e-01 2.987038e+03 
2.253500e-01 2.965905e+03 
2.264900e-01 2.946247e+03 
2.277100e-01 2.925456e+03 
2.289900e-01 2.903910e+03 
2.301500e-01 2.884639e+03 
2.313600e-01 2.864787e+03 
2.325600e-01 2.845185e+03 
2.337700e-01 2.825669e+03 
2.350000e-01 2.806083e+03 
2.362000e-01 2.787210e+03 
2.374100e-01 2.768410e+03 
2.386500e-01 2.749386e+03 
2.399100e-01 2.730303e+03 
2.410400e-01 2.713311e+03 
2.422500e-01 2.695320e+03 
2.435000e-01 2.676965e+03 
2.447300e-01 2.659166e+03 
2.458700e-01 2.643015e+03 
2.470600e-01 2.626350e+03 
2.483300e-01 2.608782e+03 
2.495600e-01 2.592040e+03 
2.507600e-01 2.575989e+03 
2.519600e-01 2.560126e+03 
2.532200e-01 2.543668e+03 
2.543700e-01 2.528927e+03 
2.555500e-01 2.514041e+03 
2.568000e-01 2.498455e+03 
2.580100e-01 2.483544e+03 
2.592400e-01 2.468714e+03 
2.604100e-01 2.454834e+03 
2.616100e-01 2.440756e+03 
2.628400e-01 2.426489e+03 
2.640600e-01 2.412574e+03 
2.652200e-01 2.399519e+03 
2.664300e-01 2.386050e+03 
2.676500e-01 2.372620e+03 
2.688400e-01 2.359726e+03 
2.700700e-01 2.346583e+03 
2.712400e-01 2.334216e+03 
2.724800e-01 2.321251e+03 
2.736700e-01 2.309013e+03 
2.748800e-01 2.296772e+03 
2.761000e-01 2.284564e+03 
2.773200e-01 2.272487e+03 
2.785400e-01 2.260520e+03 
2.797000e-01 2.249218e+03 
2.808900e-01 2.237744e+03 
2.821400e-01 2.225818e+03 
2.833900e-01 2.214024e+03 
2.845500e-01 2.203273e+03 
2.857800e-01 2.191989e+03 
2.870300e-01 2.180643e+03 
2.882100e-01 2.170043e+03 
2.893900e-01 2.159485e+03 
2.906300e-01 2.148469e+03 
2.918900e-01 2.137393e+03 
2.930500e-01 2.127299e+03 
2.942500e-01 2.116970e+03 
2.954200e-01 2.107035e+03 
2.966500e-01 2.096695e+03 
2.978900e-01 2.086375e+03 
2.990400e-01 2.076899e+03 
3.002700e-01 2.066842e+03 
3.015100e-01 2.056797e+03 
3.026800e-01 2.047410e+03 
3.038500e-01 2.038112e+03 
3.050300e-01 2.028822e+03 
3.062600e-01 2.019133e+03 
3.075000e-01 2.009462e+03 
3.087000e-01 2.000193e+03 
3.099100e-01 1.990936e+03 
3.111200e-01 1.981809e+03 
3.123100e-01 1.972989e+03 
3.135300e-01 1.964033e+03 
3.147300e-01 1.955306e+03 
3.159900e-01 1.946230e+03 
3.171800e-01 1.937725e+03 
3.183700e-01 1.929290e+03 
3.196300e-01 1.920443e+03 
3.208400e-01 1.912026e+03 
3.220300e-01 1.903825e+03 
3.232000e-01 1.895820e+03 
3.244300e-01 1.887476e+03 
3.256700e-01 1.879142e+03 
3.269200e-01 1.870819e+03 
3.280800e-01 1.863165e+03 
3.292500e-01 1.855592e+03 
3.304800e-01 1.847725e+03 
3.317100e-01 1.839930e+03 
3.328900e-01 1.832519e+03 
3.340700e-01 1.825171e+03 
3.353600e-01 1.817196e+03 
3.365300e-01 1.810022e+03 
3.377100e-01 1.802849e+03 
3.389200e-01 1.795556e+03 
3.401600e-01 1.788149e+03 
3.413700e-01 1.781006e+03 
3.425300e-01 1.774231e+03 
3.437700e-01 1.767050e+03 
3.449800e-01 1.760105e+03 
3.461800e-01 1.753276e+03 
3.473600e-01 1.746638e+03 
3.485800e-01 1.739884e+03 
3.498100e-01 1.733133e+03 
3.510200e-01 1.726550e+03 
3.522000e-01 1.720183e+03 
3.533900e-01 1.713815e+03 
3.546400e-01 1.707163e+03 
3.558400e-01 1.700829e+03 
3.570600e-01 1.694444e+03 
3.582700e-01 1.688165e+03 
3.595000e-01 1.681834e+03 
3.607100e-01 1.675671e+03 
3.618900e-01 1.669720e+03 
3.631200e-01 1.663567e+03 
3.643200e-01 1.657613e+03 
3.655500e-01 1.651561e+03 
3.667300e-01 1.645802e+03 
3.679500e-01 1.639952e+03 
3.691900e-01 1.634055e+03 
3.703600e-01 1.628535e+03 
3.715700e-01 1.622872e+03 
3.727700e-01 1.617301e+03 
3.739900e-01 1.611673e+03 
3.752000e-01 1.606120e+03 
3.763900e-01 1.600702e+03 
3.775800e-01 1.595327e+03 
3.788200e-01 1.589769e+03 
3.800300e-01 1.584390e+03 
3.812100e-01 1.579173e+03 
3.824200e-01 1.573857e+03 
3.836100e-01 1.568669e+03 
3.848600e-01 1.563262e+03 
3.860400e-01 1.558198e+03 
3.872400e-01 1.553088e+03 
3.884600e-01 1.547914e+03 
3.896500e-01 1.542899e+03 
3.908700e-01 1.537797e+03 
3.920600e-01 1.532859e+03 
3.933100e-01 1.527711e+03 
3.945300e-01 1.522726e+03 
3.957200e-01 1.517901e+03 
3.969300e-01 1.513033e+03 
3.981700e-01 1.508082e+03 
3.993500e-01 1.503405e+03 
4.094840e-01 1.464516e+03 
4.272360e-01 1.401111e+03 
4.454600e-01 1.341614e+03 
4.630560e-01 1.288566e+03 
4.804610e-01 1.239976e+03 
4.980690e-01 1.194401e+03 
5.159230e-01 1.151361e+03 
5.317440e-01 1.115875e+03 
5.489640e-01 1.079515e+03 
5.671990e-01 1.043671e+03 
5.838690e-01 1.012887e+03 
6.018840e-01 9.816801e+02 
6.202330e-01 9.517924e+02 
6.379250e-01 9.245545e+02 
6.545410e-01 9.003970e+02 
6.714560e-01 8.769953e+02 
6.892080e-01 8.535707e+02 
7.066010e-01 8.316806e+02 
7.240540e-01 8.107527e+02 
7.420450e-01 7.900182e+02 
7.593780e-01 7.708752e+02 
7.764720e-01 7.527738e+02 
7.942840e-01 7.346201e+02 
8.116170e-01 7.175061e+02 
8.288310e-01 7.010568e+02 
8.462240e-01 6.850238e+02 
8.631980e-01 6.699334e+02 
8.810700e-01 6.545582e+02 
8.989410e-01 6.396353e+02 
9.166330e-01 6.253291e+02 
9.345640e-01 6.112423e+02 
9.515980e-01 5.982967e+02 
9.688720e-01 5.855516e+02 
9.865640e-01 5.728354e+02 
1.031870e+00 5.419137e+02 
1.063490e+00 5.215817e+02 
1.097920e+00 5.006318e+02 
1.134370e+00 4.796774e+02 
1.167730e+00 4.614893e+02 
1.203830e+00 4.428011e+02 
1.240470e+00 4.249317e+02 
1.275790e+00 4.085233e+02 
1.309140e+00 3.938534e+02 
1.342970e+00 3.796675e+02 
1.378420e+00 3.655712e+02 
1.413200e+00 3.523993e+02 
1.448110e+00 3.398207e+02 
1.484090e+00 3.275025e+02 
1.518820e+00 3.162307e+02 
1.552880e+00 3.056181e+02 
1.588630e+00 2.950440e+02 
1.623230e+00 2.852761e+02 
1.657720e+00 2.759933e+02 
1.692450e+00 2.670926e+02 
1.726400e+00 2.587044e+02 
1.762200e+00 2.502888e+02 
1.797880e+00 2.422783e+02 
1.833270e+00 2.346914e+02 
1.869070e+00 2.273557e+02 
1.903200e+00 2.206396e+02 
1.937740e+00 2.141269e+02 
1.973190e+00 2.077394e+02 
2.007440e+00 2.018146e+02 
2.042160e+00 1.960427e+02 
2.077900e+00 1.903366e+02 
2.112390e+00 1.850545e+02 
2.146220e+00 1.800816e+02 
2.181600e+00 1.750617e+02 
2.216930e+00 1.702554e+02 
2.250760e+00 1.658279e+02 
2.286500e+00 1.613207e+02 
2.321770e+00 1.570370e+02 
2.355950e+00 1.530318e+02 
2.391280e+00 1.490564e+02 
2.426240e+00 1.452681e+02 
2.460670e+00 1.416654e+02 
2.495640e+00 1.381274e+02 
2.531080e+00 1.346696e+02 
2.566220e+00 1.313566e+02 
2.600830e+00 1.282027e+02 
2.635080e+00 1.251843e+02 
2.670340e+00 1.221906e+02 
2.705970e+00 1.192690e+02 
2.740040e+00 1.165660e+02 
2.774520e+00 1.139096e+02 
2.809730e+00 1.112946e+02 
2.844390e+00 1.088058e+02 
2.879960e+00 1.063293e+02 
2.914860e+00 1.039743e+02 
2.949410e+00 1.017146e+02 
2.984440e+00 9.949352e+01 
3.019760e+00 9.731810e+01 
3.054730e+00 9.522783e+01 
3.089030e+00 9.324871e+01 
3.124060e+00 9.128595e+01 
3.159560e+00 8.935416e+01 
3.194710e+00 8.750435e+01 
3.229010e+00 8.575210e+01 
3.263320e+00 8.403570e+01 
3.297930e+00 8.235561e+01 
3.332830e+00 8.071442e+01 
3.368040e+00 7.910802e+01 
3.403300e+00 7.754633e+01 
3.438450e+00 7.603036e+01 
3.473060e+00 7.457759e+01 
3.508440e+00 7.313298e+01 
3.543110e+00 7.175496e+01 
3.577470e+00 7.042380e+01 
3.613040e+00 6.908341e+01 
3.648120e+00 6.780064e+01 
3.682910e+00 6.655985e+01 
3.718050e+00 6.533609e+01 
3.753320e+00 6.414228e+01 
3.787980e+00 6.300319e+01 
3.822290e+00 6.190200e+01 
3.857020e+00 6.081261e+01 
3.891920e+00 5.974633e+01 
3.926650e+00 5.871412e+01 
3.961970e+00 5.768929e+01 
3.997360e+00 5.668642e+01 
4.031670e+00 5.573797e+01 
4.066330e+00 5.480600e+01 
4.101420e+00 5.388428e+01 
4.136200e+00 5.299051e+01 
4.170810e+00 5.212131e+01 
4.206250e+00 5.125228e+01 
4.241580e+00 5.040584e+01 
4.276300e+00 4.959662e+01 
4.310970e+00 4.880852e+01 
4.346120e+00 4.802598e+01 
4.380600e+00 4.727327e+01 
4.414730e+00 4.654423e+01 
4.450350e+00 4.580545e+01 
4.485320e+00 4.509577e+01 
4.519810e+00 4.440881e+01 
4.555430e+00 4.371354e+01 
4.590870e+00 4.303845e+01 
4.625480e+00 4.239692e+01 
4.659910e+00 4.177170e+01 
4.695230e+00 4.114293e+01 
4.729960e+00 4.053717e+01 
4.764450e+00 3.994835e+01 
4.799530e+00 3.936259e+01 
4.834910e+00 3.878366e+01 
4.869700e+00 3.822677e+01 
4.904370e+00 3.768280e+01 
4.939450e+00 3.714359e+01 
4.973940e+00 3.662491e+01 
5.008430e+00 3.611607e+01 
5.043810e+00 3.560510e+01 
5.078840e+00 3.510947e+01 
5.113500e+00 3.462828e+01 
5.148890e+00 3.414718e+01 
5.184210e+00 3.367611e+01 
5.219060e+00 3.322014e+01 
5.253660e+00 3.277622e+01 
5.288570e+00 3.233647e+01 
5.323420e+00 3.190676e+01 
5.358440e+00 3.148420e+01 
5.393590e+00 3.106771e+01 
5.428310e+00 3.066336e+01 
5.462800e+00 3.026860e+01 
5.497640e+00 2.987681e+01 
5.532670e+00 2.949164e+01 
5.567280e+00 2.911827e+01 
5.602000e+00 2.875014e+01 
5.637270e+00 2.838301e+01 
5.672410e+00 2.802361e+01 
5.707020e+00 2.767564e+01 
5.742040e+00 2.733013e+01 
5.777430e+00 2.698701e+01 
5.812210e+00 2.665546e+01 
5.846820e+00 2.633172e+01 
5.881610e+00 2.601182e+01 
5.916510e+00 2.569617e+01 
5.951600e+00 2.538506e+01 
5.986560e+00 2.508062e+01 
6.021830e+00 2.477847e+01 
6.056490e+00 2.448636e+01 
6.091160e+00 2.419883e+01 
6.125830e+00 2.391584e+01 
6.161090e+00 2.363284e+01 
6.195760e+00 2.335950e+01 
6.230420e+00 2.309048e+01 
6.265690e+00 2.282105e+01 
6.300950e+00 2.255722e+01 
6.335620e+00 2.230180e+01 
6.370880e+00 2.204601e+01 
6.405550e+00 2.179833e+01 
6.440220e+00 2.155439e+01 
6.475480e+00 2.131004e+01 
6.510150e+00 2.107375e+01 
6.544810e+00 2.084183e+01 
6.580080e+00 2.060934e+01 
6.614750e+00 2.038419e+01 
6.649410e+00 2.016298e+01 
6.684080e+00 1.994503e+01 
6.719340e+00 1.972661e+01 
6.754010e+00 1.951498e+01 
6.788680e+00 1.930641e+01 
6.823940e+00 1.909734e+01 
6.859800e+00 1.888781e+01 
6.894470e+00 1.868888e+01 
6.929140e+00 1.849301e+01 
6.963800e+00 1.829993e+01 
6.999070e+00 1.810620e+01 
7.033730e+00 1.791824e+01 
7.068400e+00 1.773282e+01 
7.103660e+00 1.754686e+01 
7.138330e+00 1.736694e+01 
7.173600e+00 1.718723e+01 
7.208260e+00 1.701304e+01 
7.243530e+00 1.683819e+01 
7.277600e+00 1.667133e+01 
7.312860e+00 1.650073e+01 
7.348120e+00 1.633245e+01 
7.382790e+00 1.616920e+01 
7.417460e+00 1.600879e+01 
7.452720e+00 1.584817e+01 
7.487390e+00 1.569233e+01 
7.522650e+00 1.553592e+01 
7.557320e+00 1.538451e+01 
7.591990e+00 1.523520e+01 
7.627250e+00 1.508531e+01 
7.662510e+00 1.493738e+01 
7.697180e+00 1.479345e+01 
7.731850e+00 1.465121e+01 
7.766510e+00 1.451082e+01 
7.801180e+00 1.437217e+01 
7.836440e+00 1.423359e+01 
7.871110e+00 1.409946e+01 
7.906380e+00 1.396472e+01 
7.941040e+00 1.383397e+01 
7.976310e+00 1.370263e+01 
8.011570e+00 1.357303e+01 
8.046240e+00 1.344717e+01 
8.080900e+00 1.332289e+01 
8.115570e+00 1.320010e+01 
8.150830e+00 1.307679e+01 
8.185500e+00 1.295702e+01 
8.220770e+00 1.283665e+01 
8.255430e+00 1.271980e+01 
8.290100e+00 1.260478e+01 
8.324770e+00 1.249117e+01 
8.359430e+00 1.237894e+01 
8.394700e+00 1.226610e+01 
8.429960e+00 1.215468e+01 
8.464630e+00 1.204645e+01 
8.499890e+00 1.193768e+01 
8.534560e+00 1.183199e+01 
8.569200e+00 1.172761e+01 
