# Parameters:
# omega_b = 0.022114, omega_m = 0.147008, n_s = 0.876772, h = 82.165354, w = -1.000000, sigma_8 = 0.761417
# z = 0.300000
#
# k[1/Mpc] # P(k):
8.694000e-04 1.096152e+04 
2.077466e-03 2.175854e+04 
3.285532e-03 2.975086e+04 
4.493598e-03 3.566616e+04 
5.701664e-03 3.990933e+04 
6.909730e-03 4.280592e+04 
8.117797e-03 4.467983e+04 
9.325863e-03 4.569805e+04 
1.053393e-02 4.601769e+04 
1.174199e-02 4.577682e+04 
1.295006e-02 4.506625e+04 
1.415813e-02 4.400173e+04 
1.536619e-02 4.267681e+04 
1.657426e-02 4.117991e+04 
1.778233e-02 3.961007e+04 
1.899039e-02 3.791940e+04 
2.019846e-02 3.604930e+04 
2.140652e-02 3.415072e+04 
2.261459e-02 3.232134e+04 
2.382266e-02 3.059734e+04 
2.503072e-02 2.899734e+04 
2.623879e-02 2.752604e+04 
2.744685e-02 2.618474e+04 
2.865492e-02 2.497417e+04 
2.986299e-02 2.388833e+04 
3.100100e-02 2.297622e+04 
3.220400e-02 2.211987e+04 
3.288100e-02 2.168607e+04 
3.424300e-02 2.090398e+04 
3.555100e-02 2.025152e+04 
3.686000e-02 1.968319e+04 
3.795000e-02 1.926217e+04 
3.929100e-02 1.880085e+04 
4.039800e-02 1.845197e+04 
4.164000e-02 1.808413e+04 
4.294400e-02 1.770845e+04 
4.415000e-02 1.736554e+04 
4.542900e-02 1.698715e+04 
4.660900e-02 1.663058e+04 
4.782300e-02 1.623183e+04 
4.892900e-02 1.585240e+04 
5.031200e-02 1.535045e+04 
5.155900e-02 1.487029e+04 
5.238100e-02 1.454254e+04 
5.378200e-02 1.397196e+04 
5.513400e-02 1.340829e+04 
5.627600e-02 1.292906e+04 
5.735300e-02 1.248268e+04 
5.870100e-02 1.193847e+04 
5.988700e-02 1.147802e+04 
6.113500e-02 1.101656e+04 
6.225900e-02 1.062364e+04 
6.340100e-02 1.025214e+04 
6.480200e-02 9.831888e+03 
6.601100e-02 9.503791e+03 
6.725500e-02 9.198354e+03 
6.829100e-02 8.971024e+03 
6.958600e-02 8.714128e+03 
7.071100e-02 8.516767e+03 
7.192300e-02 8.326232e+03 
7.307400e-02 8.164109e+03 
7.412300e-02 8.030555e+03 
7.550400e-02 7.874142e+03 
7.663100e-02 7.757345e+03 
7.791200e-02 7.636337e+03 
7.912700e-02 7.527894e+03 
8.027600e-02 7.429828e+03 
8.138400e-02 7.337262e+03 
8.272200e-02 7.225810e+03 
8.406100e-02 7.113443e+03 
8.534100e-02 7.001783e+03 
8.653800e-02 6.893895e+03 
8.759800e-02 6.795830e+03 
8.900300e-02 6.660819e+03 
9.009000e-02 6.551579e+03 
9.113300e-02 6.443163e+03 
9.239600e-02 6.310053e+03 
9.358000e-02 6.182050e+03 
9.496100e-02 6.028069e+03 
9.608400e-02 5.902404e+03 
9.727500e-02 5.769807e+03 
9.852600e-02 5.628483e+03 
9.973800e-02 5.494335e+03 
1.009000e-01 5.368390e+03 
1.020900e-01 5.242596e+03 
1.034000e-01 5.109365e+03 
1.046000e-01 4.992141e+03 
1.057200e-01 4.888948e+03 
1.069100e-01 4.784144e+03 
1.082500e-01 4.675605e+03 
1.093900e-01 4.589953e+03 
1.105400e-01 4.508146e+03 
1.116900e-01 4.434986e+03 
1.129600e-01 4.358601e+03 
1.142000e-01 4.291759e+03 
1.153300e-01 4.234630e+03 
1.166400e-01 4.173565e+03 
1.177800e-01 4.124237e+03 
1.190000e-01 4.073880e+03 
1.201200e-01 4.030004e+03 
1.213400e-01 3.983565e+03 
1.227100e-01 3.932774e+03 
1.238900e-01 3.889747e+03 
1.250700e-01 3.846306e+03 
1.263200e-01 3.800407e+03 
1.275500e-01 3.754172e+03 
1.287500e-01 3.708898e+03 
1.299900e-01 3.661274e+03 
1.311300e-01 3.616945e+03 
1.323500e-01 3.568259e+03 
1.335900e-01 3.518575e+03 
1.347100e-01 3.472925e+03 
1.359800e-01 3.421372e+03 
1.372100e-01 3.370721e+03 
1.384300e-01 3.321025e+03 
1.395700e-01 3.274183e+03 
1.407700e-01 3.225834e+03 
1.420300e-01 3.175141e+03 
1.432800e-01 3.126003e+03 
1.444500e-01 3.080696e+03 
1.456300e-01 3.035969e+03 
1.468900e-01 2.989987e+03 
1.480500e-01 2.948776e+03 
1.491700e-01 2.910334e+03 
1.503800e-01 2.870345e+03 
1.516400e-01 2.829954e+03 
1.528200e-01 2.794547e+03 
1.540200e-01 2.759247e+03 
1.551900e-01 2.726996e+03 
1.564300e-01 2.693840e+03 
1.576600e-01 2.662469e+03 
1.588700e-01 2.633248e+03 
1.600900e-01 2.604396e+03 
1.612700e-01 2.578054e+03 
1.625400e-01 2.550229e+03 
1.637600e-01 2.524438e+03 
1.649500e-01 2.499990e+03 
1.662200e-01 2.474351e+03 
1.674000e-01 2.450841e+03 
1.685000e-01 2.429289e+03 
1.697500e-01 2.404891e+03 
1.710300e-01 2.380040e+03 
1.722200e-01 2.357344e+03 
1.734400e-01 2.333573e+03 
1.746400e-01 2.310555e+03 
1.758700e-01 2.287095e+03 
1.770900e-01 2.263675e+03 
1.782700e-01 2.241402e+03 
1.794600e-01 2.218796e+03 
1.807000e-01 2.195291e+03 
1.819100e-01 2.172743e+03 
1.830100e-01 2.152121e+03 
1.842200e-01 2.129718e+03 
1.855000e-01 2.106421e+03 
1.867000e-01 2.084921e+03 
1.879200e-01 2.063419e+03 
1.890900e-01 2.043146e+03 
1.902800e-01 2.022947e+03 
1.915200e-01 2.002236e+03 
1.926900e-01 1.983077e+03 
1.939000e-01 1.963813e+03 
1.951700e-01 1.943917e+03 
1.963100e-01 1.926431e+03 
1.975100e-01 1.908557e+03 
1.987800e-01 1.889934e+03 
2.000100e-01 1.872290e+03 
2.012500e-01 1.855026e+03 
2.023400e-01 1.840070e+03 
2.036100e-01 1.822946e+03 
2.048900e-01 1.806153e+03 
2.060400e-01 1.791286e+03 
2.072200e-01 1.776262e+03 
2.084200e-01 1.761397e+03 
2.096900e-01 1.745894e+03 
2.109200e-01 1.731101e+03 
2.121100e-01 1.717099e+03 
2.132700e-01 1.703643e+03 
2.145200e-01 1.689345e+03 
2.157200e-01 1.675910e+03 
2.168800e-01 1.663143e+03 
2.180700e-01 1.650220e+03 
2.193400e-01 1.636690e+03 
2.206000e-01 1.623585e+03 
2.217500e-01 1.611785e+03 
2.229500e-01 1.599632e+03 
2.241400e-01 1.587981e+03 
2.253500e-01 1.576297e+03 
2.264900e-01 1.565428e+03 
2.277100e-01 1.554123e+03 
2.289900e-01 1.542618e+03 
2.301500e-01 1.532327e+03 
2.313600e-01 1.521730e+03 
2.325600e-01 1.511663e+03 
2.337700e-01 1.501640e+03 
2.350000e-01 1.491580e+03 
2.362000e-01 1.482046e+03 
2.374100e-01 1.472738e+03 
2.386500e-01 1.463318e+03 
2.399100e-01 1.453868e+03 
2.410400e-01 1.445650e+03 
2.422500e-01 1.436973e+03 
2.435000e-01 1.428121e+03 
2.447300e-01 1.419556e+03 
2.458700e-01 1.411863e+03 
2.470600e-01 1.403926e+03 
2.483300e-01 1.395558e+03 
2.495600e-01 1.387557e+03 
2.507600e-01 1.379848e+03 
2.519600e-01 1.372230e+03 
2.532200e-01 1.364326e+03 
2.543700e-01 1.357136e+03 
2.555500e-01 1.349799e+03 
2.568000e-01 1.342118e+03 
2.580100e-01 1.334769e+03 
2.592400e-01 1.327266e+03 
2.604100e-01 1.320157e+03 
2.616100e-01 1.312947e+03 
2.628400e-01 1.305641e+03 
2.640600e-01 1.298295e+03 
2.652200e-01 1.291317e+03 
2.664300e-01 1.284117e+03 
2.676500e-01 1.276937e+03 
2.688400e-01 1.269870e+03 
2.700700e-01 1.262556e+03 
2.712400e-01 1.255674e+03 
2.724800e-01 1.248459e+03 
2.736700e-01 1.241537e+03 
2.748800e-01 1.234496e+03 
2.761000e-01 1.227474e+03 
2.773200e-01 1.220528e+03 
2.785400e-01 1.213595e+03 
2.797000e-01 1.206942e+03 
2.808900e-01 1.200188e+03 
2.821400e-01 1.193169e+03 
2.833900e-01 1.186223e+03 
2.845500e-01 1.179791e+03 
2.857800e-01 1.173041e+03 
2.870300e-01 1.166255e+03 
2.882100e-01 1.159914e+03 
2.893900e-01 1.153566e+03 
2.906300e-01 1.146924e+03 
2.918900e-01 1.140246e+03 
2.930500e-01 1.134161e+03 
2.942500e-01 1.127927e+03 
2.954200e-01 1.121909e+03 
2.966500e-01 1.115646e+03 
2.978900e-01 1.109395e+03 
2.990400e-01 1.103655e+03 
3.002700e-01 1.097558e+03 
3.015100e-01 1.091463e+03 
3.026800e-01 1.085769e+03 
3.038500e-01 1.080129e+03 
3.050300e-01 1.074494e+03 
3.062600e-01 1.068623e+03 
3.075000e-01 1.062763e+03 
3.087000e-01 1.057147e+03 
3.099100e-01 1.051538e+03 
3.111200e-01 1.046006e+03 
3.123100e-01 1.040655e+03 
3.135300e-01 1.035222e+03 
3.147300e-01 1.029928e+03 
3.159900e-01 1.024423e+03 
3.171800e-01 1.019268e+03 
3.183700e-01 1.014157e+03 
3.196300e-01 1.008797e+03 
3.208400e-01 1.003699e+03 
3.220300e-01 9.987300e+02 
3.232000e-01 9.938870e+02 
3.244300e-01 9.888413e+02 
3.256700e-01 9.838019e+02 
3.269200e-01 9.787694e+02 
3.280800e-01 9.741413e+02 
3.292500e-01 9.695599e+02 
3.304800e-01 9.648010e+02 
3.317100e-01 9.600853e+02 
3.328900e-01 9.556015e+02 
3.340700e-01 9.511566e+02 
3.353600e-01 9.463399e+02 
3.365300e-01 9.420100e+02 
3.377100e-01 9.376804e+02 
3.389200e-01 9.332791e+02 
3.401600e-01 9.288085e+02 
3.413700e-01 9.245005e+02 
3.425300e-01 9.204167e+02 
3.437700e-01 9.160886e+02 
3.449800e-01 9.119020e+02 
3.461800e-01 9.077855e+02 
3.473600e-01 9.037886e+02 
3.485800e-01 8.997327e+02 
3.498100e-01 8.956787e+02 
3.510200e-01 8.917246e+02 
3.522000e-01 8.879005e+02 
3.533900e-01 8.840758e+02 
3.546400e-01 8.800897e+02 
3.558400e-01 8.762953e+02 
3.570600e-01 8.724696e+02 
3.582700e-01 8.687068e+02 
3.595000e-01 8.649137e+02 
3.607100e-01 8.612274e+02 
3.618900e-01 8.576729e+02 
3.631200e-01 8.539979e+02 
3.643200e-01 8.504417e+02 
3.655500e-01 8.468264e+02 
3.667300e-01 8.433859e+02 
3.679500e-01 8.399117e+02 
3.691900e-01 8.364093e+02 
3.703600e-01 8.331309e+02 
3.715700e-01 8.297671e+02 
3.727700e-01 8.264574e+02 
3.739900e-01 8.231167e+02 
3.752000e-01 8.198251e+02 
3.763900e-01 8.166131e+02 
3.775800e-01 8.134259e+02 
3.788200e-01 8.101309e+02 
3.800300e-01 8.069410e+02 
3.812100e-01 8.038623e+02 
3.824200e-01 8.007352e+02 
3.836100e-01 7.976832e+02 
3.848600e-01 7.945023e+02 
3.860400e-01 7.915227e+02 
3.872400e-01 7.885153e+02 
3.884600e-01 7.854876e+02 
3.896500e-01 7.825591e+02 
3.908700e-01 7.795795e+02 
3.920600e-01 7.766950e+02 
3.933100e-01 7.736881e+02 
3.945300e-01 7.707758e+02 
3.957200e-01 7.679640e+02 
3.969300e-01 7.651283e+02 
3.981700e-01 7.622442e+02 
3.993500e-01 7.595200e+02 
4.094840e-01 7.369831e+02 
4.272360e-01 7.006527e+02 
4.454600e-01 6.669864e+02 
4.630560e-01 6.372960e+02 
4.804610e-01 6.103712e+02 
4.980690e-01 5.853008e+02 
5.159230e-01 5.618070e+02 
5.317440e-01 5.425523e+02 
5.489640e-01 5.229745e+02 
5.671990e-01 5.038169e+02 
5.838690e-01 4.874975e+02 
6.018840e-01 4.710862e+02 
6.202330e-01 4.555535e+02 
6.379250e-01 4.415161e+02 
6.545410e-01 4.292269e+02 
6.714560e-01 4.174343e+02 
6.892080e-01 4.057798e+02 
7.066010e-01 3.950318e+02 
7.240540e-01 3.848533e+02 
7.420450e-01 3.749246e+02 
7.593780e-01 3.658554e+02 
7.764720e-01 3.573687e+02 
7.942840e-01 3.489496e+02 
8.116170e-01 3.411102e+02 
8.288310e-01 3.336446e+02 
8.462240e-01 3.264241e+02 
8.631980e-01 3.196949e+02 
8.810700e-01 3.128935e+02 
8.989410e-01 3.063307e+02 
9.166330e-01 3.000791e+02 
9.345640e-01 2.939531e+02 
9.515980e-01 2.883525e+02 
9.688720e-01 2.828638e+02 
9.865640e-01 2.774076e+02 
1.031870e+00 2.641866e+02 
1.063490e+00 2.555228e+02 
1.097920e+00 2.466224e+02 
1.134370e+00 2.377000e+02 
1.167730e+00 2.299442e+02 
1.203830e+00 2.219545e+02 
1.240470e+00 2.142851e+02 
1.275790e+00 2.072122e+02 
1.309140e+00 2.008560e+02 
1.342970e+00 1.946759e+02 
1.378420e+00 1.885028e+02 
1.413200e+00 1.826988e+02 
1.448110e+00 1.771225e+02 
1.484090e+00 1.716247e+02 
1.518820e+00 1.665679e+02 
1.552880e+00 1.617685e+02 
1.588630e+00 1.569578e+02 
1.623230e+00 1.524875e+02 
1.657720e+00 1.482154e+02 
1.692450e+00 1.440926e+02 
1.726400e+00 1.401781e+02 
1.762200e+00 1.362279e+02 
1.797880e+00 1.324429e+02 
1.833270e+00 1.288414e+02 
1.869070e+00 1.253365e+02 
1.903200e+00 1.221069e+02 
1.937740e+00 1.189594e+02 
1.973190e+00 1.158543e+02 
2.007440e+00 1.129582e+02 
2.042160e+00 1.101219e+02 
2.077900e+00 1.073030e+02 
2.112390e+00 1.046802e+02 
2.146220e+00 1.021976e+02 
2.181600e+00 9.967823e+01 
2.216930e+00 9.725465e+01 
2.250760e+00 9.501185e+01 
2.286500e+00 9.271797e+01 
2.321770e+00 9.052735e+01 
2.355950e+00 8.846987e+01 
2.391280e+00 8.641773e+01 
2.426240e+00 8.445405e+01 
2.460670e+00 8.257895e+01 
2.495640e+00 8.072992e+01 
2.531080e+00 7.891396e+01 
2.566220e+00 7.716689e+01 
2.600830e+00 7.549752e+01 
2.635080e+00 7.389418e+01 
2.670340e+00 7.229640e+01 
2.705970e+00 7.073173e+01 
2.740040e+00 6.927953e+01 
2.774520e+00 6.784622e+01 
2.809730e+00 6.643045e+01 
2.844390e+00 6.507921e+01 
2.879960e+00 6.372947e+01 
2.914860e+00 6.244089e+01 
2.949410e+00 6.120114e+01 
2.984440e+00 5.997806e+01 
3.019760e+00 5.877618e+01 
3.054730e+00 5.761848e+01 
3.089030e+00 5.651784e+01 
3.124060e+00 5.542377e+01 
3.159560e+00 5.434375e+01 
3.194710e+00 5.330642e+01 
3.229010e+00 5.232203e+01 
3.263320e+00 5.135335e+01 
3.297930e+00 5.040347e+01 
3.332830e+00 4.947300e+01 
3.368040e+00 4.855999e+01 
3.403300e+00 4.767056e+01 
3.438450e+00 4.680420e+01 
3.473060e+00 4.597279e+01 
3.508440e+00 4.514297e+01 
3.543110e+00 4.435041e+01 
3.577470e+00 4.358209e+01 
3.613040e+00 4.280741e+01 
3.648120e+00 4.206411e+01 
3.682910e+00 4.134392e+01 
3.718050e+00 4.063174e+01 
3.753320e+00 3.993585e+01 
3.787980e+00 3.927043e+01 
3.822290e+00 3.862602e+01 
3.857020e+00 3.798699e+01 
3.891920e+00 3.736062e+01 
3.926650e+00 3.675295e+01 
3.961970e+00 3.614882e+01 
3.997360e+00 3.555617e+01 
4.031670e+00 3.499514e+01 
4.066330e+00 3.444257e+01 
4.101420e+00 3.389572e+01 
4.136200e+00 3.336391e+01 
4.170810e+00 3.284644e+01 
4.206250e+00 3.232775e+01 
4.241580e+00 3.182209e+01 
4.276300e+00 3.133791e+01 
4.310970e+00 3.086585e+01 
4.346120e+00 3.039649e+01 
4.380600e+00 2.994414e+01 
4.414730e+00 2.950578e+01 
4.450350e+00 2.906061e+01 
4.485320e+00 2.863278e+01 
4.519810e+00 2.821787e+01 
4.555430e+00 2.779749e+01 
4.590870e+00 2.738895e+01 
4.625480e+00 2.700021e+01 
4.659910e+00 2.662119e+01 
4.695230e+00 2.623925e+01 
4.729960e+00 2.587105e+01 
4.764450e+00 2.551280e+01 
4.799530e+00 2.515596e+01 
4.834910e+00 2.480313e+01 
4.869700e+00 2.446317e+01 
4.904370e+00 2.413088e+01 
4.939450e+00 2.380127e+01 
4.973940e+00 2.348379e+01 
5.008430e+00 2.317222e+01 
5.043810e+00 2.285902e+01 
5.078840e+00 2.255498e+01 
5.113500e+00 2.225969e+01 
5.148890e+00 2.196403e+01 
5.184210e+00 2.167440e+01 
5.219060e+00 2.139387e+01 
5.253660e+00 2.112045e+01 
5.288570e+00 2.084949e+01 
5.323420e+00 2.058456e+01 
5.358440e+00 2.032386e+01 
5.393590e+00 2.006680e+01 
5.428310e+00 1.981699e+01 
5.462800e+00 1.957292e+01 
5.497640e+00 1.933060e+01 
5.532670e+00 1.909220e+01 
5.567280e+00 1.886100e+01 
5.602000e+00 1.863295e+01 
5.637270e+00 1.840534e+01 
5.672410e+00 1.818243e+01 
5.707020e+00 1.796653e+01 
5.742040e+00 1.775198e+01 
5.777430e+00 1.753883e+01 
5.812210e+00 1.733279e+01 
5.846820e+00 1.713148e+01 
5.881610e+00 1.693248e+01 
5.916510e+00 1.673606e+01 
5.951600e+00 1.654236e+01 
5.986560e+00 1.635273e+01 
6.021830e+00 1.616446e+01 
6.056490e+00 1.598234e+01 
6.091160e+00 1.580299e+01 
6.125830e+00 1.562642e+01 
6.161090e+00 1.544977e+01 
6.195760e+00 1.527908e+01 
6.230420e+00 1.511102e+01 
6.265690e+00 1.494266e+01 
6.300950e+00 1.477771e+01 
6.335620e+00 1.461798e+01 
6.370880e+00 1.445796e+01 
6.405550e+00 1.430295e+01 
6.440220e+00 1.415022e+01 
6.475480e+00 1.399719e+01 
6.510150e+00 1.384915e+01 
6.544810e+00 1.370381e+01 
6.580080e+00 1.355806e+01 
6.614750e+00 1.341687e+01 
6.649410e+00 1.327809e+01 
6.684080e+00 1.314132e+01 
6.719340e+00 1.300420e+01 
6.754010e+00 1.287130e+01 
6.788680e+00 1.274028e+01 
6.823940e+00 1.260891e+01 
6.859800e+00 1.247720e+01 
6.894470e+00 1.235212e+01 
6.929140e+00 1.222891e+01 
6.963800e+00 1.210743e+01 
6.999070e+00 1.198549e+01 
7.033730e+00 1.186715e+01 
7.068400e+00 1.175037e+01 
7.103660e+00 1.163321e+01 
7.138330e+00 1.151982e+01 
7.173600e+00 1.140655e+01 
7.208260e+00 1.129672e+01 
7.243530e+00 1.118644e+01 
7.277600e+00 1.108114e+01 
7.312860e+00 1.097343e+01 
7.348120e+00 1.086714e+01 
7.382790e+00 1.076401e+01 
7.417460e+00 1.066266e+01 
7.452720e+00 1.056116e+01 
7.487390e+00 1.046264e+01 
7.522650e+00 1.036372e+01 
7.557320e+00 1.026795e+01 
7.591990e+00 1.017347e+01 
7.627250e+00 1.007860e+01 
7.662510e+00 9.984930e+00 
7.697180e+00 9.893746e+00 
7.731850e+00 9.803599e+00 
7.766510e+00 9.714593e+00 
7.801180e+00 9.626658e+00 
7.836440e+00 9.538760e+00 
7.871110e+00 9.453661e+00 
7.906380e+00 9.368148e+00 
7.941040e+00 9.285138e+00 
7.976310e+00 9.201721e+00 
8.011570e+00 9.119380e+00 
8.046240e+00 9.039390e+00 
8.080900e+00 8.960375e+00 
8.115570e+00 8.882274e+00 
8.150830e+00 8.803798e+00 
8.185500e+00 8.727549e+00 
8.220770e+00 8.650897e+00 
8.255430e+00 8.576458e+00 
8.290100e+00 8.503167e+00 
8.324770e+00 8.430760e+00 
8.359430e+00 8.359208e+00 
8.394700e+00 8.287239e+00 
8.429960e+00 8.216137e+00 
8.464630e+00 8.147039e+00 
8.499890e+00 8.077569e+00 
8.534560e+00 8.010041e+00 
8.569200e+00 7.943331e+00 
