# Parameters:
# omega_b = 0.023295, omega_m = 0.146181, n_s = 1.050000, h = 79.566929, w = -1.000000, sigma_8 = 0.844882
# z = 0.300000
#
# k[1/Mpc] # P(k):
8.694000e-04 6.356576e+03 
2.077466e-03 1.469132e+04 
3.285532e-03 2.171805e+04 
4.493598e-03 2.746912e+04 
5.701664e-03 3.199892e+04 
6.909730e-03 3.544283e+04 
8.117797e-03 3.800197e+04 
9.325863e-03 3.977476e+04 
1.053393e-02 4.086658e+04 
1.174199e-02 4.137910e+04 
1.295006e-02 4.138201e+04 
1.415813e-02 4.097668e+04 
1.536619e-02 4.024895e+04 
1.657426e-02 3.927539e+04 
1.778233e-02 3.812817e+04 
1.899039e-02 3.679771e+04 
2.019846e-02 3.529148e+04 
2.140652e-02 3.374604e+04 
2.261459e-02 3.223093e+04 
2.382266e-02 3.077945e+04 
2.503072e-02 2.941520e+04 
2.623879e-02 2.814829e+04 
2.744685e-02 2.698470e+04 
2.865492e-02 2.592942e+04 
2.986299e-02 2.498041e+04 
3.100100e-02 2.418253e+04 
3.220400e-02 2.343400e+04 
3.288100e-02 2.305557e+04 
3.424300e-02 2.237489e+04 
3.555100e-02 2.180834e+04 
3.686000e-02 2.131594e+04 
3.795000e-02 2.095138e+04 
3.929100e-02 2.055071e+04 
4.039800e-02 2.024536e+04 
4.164000e-02 1.992001e+04 
4.294400e-02 1.958070e+04 
4.415000e-02 1.926592e+04 
4.542900e-02 1.891019e+04 
4.660900e-02 1.857012e+04 
4.782300e-02 1.818224e+04 
4.892900e-02 1.780900e+04 
5.031200e-02 1.730970e+04 
5.155900e-02 1.682721e+04 
5.238100e-02 1.649568e+04 
5.378200e-02 1.591512e+04 
5.513400e-02 1.533732e+04 
5.627600e-02 1.484289e+04 
5.735300e-02 1.438006e+04 
5.870100e-02 1.381271e+04 
5.988700e-02 1.332987e+04 
6.113500e-02 1.284340e+04 
6.225900e-02 1.242692e+04 
6.340100e-02 1.203154e+04 
6.480200e-02 1.158242e+04 
6.601100e-02 1.123031e+04 
6.725500e-02 1.090176e+04 
6.829100e-02 1.065714e+04 
6.958600e-02 1.038088e+04 
7.071100e-02 1.016925e+04 
7.192300e-02 9.965780e+03 
7.307400e-02 9.793659e+03 
7.412300e-02 9.652866e+03 
7.550400e-02 9.489713e+03 
7.663100e-02 9.368899e+03 
7.791200e-02 9.244978e+03 
7.912700e-02 9.134391e+03 
8.027600e-02 9.034443e+03 
8.138400e-02 8.939702e+03 
8.272200e-02 8.824496e+03 
8.406100e-02 8.706670e+03 
8.534100e-02 8.587100e+03 
8.653800e-02 8.469402e+03 
8.759800e-02 8.360983e+03 
8.900300e-02 8.209470e+03 
9.009000e-02 8.085118e+03 
9.113300e-02 7.960498e+03 
9.239600e-02 7.806580e+03 
9.358000e-02 7.657646e+03 
9.496100e-02 7.477841e+03 
9.608400e-02 7.330982e+03 
9.727500e-02 7.175963e+03 
9.852600e-02 7.011328e+03 
9.973800e-02 6.855406e+03 
1.009000e-01 6.709291e+03 
1.020900e-01 6.564439e+03 
1.034000e-01 6.411428e+03 
1.046000e-01 6.277256e+03 
1.057200e-01 6.159875e+03 
1.069100e-01 6.040840e+03 
1.082500e-01 5.918339e+03 
1.093900e-01 5.821890e+03 
1.105400e-01 5.729889e+03 
1.116900e-01 5.647856e+03 
1.129600e-01 5.562203e+03 
1.142000e-01 5.487192e+03 
1.153300e-01 5.422934e+03 
1.166400e-01 5.354036e+03 
1.177800e-01 5.297974e+03 
1.190000e-01 5.240551e+03 
1.201200e-01 5.189779e+03 
1.213400e-01 5.135916e+03 
1.227100e-01 5.075971e+03 
1.238900e-01 5.024994e+03 
1.250700e-01 4.972874e+03 
1.263200e-01 4.917623e+03 
1.275500e-01 4.861558e+03 
1.287500e-01 4.806576e+03 
1.299900e-01 4.748611e+03 
1.311300e-01 4.694676e+03 
1.323500e-01 4.635466e+03 
1.335900e-01 4.575182e+03 
1.347100e-01 4.519972e+03 
1.359800e-01 4.457793e+03 
1.372100e-01 4.397056e+03 
1.384300e-01 4.337596e+03 
1.395700e-01 4.281897e+03 
1.407700e-01 4.224420e+03 
1.420300e-01 4.164609e+03 
1.432800e-01 4.106588e+03 
1.444500e-01 4.053439e+03 
1.456300e-01 4.000932e+03 
1.468900e-01 3.947064e+03 
1.480500e-01 3.898796e+03 
1.491700e-01 3.853744e+03 
1.503800e-01 3.806854e+03 
1.516400e-01 3.759428e+03 
1.528200e-01 3.717675e+03 
1.540200e-01 3.676028e+03 
1.551900e-01 3.637734e+03 
1.564300e-01 3.598294e+03 
1.576600e-01 3.560813e+03 
1.588700e-01 3.525703e+03 
1.600900e-01 3.491012e+03 
1.612700e-01 3.459003e+03 
1.625400e-01 3.425188e+03 
1.637600e-01 3.393678e+03 
1.649500e-01 3.363708e+03 
1.662200e-01 3.332252e+03 
1.674000e-01 3.303274e+03 
1.685000e-01 3.276708e+03 
1.697500e-01 3.246603e+03 
1.710300e-01 3.215907e+03 
1.722200e-01 3.187870e+03 
1.734400e-01 3.158526e+03 
1.746400e-01 3.130108e+03 
1.758700e-01 3.101168e+03 
1.770900e-01 3.072328e+03 
1.782700e-01 3.044895e+03 
1.794600e-01 3.017081e+03 
1.807000e-01 2.988175e+03 
1.819100e-01 2.960437e+03 
1.830100e-01 2.935087e+03 
1.842200e-01 2.907545e+03 
1.855000e-01 2.878894e+03 
1.867000e-01 2.852492e+03 
1.879200e-01 2.826076e+03 
1.890900e-01 2.801164e+03 
1.902800e-01 2.776344e+03 
1.915200e-01 2.750886e+03 
1.926900e-01 2.727324e+03 
1.939000e-01 2.703615e+03 
1.951700e-01 2.679120e+03 
1.963100e-01 2.657577e+03 
1.975100e-01 2.635533e+03 
1.987800e-01 2.612560e+03 
2.000100e-01 2.590781e+03 
2.012500e-01 2.569457e+03 
2.023400e-01 2.550977e+03 
2.036100e-01 2.529807e+03 
2.048900e-01 2.509007e+03 
2.060400e-01 2.490590e+03 
2.072200e-01 2.471970e+03 
2.084200e-01 2.453508e+03 
2.096900e-01 2.434252e+03 
2.109200e-01 2.415872e+03 
2.121100e-01 2.398400e+03 
2.132700e-01 2.381602e+03 
2.145200e-01 2.363749e+03 
2.157200e-01 2.346914e+03 
2.168800e-01 2.330887e+03 
2.180700e-01 2.314662e+03 
2.193400e-01 2.297625e+03 
2.206000e-01 2.281032e+03 
2.217500e-01 2.266090e+03 
2.229500e-01 2.250699e+03 
2.241400e-01 2.235793e+03 
2.253500e-01 2.220839e+03 
2.264900e-01 2.206928e+03 
2.277100e-01 2.192368e+03 
2.289900e-01 2.177449e+03 
2.301500e-01 2.164104e+03 
2.313600e-01 2.150360e+03 
2.325600e-01 2.137117e+03 
2.337700e-01 2.123933e+03 
2.350000e-01 2.110700e+03 
2.362000e-01 2.098081e+03 
2.374100e-01 2.085667e+03 
2.386500e-01 2.073104e+03 
2.399100e-01 2.060502e+03 
2.410400e-01 2.049430e+03 
2.422500e-01 2.037727e+03 
2.435000e-01 2.025786e+03 
2.447300e-01 2.014224e+03 
2.458700e-01 2.003796e+03 
2.470600e-01 1.993037e+03 
2.483300e-01 1.981695e+03 
2.495600e-01 1.970856e+03 
2.507600e-01 1.960421e+03 
2.519600e-01 1.950108e+03 
2.532200e-01 1.939409e+03 
2.543700e-01 1.929716e+03 
2.555500e-01 1.919853e+03 
2.568000e-01 1.909527e+03 
2.580100e-01 1.899649e+03 
2.592400e-01 1.889640e+03 
2.604100e-01 1.880191e+03 
2.616100e-01 1.870608e+03 
2.628400e-01 1.860897e+03 
2.640600e-01 1.851216e+03 
2.652200e-01 1.842051e+03 
2.664300e-01 1.832595e+03 
2.676500e-01 1.823166e+03 
2.688400e-01 1.813953e+03 
2.700700e-01 1.804461e+03 
2.712400e-01 1.795529e+03 
2.724800e-01 1.786166e+03 
2.736700e-01 1.777225e+03 
2.748800e-01 1.768176e+03 
2.761000e-01 1.759151e+03 
2.773200e-01 1.750223e+03 
2.785400e-01 1.741331e+03 
2.797000e-01 1.732841e+03 
2.808900e-01 1.724220e+03 
2.821400e-01 1.715261e+03 
2.833900e-01 1.706397e+03 
2.845500e-01 1.698239e+03 
2.857800e-01 1.689677e+03 
2.870300e-01 1.681068e+03 
2.882100e-01 1.673025e+03 
2.893900e-01 1.664988e+03 
2.906300e-01 1.656588e+03 
2.918900e-01 1.648142e+03 
2.930500e-01 1.640444e+03 
2.942500e-01 1.632564e+03 
2.954200e-01 1.624969e+03 
2.966500e-01 1.617063e+03 
2.978900e-01 1.609174e+03 
2.990400e-01 1.601929e+03 
3.002700e-01 1.594235e+03 
3.015100e-01 1.586546e+03 
3.026800e-01 1.579362e+03 
3.038500e-01 1.572246e+03 
3.050300e-01 1.565135e+03 
3.062600e-01 1.557716e+03 
3.075000e-01 1.550309e+03 
3.087000e-01 1.543211e+03 
3.099100e-01 1.536122e+03 
3.111200e-01 1.529130e+03 
3.123100e-01 1.522366e+03 
3.135300e-01 1.515498e+03 
3.147300e-01 1.508806e+03 
3.159900e-01 1.501846e+03 
3.171800e-01 1.495317e+03 
3.183700e-01 1.488838e+03 
3.196300e-01 1.482042e+03 
3.208400e-01 1.475577e+03 
3.220300e-01 1.469277e+03 
3.232000e-01 1.463118e+03 
3.244300e-01 1.456695e+03 
3.256700e-01 1.450280e+03 
3.269200e-01 1.443874e+03 
3.280800e-01 1.437982e+03 
3.292500e-01 1.432140e+03 
3.304800e-01 1.426069e+03 
3.317100e-01 1.420053e+03 
3.328900e-01 1.414333e+03 
3.340700e-01 1.408662e+03 
3.353600e-01 1.402496e+03 
3.365300e-01 1.396944e+03 
3.377100e-01 1.391393e+03 
3.389200e-01 1.385750e+03 
3.401600e-01 1.380019e+03 
3.413700e-01 1.374484e+03 
3.425300e-01 1.369229e+03 
3.437700e-01 1.363659e+03 
3.449800e-01 1.358272e+03 
3.461800e-01 1.352975e+03 
3.473600e-01 1.347824e+03 
3.485800e-01 1.342579e+03 
3.498100e-01 1.337336e+03 
3.510200e-01 1.332223e+03 
3.522000e-01 1.327278e+03 
3.533900e-01 1.322332e+03 
3.546400e-01 1.317150e+03 
3.558400e-01 1.312216e+03 
3.570600e-01 1.307242e+03 
3.582700e-01 1.302349e+03 
3.595000e-01 1.297417e+03 
3.607100e-01 1.292614e+03 
3.618900e-01 1.287975e+03 
3.631200e-01 1.283178e+03 
3.643200e-01 1.278537e+03 
3.655500e-01 1.273819e+03 
3.667300e-01 1.269329e+03 
3.679500e-01 1.264772e+03 
3.691900e-01 1.260177e+03 
3.703600e-01 1.255877e+03 
3.715700e-01 1.251464e+03 
3.727700e-01 1.247123e+03 
3.739900e-01 1.242737e+03 
3.752000e-01 1.238405e+03 
3.763900e-01 1.234178e+03 
3.775800e-01 1.229984e+03 
3.788200e-01 1.225649e+03 
3.800300e-01 1.221452e+03 
3.812100e-01 1.217385e+03 
3.824200e-01 1.213245e+03 
3.836100e-01 1.209204e+03 
3.848600e-01 1.204992e+03 
3.860400e-01 1.201048e+03 
3.872400e-01 1.197066e+03 
3.884600e-01 1.193045e+03 
3.896500e-01 1.189150e+03 
3.908700e-01 1.185187e+03 
3.920600e-01 1.181351e+03 
3.933100e-01 1.177353e+03 
3.945300e-01 1.173480e+03 
3.957200e-01 1.169734e+03 
3.969300e-01 1.165954e+03 
3.981700e-01 1.162109e+03 
3.993500e-01 1.158478e+03 
4.094840e-01 1.128351e+03 
4.272360e-01 1.079508e+03 
4.454600e-01 1.033967e+03 
4.630560e-01 9.936022e+02 
4.804610e-01 9.568130e+02 
4.980690e-01 9.224225e+02 
5.159230e-01 8.900207e+02 
5.317440e-01 8.633502e+02 
5.489640e-01 8.360628e+02 
5.671990e-01 8.091978e+02 
5.838690e-01 7.861558e+02 
6.018840e-01 7.628301e+02 
6.202330e-01 7.405467e+02 
6.379250e-01 7.202723e+02 
6.545410e-01 7.023576e+02 
6.714560e-01 6.850448e+02 
6.892080e-01 6.677819e+02 
7.066010e-01 6.517182e+02 
7.240540e-01 6.364036e+02 
7.420450e-01 6.213120e+02 
7.593780e-01 6.074249e+02 
7.764720e-01 5.943389e+02 
7.942840e-01 5.812615e+02 
8.116170e-01 5.689813e+02 
8.288310e-01 5.572068e+02 
8.462240e-01 5.457589e+02 
8.631980e-01 5.350181e+02 
8.810700e-01 5.241006e+02 
8.989410e-01 5.135114e+02 
9.166330e-01 5.033750e+02 
9.345640e-01 4.933984e+02 
9.515980e-01 4.842367e+02 
9.688720e-01 4.752242e+02 
9.865640e-01 4.662306e+02 
1.031870e+00 4.443221e+02 
1.063490e+00 4.298760e+02 
1.097920e+00 4.149693e+02 
1.134370e+00 3.999853e+02 
1.167730e+00 3.869244e+02 
1.203830e+00 3.734332e+02 
1.240470e+00 3.604674e+02 
1.275790e+00 3.484842e+02 
1.309140e+00 3.377161e+02 
1.342970e+00 3.272344e+02 
1.378420e+00 3.167637e+02 
1.413200e+00 3.069154e+02 
1.448110e+00 2.974510e+02 
1.484090e+00 2.881261e+02 
1.518820e+00 2.795451e+02 
1.552880e+00 2.714050e+02 
1.588630e+00 2.632513e+02 
1.623230e+00 2.556751e+02 
1.657720e+00 2.484366e+02 
1.692450e+00 2.414567e+02 
1.726400e+00 2.348321e+02 
1.762200e+00 2.281523e+02 
1.797880e+00 2.217572e+02 
1.833270e+00 2.156719e+02 
1.869070e+00 2.097548e+02 
1.903200e+00 2.043067e+02 
1.937740e+00 1.989993e+02 
1.973190e+00 1.937679e+02 
2.007440e+00 1.888910e+02 
2.042160e+00 1.841175e+02 
2.077900e+00 1.793751e+02 
2.112390e+00 1.749661e+02 
2.146220e+00 1.707952e+02 
2.181600e+00 1.665659e+02 
2.216930e+00 1.624989e+02 
2.250760e+00 1.587371e+02 
2.286500e+00 1.548919e+02 
2.321770e+00 1.512220e+02 
2.355950e+00 1.477773e+02 
2.391280e+00 1.443432e+02 
2.426240e+00 1.410587e+02 
2.460670e+00 1.379239e+02 
2.495640e+00 1.348340e+02 
2.531080e+00 1.318016e+02 
2.566220e+00 1.288856e+02 
2.600830e+00 1.261002e+02 
2.635080e+00 1.234257e+02 
2.670340e+00 1.207626e+02 
2.705970e+00 1.181555e+02 
2.740040e+00 1.157366e+02 
2.774520e+00 1.133504e+02 
2.809730e+00 1.109945e+02 
2.844390e+00 1.087466e+02 
2.879960e+00 1.065021e+02 
2.914860e+00 1.043602e+02 
2.949410e+00 1.023000e+02 
2.984440e+00 1.002687e+02 
3.019760e+00 9.827293e+01 
3.054730e+00 9.635079e+01 
3.089030e+00 9.452472e+01 
3.124060e+00 9.270983e+01 
3.159560e+00 9.091870e+01 
3.194710e+00 8.919923e+01 
3.229010e+00 8.756770e+01 
3.263320e+00 8.596266e+01 
3.297930e+00 8.438901e+01 
3.332830e+00 8.284823e+01 
3.368040e+00 8.133653e+01 
3.403300e+00 7.986397e+01 
3.438450e+00 7.843025e+01 
3.473060e+00 7.705438e+01 
3.508440e+00 7.568187e+01 
3.543110e+00 7.437091e+01 
3.577470e+00 7.310043e+01 
3.613040e+00 7.181944e+01 
3.648120e+00 7.059074e+01 
3.682910e+00 6.940020e+01 
3.718050e+00 6.822301e+01 
3.753320e+00 6.707291e+01 
3.787980e+00 6.597350e+01 
3.822290e+00 6.490877e+01 
3.857020e+00 6.385297e+01 
3.891920e+00 6.281811e+01 
3.926650e+00 6.181435e+01 
3.961970e+00 6.081639e+01 
3.997360e+00 5.983749e+01 
4.031670e+00 5.891073e+01 
4.066330e+00 5.799814e+01 
4.101420e+00 5.709486e+01 
4.136200e+00 5.621669e+01 
4.170810e+00 5.536205e+01 
4.206250e+00 5.450530e+01 
4.241580e+00 5.366992e+01 
4.276300e+00 5.287020e+01 
4.310970e+00 5.209055e+01 
4.346120e+00 5.131518e+01 
4.380600e+00 5.056775e+01 
4.414730e+00 4.984333e+01 
4.450350e+00 4.910787e+01 
4.485320e+00 4.840093e+01 
4.519810e+00 4.771521e+01 
4.555430e+00 4.702032e+01 
4.590870e+00 4.634492e+01 
4.625480e+00 4.570219e+01 
4.659910e+00 4.507541e+01 
4.695230e+00 4.444378e+01 
4.729960e+00 4.383475e+01 
4.764450e+00 4.324203e+01 
4.799530e+00 4.265148e+01 
4.834910e+00 4.206746e+01 
4.869700e+00 4.150459e+01 
4.904370e+00 4.095433e+01 
4.939450e+00 4.040840e+01 
4.973940e+00 3.988255e+01 
5.008430e+00 3.936637e+01 
5.043810e+00 3.884723e+01 
5.078840e+00 3.834308e+01 
5.113500e+00 3.785335e+01 
5.148890e+00 3.736286e+01 
5.184210e+00 3.688230e+01 
5.219060e+00 3.641672e+01 
5.253660e+00 3.596280e+01 
5.288570e+00 3.551288e+01 
5.323420e+00 3.507277e+01 
5.358440e+00 3.463950e+01 
5.393590e+00 3.421220e+01 
5.428310e+00 3.379672e+01 
5.462800e+00 3.339065e+01 
5.497640e+00 3.298741e+01 
5.532670e+00 3.259048e+01 
5.567280e+00 3.220542e+01 
5.602000e+00 3.182557e+01 
5.637270e+00 3.144617e+01 
5.672410e+00 3.107448e+01 
5.707020e+00 3.071442e+01 
5.742040e+00 3.035635e+01 
5.777430e+00 3.000050e+01 
5.812210e+00 2.965648e+01 
5.846820e+00 2.932006e+01 
5.881610e+00 2.898739e+01 
5.916510e+00 2.865897e+01 
5.951600e+00 2.833486e+01 
5.986560e+00 2.801743e+01 
6.021830e+00 2.770224e+01 
6.056490e+00 2.739714e+01 
6.091160e+00 2.709651e+01 
6.125830e+00 2.680047e+01 
6.161090e+00 2.650417e+01 
6.195760e+00 2.621758e+01 
6.230420e+00 2.593540e+01 
6.265690e+00 2.565262e+01 
6.300950e+00 2.537523e+01 
6.335620e+00 2.510656e+01 
6.370880e+00 2.483738e+01 
6.405550e+00 2.457637e+01 
6.440220e+00 2.431907e+01 
6.475480e+00 2.406122e+01 
6.510150e+00 2.381167e+01 
6.544810e+00 2.356639e+01 
6.580080e+00 2.332040e+01 
6.614750e+00 2.308206e+01 
6.649410e+00 2.284754e+01 
6.684080e+00 2.261632e+01 
6.719340e+00 2.238450e+01 
6.754010e+00 2.215966e+01 
6.788680e+00 2.193772e+01 
6.823940e+00 2.171515e+01 
6.859800e+00 2.149199e+01 
6.894470e+00 2.127980e+01 
6.929140e+00 2.107071e+01 
6.963800e+00 2.086451e+01 
6.999070e+00 2.065750e+01 
7.033730e+00 2.045623e+01 
7.068400e+00 2.025761e+01 
7.103660e+00 2.005833e+01 
7.138330e+00 1.986534e+01 
7.173600e+00 1.967228e+01 
7.208260e+00 1.948509e+01 
7.243530e+00 1.929711e+01 
7.277600e+00 1.911744e+01 
7.312860e+00 1.893350e+01 
7.348120e+00 1.875198e+01 
7.382790e+00 1.857583e+01 
7.417460e+00 1.840249e+01 
7.452720e+00 1.822877e+01 
7.487390e+00 1.806015e+01 
7.522650e+00 1.789085e+01 
7.557320e+00 1.772668e+01 
7.591990e+00 1.756464e+01 
7.627250e+00 1.740192e+01 
7.662510e+00 1.724126e+01 
7.697180e+00 1.708461e+01 
7.731850e+00 1.692965e+01 
7.766510e+00 1.677664e+01 
7.801180e+00 1.662547e+01 
7.836440e+00 1.647418e+01 
7.871110e+00 1.632759e+01 
7.906380e+00 1.618028e+01 
7.941040e+00 1.603729e+01 
7.976310e+00 1.589345e+01 
8.011570e+00 1.575131e+01 
8.046240e+00 1.561323e+01 
8.080900e+00 1.547683e+01 
8.115570e+00 1.534194e+01 
8.150830e+00 1.520616e+01 
8.185500e+00 1.507424e+01 
8.220770e+00 1.494162e+01 
8.255430e+00 1.481283e+01 
8.290100e+00 1.468578e+01 
8.324770e+00 1.456024e+01 
8.359430e+00 1.443617e+01 
8.394700e+00 1.431139e+01 
8.429960e+00 1.418800e+01 
8.464630e+00 1.406796e+01 
8.499890e+00 1.394728e+01 
8.534560e+00 1.382998e+01 
8.569200e+00 1.371410e+01 
