# Parameters:
# omega_b = 0.022209, omega_m = 0.120000, n_s = 1.045276, h = 67.992126, w = -1.000000, sigma_8 = 0.822835
# z = 0.300000
#
# k[1/Mpc] # P(k):
8.694000e-04 1.336411e+04 
2.077466e-03 3.002551e+04 
3.285532e-03 4.331490e+04 
4.493598e-03 5.350456e+04 
5.701664e-03 6.096764e+04 
6.909730e-03 6.612091e+04 
8.117797e-03 6.946234e+04 
9.325863e-03 7.125104e+04 
1.053393e-02 7.175273e+04 
1.174199e-02 7.121645e+04 
1.295006e-02 6.980549e+04 
1.415813e-02 6.773952e+04 
1.536619e-02 6.520750e+04 
1.657426e-02 6.233223e+04 
1.778233e-02 5.922231e+04 
1.899039e-02 5.612318e+04 
2.019846e-02 5.315008e+04 
2.140652e-02 5.030244e+04 
2.261459e-02 4.758845e+04 
2.382266e-02 4.505331e+04 
2.503072e-02 4.272730e+04 
2.623879e-02 4.061533e+04 
2.744685e-02 3.872032e+04 
2.865492e-02 3.703354e+04 
2.986299e-02 3.554059e+04 
3.100100e-02 3.430277e+04 
3.220400e-02 3.315164e+04 
3.288100e-02 3.257138e+04 
3.424300e-02 3.152512e+04 
3.555100e-02 3.064474e+04 
3.686000e-02 2.986334e+04 
3.795000e-02 2.926944e+04 
3.929100e-02 2.859042e+04 
4.039800e-02 2.805418e+04 
4.164000e-02 2.746737e+04 
4.294400e-02 2.684021e+04 
4.415000e-02 2.625615e+04 
4.542900e-02 2.560401e+04 
4.660900e-02 2.499087e+04 
4.782300e-02 2.431697e+04 
4.892900e-02 2.368770e+04 
5.031200e-02 2.287628e+04 
5.155900e-02 2.212375e+04 
5.238100e-02 2.162180e+04 
5.378200e-02 2.076685e+04 
5.513400e-02 1.994511e+04 
5.627600e-02 1.926125e+04 
5.735300e-02 1.863396e+04 
5.870100e-02 1.787973e+04 
5.988700e-02 1.724794e+04 
6.113500e-02 1.661948e+04 
6.225900e-02 1.608701e+04 
6.340100e-02 1.558509e+04 
6.480200e-02 1.501748e+04 
6.601100e-02 1.457385e+04 
6.725500e-02 1.415987e+04 
6.829100e-02 1.385094e+04 
6.958600e-02 1.350095e+04 
7.071100e-02 1.323119e+04 
7.192300e-02 1.296998e+04 
7.307400e-02 1.274704e+04 
7.412300e-02 1.256286e+04 
7.550400e-02 1.234624e+04 
7.663100e-02 1.218361e+04 
7.791200e-02 1.201311e+04 
7.912700e-02 1.185742e+04 
8.027600e-02 1.171383e+04 
8.138400e-02 1.157536e+04 
8.272200e-02 1.140401e+04 
8.406100e-02 1.122585e+04 
8.534100e-02 1.104258e+04 
8.653800e-02 1.086067e+04 
8.759800e-02 1.069286e+04 
8.900300e-02 1.045877e+04 
9.009000e-02 1.026781e+04 
9.113300e-02 1.007824e+04 
9.239600e-02 9.846340e+03 
9.358000e-02 9.625381e+03 
9.496100e-02 9.365175e+03 
9.608400e-02 9.156979e+03 
9.727500e-02 8.940749e+03 
9.852600e-02 8.720527e+03 
9.973800e-02 8.516338e+03 
1.009000e-01 8.328556e+03 
1.020900e-01 8.150838e+03 
1.034000e-01 7.966570e+03 
1.046000e-01 7.808568e+03 
1.057200e-01 7.675212e+03 
1.069100e-01 7.541392e+03 
1.082500e-01 7.407361e+03 
1.093900e-01 7.303019e+03 
1.105400e-01 7.204203e+03 
1.116900e-01 7.116363e+03 
1.129600e-01 7.024377e+03 
1.142000e-01 6.942300e+03 
1.153300e-01 6.870672e+03 
1.166400e-01 6.791756e+03 
1.177800e-01 6.724493e+03 
1.190000e-01 6.654113e+03 
1.201200e-01 6.587650e+03 
1.213400e-01 6.516362e+03 
1.227100e-01 6.431528e+03 
1.238900e-01 6.358521e+03 
1.250700e-01 6.281304e+03 
1.263200e-01 6.198978e+03 
1.275500e-01 6.114446e+03 
1.287500e-01 6.031680e+03 
1.299900e-01 5.944640e+03 
1.311300e-01 5.864601e+03 
1.323500e-01 5.778111e+03 
1.335900e-01 5.691523e+03 
1.347100e-01 5.614094e+03 
1.359800e-01 5.528322e+03 
1.372100e-01 5.447303e+03 
1.384300e-01 5.369195e+03 
1.395700e-01 5.298830e+03 
1.407700e-01 5.226567e+03 
1.420300e-01 5.154862e+03 
1.432800e-01 5.085292e+03 
1.444500e-01 5.024279e+03 
1.456300e-01 4.963982e+03 
1.468900e-01 4.903286e+03 
1.480500e-01 4.849239e+03 
1.491700e-01 4.798929e+03 
1.503800e-01 4.746751e+03 
1.516400e-01 4.693827e+03 
1.528200e-01 4.646655e+03 
1.540200e-01 4.599592e+03 
1.551900e-01 4.555092e+03 
1.564300e-01 4.508947e+03 
1.576600e-01 4.464267e+03 
1.588700e-01 4.421398e+03 
1.600900e-01 4.378944e+03 
1.612700e-01 4.337994e+03 
1.625400e-01 4.294735e+03 
1.637600e-01 4.253559e+03 
1.649500e-01 4.213883e+03 
1.662200e-01 4.172132e+03 
1.674000e-01 4.133051e+03 
1.685000e-01 4.097224e+03 
1.697500e-01 4.056620e+03 
1.710300e-01 4.015213e+03 
1.722200e-01 3.977397e+03 
1.734400e-01 3.938330e+03 
1.746400e-01 3.900521e+03 
1.758700e-01 3.862291e+03 
1.770900e-01 3.824744e+03 
1.782700e-01 3.789032e+03 
1.794600e-01 3.753372e+03 
1.807000e-01 3.716675e+03 
1.819100e-01 3.681463e+03 
1.830100e-01 3.649955e+03 
1.842200e-01 3.615833e+03 
1.855000e-01 3.580366e+03 
1.867000e-01 3.548318e+03 
1.879200e-01 3.516253e+03 
1.890900e-01 3.486081e+03 
1.902800e-01 3.456378e+03 
1.915200e-01 3.425910e+03 
1.926900e-01 3.397764e+03 
1.939000e-01 3.369612e+03 
1.951700e-01 3.340526e+03 
1.963100e-01 3.314952e+03 
1.975100e-01 3.288804e+03 
1.987800e-01 3.261552e+03 
2.000100e-01 3.235675e+03 
2.012500e-01 3.210241e+03 
2.023400e-01 3.188198e+03 
2.036100e-01 3.162889e+03 
2.048900e-01 3.137803e+03 
2.060400e-01 3.115590e+03 
2.072200e-01 3.093106e+03 
2.084200e-01 3.070484e+03 
2.096900e-01 3.046887e+03 
2.109200e-01 3.024365e+03 
2.121100e-01 3.002554e+03 
2.132700e-01 2.981564e+03 
2.145200e-01 2.959255e+03 
2.157200e-01 2.937875e+03 
2.168800e-01 2.917361e+03 
2.180700e-01 2.896595e+03 
2.193400e-01 2.874571e+03 
2.206000e-01 2.852716e+03 
2.217500e-01 2.833036e+03 
2.229500e-01 2.812766e+03 
2.241400e-01 2.792468e+03 
2.253500e-01 2.772088e+03 
2.264900e-01 2.753132e+03 
2.277100e-01 2.732922e+03 
2.289900e-01 2.711802e+03 
2.301500e-01 2.692911e+03 
2.313600e-01 2.673451e+03 
2.325600e-01 2.653953e+03 
2.337700e-01 2.634543e+03 
2.350000e-01 2.615066e+03 
2.362000e-01 2.596194e+03 
2.374100e-01 2.577275e+03 
2.386500e-01 2.558132e+03 
2.399100e-01 2.538932e+03 
2.410400e-01 2.521729e+03 
2.422500e-01 2.503504e+03 
2.435000e-01 2.484912e+03 
2.447300e-01 2.466878e+03 
2.458700e-01 2.450486e+03 
2.470600e-01 2.433575e+03 
2.483300e-01 2.415749e+03 
2.495600e-01 2.398789e+03 
2.507600e-01 2.382566e+03 
2.519600e-01 2.366533e+03 
2.532200e-01 2.349902e+03 
2.543700e-01 2.335089e+03 
2.555500e-01 2.320190e+03 
2.568000e-01 2.304591e+03 
2.580100e-01 2.289669e+03 
2.592400e-01 2.274961e+03 
2.604100e-01 2.261253e+03 
2.616100e-01 2.247351e+03 
2.628400e-01 2.233263e+03 
2.640600e-01 2.219681e+03 
2.652200e-01 2.207001e+03 
2.664300e-01 2.193919e+03 
2.676500e-01 2.180876e+03 
2.688400e-01 2.168477e+03 
2.700700e-01 2.155917e+03 
2.712400e-01 2.144099e+03 
2.724800e-01 2.131709e+03 
2.736700e-01 2.120095e+03 
2.748800e-01 2.108564e+03 
2.761000e-01 2.097062e+03 
2.773200e-01 2.085685e+03 
2.785400e-01 2.074453e+03 
2.797000e-01 2.063936e+03 
2.808900e-01 2.053258e+03 
2.821400e-01 2.042159e+03 
2.833900e-01 2.031188e+03 
2.845500e-01 2.021267e+03 
2.857800e-01 2.010856e+03 
2.870300e-01 2.000387e+03 
2.882100e-01 1.990606e+03 
2.893900e-01 1.980904e+03 
2.906300e-01 1.970803e+03 
2.918900e-01 1.960646e+03 
2.930500e-01 1.951389e+03 
2.942500e-01 1.941926e+03 
2.954200e-01 1.932849e+03 
2.966500e-01 1.923400e+03 
2.978900e-01 1.913971e+03 
2.990400e-01 1.905313e+03 
3.002700e-01 1.896136e+03 
3.015100e-01 1.886975e+03 
3.026800e-01 1.878415e+03 
3.038500e-01 1.869936e+03 
3.050300e-01 1.861464e+03 
3.062600e-01 1.852640e+03 
3.075000e-01 1.843831e+03 
3.087000e-01 1.835389e+03 
3.099100e-01 1.826957e+03 
3.111200e-01 1.818645e+03 
3.123100e-01 1.810613e+03 
3.135300e-01 1.802456e+03 
3.147300e-01 1.794509e+03 
3.159900e-01 1.786244e+03 
3.171800e-01 1.778497e+03 
3.183700e-01 1.770811e+03 
3.196300e-01 1.762750e+03 
3.208400e-01 1.755082e+03 
3.220300e-01 1.747610e+03 
3.232000e-01 1.740314e+03 
3.244300e-01 1.732707e+03 
3.256700e-01 1.725110e+03 
3.269200e-01 1.717523e+03 
3.280800e-01 1.710546e+03 
3.292500e-01 1.703635e+03 
3.304800e-01 1.696455e+03 
3.317100e-01 1.689341e+03 
3.328900e-01 1.682576e+03 
3.340700e-01 1.675871e+03 
3.353600e-01 1.668586e+03 
3.365300e-01 1.662031e+03 
3.377100e-01 1.655476e+03 
3.389200e-01 1.648813e+03 
3.401600e-01 1.642045e+03 
3.413700e-01 1.635514e+03 
3.425300e-01 1.629317e+03 
3.437700e-01 1.622749e+03 
3.449800e-01 1.616396e+03 
3.461800e-01 1.610150e+03 
3.473600e-01 1.604076e+03 
3.485800e-01 1.597889e+03 
3.498100e-01 1.591705e+03 
3.510200e-01 1.585674e+03 
3.522000e-01 1.579842e+03 
3.533900e-01 1.574009e+03 
3.546400e-01 1.567905e+03 
3.558400e-01 1.562094e+03 
3.570600e-01 1.556235e+03 
3.582700e-01 1.550472e+03 
3.595000e-01 1.544664e+03 
3.607100e-01 1.539006e+03 
3.618900e-01 1.533541e+03 
3.631200e-01 1.527890e+03 
3.643200e-01 1.522423e+03 
3.655500e-01 1.516864e+03 
3.667300e-01 1.511575e+03 
3.679500e-01 1.506199e+03 
3.691900e-01 1.500780e+03 
3.703600e-01 1.495707e+03 
3.715700e-01 1.490503e+03 
3.727700e-01 1.485383e+03 
3.739900e-01 1.480209e+03 
3.752000e-01 1.475102e+03 
3.763900e-01 1.470119e+03 
3.775800e-01 1.465175e+03 
3.788200e-01 1.460064e+03 
3.800300e-01 1.455116e+03 
3.812100e-01 1.450317e+03 
3.824200e-01 1.445427e+03 
3.836100e-01 1.440654e+03 
3.848600e-01 1.435680e+03 
3.860400e-01 1.431021e+03 
3.872400e-01 1.426319e+03 
3.884600e-01 1.421560e+03 
3.896500e-01 1.416948e+03 
3.908700e-01 1.412255e+03 
3.920600e-01 1.407713e+03 
3.933100e-01 1.402979e+03 
3.945300e-01 1.398393e+03 
3.957200e-01 1.393957e+03 
3.969300e-01 1.389479e+03 
3.981700e-01 1.384926e+03 
3.993500e-01 1.380626e+03 
4.094840e-01 1.344876e+03 
4.272360e-01 1.286709e+03 
4.454600e-01 1.232262e+03 
4.630560e-01 1.183850e+03 
4.804610e-01 1.139609e+03 
4.980690e-01 1.098191e+03 
5.159230e-01 1.059118e+03 
5.317440e-01 1.026926e+03 
5.489640e-01 9.939484e+02 
5.671990e-01 9.614464e+02 
5.838690e-01 9.335313e+02 
6.018840e-01 9.052301e+02 
6.202330e-01 8.781285e+02 
6.379250e-01 8.534342e+02 
6.545410e-01 8.315451e+02 
6.714560e-01 8.103513e+02 
6.892080e-01 7.891554e+02 
7.066010e-01 7.693707e+02 
7.240540e-01 7.504728e+02 
7.420450e-01 7.317804e+02 
7.593780e-01 7.145428e+02 
7.764720e-01 6.982647e+02 
7.942840e-01 6.819596e+02 
8.116170e-01 6.666110e+02 
8.288310e-01 6.518774e+02 
8.462240e-01 6.375343e+02 
8.631980e-01 6.240497e+02 
8.810700e-01 6.103264e+02 
8.989410e-01 5.970143e+02 
9.166330e-01 5.842636e+02 
9.345640e-01 5.717161e+02 
9.515980e-01 5.601906e+02 
9.688720e-01 5.488506e+02 
9.865640e-01 5.375410e+02 
1.031870e+00 5.100300e+02 
1.063490e+00 4.919324e+02 
1.097920e+00 4.732832e+02 
1.134370e+00 4.546046e+02 
1.167730e+00 4.383720e+02 
1.203830e+00 4.216654e+02 
1.240470e+00 4.056640e+02 
1.275790e+00 3.909374e+02 
1.309140e+00 3.777486e+02 
1.342970e+00 3.649652e+02 
1.378420e+00 3.522378e+02 
1.413200e+00 3.403159e+02 
1.448110e+00 3.289025e+02 
1.484090e+00 3.177002e+02 
1.518820e+00 3.074261e+02 
1.552880e+00 2.977250e+02 
1.588630e+00 2.880387e+02 
1.623230e+00 2.790686e+02 
1.657720e+00 2.705255e+02 
1.692450e+00 2.623160e+02 
1.726400e+00 2.545562e+02 
1.762200e+00 2.467548e+02 
1.797880e+00 2.393118e+02 
1.833270e+00 2.322474e+02 
1.869070e+00 2.254007e+02 
1.903200e+00 2.191173e+02 
1.937740e+00 2.130122e+02 
1.973190e+00 2.070122e+02 
2.007440e+00 2.014343e+02 
2.042160e+00 1.959891e+02 
2.077900e+00 1.905945e+02 
2.112390e+00 1.855916e+02 
2.146220e+00 1.808716e+02 
2.181600e+00 1.760973e+02 
2.216930e+00 1.715175e+02 
2.250760e+00 1.672910e+02 
2.286500e+00 1.629805e+02 
2.321770e+00 1.588761e+02 
2.355950e+00 1.550316e+02 
2.391280e+00 1.512085e+02 
2.426240e+00 1.475594e+02 
2.460670e+00 1.440834e+02 
2.495640e+00 1.406640e+02 
2.531080e+00 1.373157e+02 
2.566220e+00 1.341023e+02 
2.600830e+00 1.310385e+02 
2.635080e+00 1.281019e+02 
2.670340e+00 1.251842e+02 
2.705970e+00 1.223327e+02 
2.740040e+00 1.196910e+02 
2.774520e+00 1.170903e+02 
2.809730e+00 1.145266e+02 
2.844390e+00 1.120838e+02 
2.879960e+00 1.096492e+02 
2.914860e+00 1.073303e+02 
2.949410e+00 1.051026e+02 
2.984440e+00 1.029097e+02 
3.019760e+00 1.007589e+02 
3.054730e+00 9.868987e+01 
3.089030e+00 9.672787e+01 
3.124060e+00 9.478004e+01 
3.159560e+00 9.286045e+01 
3.194710e+00 9.102005e+01 
3.229010e+00 8.927528e+01 
3.263320e+00 8.756279e+01 
3.297930e+00 8.588519e+01 
3.332830e+00 8.424461e+01 
3.368040e+00 8.263700e+01 
3.403300e+00 8.107263e+01 
3.438450e+00 7.955190e+01 
3.473060e+00 7.809355e+01 
3.508440e+00 7.664110e+01 
3.543110e+00 7.525470e+01 
3.577470e+00 7.391339e+01 
3.613040e+00 7.256191e+01 
3.648120e+00 7.126711e+01 
3.682910e+00 7.001360e+01 
3.718050e+00 6.877574e+01 
3.753320e+00 6.756728e+01 
3.787980e+00 6.641319e+01 
3.822290e+00 6.529651e+01 
3.857020e+00 6.419050e+01 
3.891920e+00 6.310721e+01 
3.926650e+00 6.205755e+01 
3.961970e+00 6.101465e+01 
3.997360e+00 5.999289e+01 
4.031670e+00 5.902606e+01 
4.066330e+00 5.807502e+01 
4.101420e+00 5.713405e+01 
4.136200e+00 5.622041e+01 
4.170810e+00 5.533156e+01 
4.206250e+00 5.444175e+01 
4.241580e+00 5.357463e+01 
4.276300e+00 5.274501e+01 
4.310970e+00 5.193660e+01 
4.346120e+00 5.113328e+01 
4.380600e+00 5.035976e+01 
4.414730e+00 4.961030e+01 
4.450350e+00 4.885010e+01 
4.485320e+00 4.811960e+01 
4.519810e+00 4.741173e+01 
4.555430e+00 4.669483e+01 
4.590870e+00 4.599840e+01 
4.625480e+00 4.533613e+01 
4.659910e+00 4.469048e+01 
4.695230e+00 4.404046e+01 
4.729960e+00 4.341397e+01 
4.764450e+00 4.280461e+01 
4.799530e+00 4.219795e+01 
4.834910e+00 4.159819e+01 
4.869700e+00 4.102070e+01 
4.904370e+00 4.045638e+01 
4.939450e+00 3.989673e+01 
4.973940e+00 3.935796e+01 
5.008430e+00 3.882927e+01 
5.043810e+00 3.829797e+01 
5.078840e+00 3.778231e+01 
5.113500e+00 3.728156e+01 
5.148890e+00 3.678040e+01 
5.184210e+00 3.628955e+01 
5.219060e+00 3.581420e+01 
5.253660e+00 3.535106e+01 
5.288570e+00 3.489215e+01 
5.323420e+00 3.444346e+01 
5.358440e+00 3.400198e+01 
5.393590e+00 3.356672e+01 
5.428310e+00 3.314382e+01 
5.462800e+00 3.273072e+01 
5.497640e+00 3.232062e+01 
5.532670e+00 3.191718e+01 
5.567280e+00 3.152595e+01 
5.602000e+00 3.114012e+01 
5.637270e+00 3.075500e+01 
5.672410e+00 3.037786e+01 
5.707020e+00 3.001262e+01 
5.742040e+00 2.964965e+01 
5.777430e+00 2.928907e+01 
5.812210e+00 2.894056e+01 
5.846820e+00 2.860000e+01 
5.881610e+00 2.826336e+01 
5.916510e+00 2.793110e+01 
5.951600e+00 2.760341e+01 
5.986560e+00 2.728261e+01 
6.021830e+00 2.696414e+01 
6.056490e+00 2.665605e+01 
6.091160e+00 2.635263e+01 
6.125830e+00 2.605392e+01 
6.161090e+00 2.575508e+01 
6.195760e+00 2.546623e+01 
6.230420e+00 2.518189e+01 
6.265690e+00 2.489704e+01 
6.300950e+00 2.461785e+01 
6.335620e+00 2.434751e+01 
6.370880e+00 2.407672e+01 
6.405550e+00 2.381432e+01 
6.440220e+00 2.355576e+01 
6.475480e+00 2.329672e+01 
6.510150e+00 2.304611e+01 
6.544810e+00 2.279996e+01 
6.580080e+00 2.255316e+01 
6.614750e+00 2.231409e+01 
6.649410e+00 2.207902e+01 
6.684080e+00 2.184735e+01 
6.719340e+00 2.161512e+01 
6.754010e+00 2.139000e+01 
6.788680e+00 2.116796e+01 
6.823940e+00 2.094535e+01 
6.859800e+00 2.072220e+01 
6.894470e+00 2.051017e+01 
6.929140e+00 2.030132e+01 
6.963800e+00 2.009542e+01 
6.999070e+00 1.988876e+01 
7.033730e+00 1.968805e+01 
7.068400e+00 1.949001e+01 
7.103660e+00 1.929136e+01 
7.138330e+00 1.909907e+01 
7.173600e+00 1.890686e+01 
7.208260e+00 1.872053e+01 
7.243530e+00 1.853346e+01 
7.277600e+00 1.835480e+01 
7.312860e+00 1.817202e+01 
7.348120e+00 1.799169e+01 
7.382790e+00 1.781672e+01 
7.417460e+00 1.764467e+01 
7.452720e+00 1.747232e+01 
7.487390e+00 1.730507e+01 
7.522650e+00 1.713717e+01 
7.557320e+00 1.697451e+01 
7.591990e+00 1.681403e+01 
7.627250e+00 1.665291e+01 
7.662510e+00 1.649386e+01 
7.697180e+00 1.633895e+01 
7.731850e+00 1.618580e+01 
7.766510e+00 1.603460e+01 
7.801180e+00 1.588525e+01 
7.836440e+00 1.573589e+01 
7.871110e+00 1.559124e+01 
7.906380e+00 1.544591e+01 
7.941040e+00 1.530487e+01 
7.976310e+00 1.516309e+01 
8.011570e+00 1.502309e+01 
8.046240e+00 1.488712e+01 
8.080900e+00 1.475282e+01 
8.115570e+00 1.462009e+01 
8.150830e+00 1.448664e+01 
8.185500e+00 1.435701e+01 
8.220770e+00 1.422673e+01 
8.255430e+00 1.410022e+01 
8.290100e+00 1.397555e+01 
8.324770e+00 1.385240e+01 
8.359430e+00 1.373072e+01 
8.394700e+00 1.360835e+01 
8.429960e+00 1.348744e+01 
8.464630e+00 1.336992e+01 
8.499890e+00 1.325179e+01 
8.534560e+00 1.313698e+01 
8.569200e+00 1.302359e+01 
