# Parameters:
# omega_b = 0.022350, omega_m = 0.129370, n_s = 0.868898, h = 65.393701, w = -1.000000, sigma_8 = 0.701575
# z = 0.300000
#
# k[1/Mpc] # P(k):
8.694000e-04 1.836667e+04 
2.077466e-03 3.578226e+04 
3.285532e-03 4.805086e+04 
4.493598e-03 5.662677e+04 
5.701664e-03 6.236771e+04 
6.909730e-03 6.589596e+04 
8.117797e-03 6.779112e+04 
9.325863e-03 6.835433e+04 
1.053393e-02 6.786591e+04 
1.174199e-02 6.656962e+04 
1.295006e-02 6.461865e+04 
1.415813e-02 6.220309e+04 
1.536619e-02 5.948013e+04 
1.657426e-02 5.654594e+04 
1.778233e-02 5.348419e+04 
1.899039e-02 5.049667e+04 
2.019846e-02 4.766544e+04 
2.140652e-02 4.497456e+04 
2.261459e-02 4.242232e+04 
2.382266e-02 4.004067e+04 
2.503072e-02 3.785078e+04 
2.623879e-02 3.585311e+04 
2.744685e-02 3.404479e+04 
2.865492e-02 3.241953e+04 
2.986299e-02 3.096397e+04 
3.100100e-02 2.973945e+04 
3.220400e-02 2.858352e+04 
3.288100e-02 2.799241e+04 
3.424300e-02 2.691330e+04 
3.555100e-02 2.599393e+04 
3.686000e-02 2.517107e+04 
3.795000e-02 2.454479e+04 
3.929100e-02 2.383441e+04 
4.039800e-02 2.328289e+04 
4.164000e-02 2.269184e+04 
4.294400e-02 2.208331e+04 
4.415000e-02 2.153190e+04 
4.542900e-02 2.093877e+04 
4.660900e-02 2.039388e+04 
4.782300e-02 1.981230e+04 
4.892900e-02 1.927748e+04 
5.031200e-02 1.859789e+04 
5.155900e-02 1.797448e+04 
5.238100e-02 1.756067e+04 
5.378200e-02 1.685806e+04 
5.513400e-02 1.618321e+04 
5.627600e-02 1.562068e+04 
5.735300e-02 1.510301e+04 
5.870100e-02 1.447774e+04 
5.988700e-02 1.395107e+04 
6.113500e-02 1.342385e+04 
6.225900e-02 1.297377e+04 
6.340100e-02 1.254607e+04 
6.480200e-02 1.205847e+04 
6.601100e-02 1.167293e+04 
6.725500e-02 1.130914e+04 
6.829100e-02 1.103385e+04 
6.958600e-02 1.071868e+04 
7.071100e-02 1.047206e+04 
7.192300e-02 1.023011e+04 
7.307400e-02 1.002088e+04 
7.412300e-02 9.846030e+03 
7.550400e-02 9.637748e+03 
7.663100e-02 9.480407e+03 
7.791200e-02 9.315269e+03 
7.912700e-02 9.166108e+03 
8.027600e-02 9.030540e+03 
8.138400e-02 8.902278e+03 
8.272200e-02 8.747748e+03 
8.406100e-02 8.591980e+03 
8.534100e-02 8.437522e+03 
8.653800e-02 8.288635e+03 
8.759800e-02 8.153818e+03 
8.900300e-02 7.969339e+03 
9.009000e-02 7.821379e+03 
9.113300e-02 7.676102e+03 
9.239600e-02 7.499467e+03 
9.358000e-02 7.332108e+03 
9.496100e-02 7.135280e+03 
9.608400e-02 6.977528e+03 
9.727500e-02 6.813385e+03 
9.852600e-02 6.644544e+03 
9.973800e-02 6.486900e+03 
1.009000e-01 6.341011e+03 
1.020900e-01 6.200154e+03 
1.034000e-01 6.052688e+03 
1.046000e-01 5.924698e+03 
1.057200e-01 5.814042e+03 
1.069100e-01 5.702053e+03 
1.082500e-01 5.586949e+03 
1.093900e-01 5.495812e+03 
1.105400e-01 5.408568e+03 
1.116900e-01 5.329188e+03 
1.129600e-01 5.245570e+03 
1.142000e-01 5.170064e+03 
1.153300e-01 5.104245e+03 
1.166400e-01 5.031837e+03 
1.177800e-01 4.971090e+03 
1.190000e-01 4.907967e+03 
1.201200e-01 4.850509e+03 
1.213400e-01 4.789237e+03 
1.227100e-01 4.719706e+03 
1.238900e-01 4.660544e+03 
1.250700e-01 4.600107e+03 
1.263200e-01 4.536358e+03 
1.275500e-01 4.472374e+03 
1.287500e-01 4.410229e+03 
1.299900e-01 4.345638e+03 
1.311300e-01 4.286400e+03 
1.323500e-01 4.222613e+03 
1.335900e-01 4.158591e+03 
1.347100e-01 4.101127e+03 
1.359800e-01 4.037131e+03 
1.372100e-01 3.975993e+03 
1.384300e-01 3.916686e+03 
1.395700e-01 3.862364e+03 
1.407700e-01 3.806462e+03 
1.420300e-01 3.749638e+03 
1.432800e-01 3.694534e+03 
1.444500e-01 3.644926e+03 
1.456300e-01 3.595926e+03 
1.468900e-01 3.545893e+03 
1.480500e-01 3.501137e+03 
1.491700e-01 3.459286e+03 
1.503800e-01 3.415626e+03 
1.516400e-01 3.371367e+03 
1.528200e-01 3.331940e+03 
1.540200e-01 3.292619e+03 
1.551900e-01 3.255750e+03 
1.564300e-01 3.217604e+03 
1.576600e-01 3.180949e+03 
1.588700e-01 3.146115e+03 
1.600900e-01 3.111661e+03 
1.612700e-01 3.079102e+03 
1.625400e-01 3.044713e+03 
1.637600e-01 3.012367e+03 
1.649500e-01 2.981426e+03 
1.662200e-01 2.948940e+03 
1.674000e-01 2.918915e+03 
1.685000e-01 2.891396e+03 
1.697500e-01 2.860347e+03 
1.710300e-01 2.828822e+03 
1.722200e-01 2.800037e+03 
1.734400e-01 2.770388e+03 
1.746400e-01 2.741703e+03 
1.758700e-01 2.712679e+03 
1.770900e-01 2.684127e+03 
1.782700e-01 2.656976e+03 
1.794600e-01 2.629791e+03 
1.807000e-01 2.601769e+03 
1.819100e-01 2.574887e+03 
1.830100e-01 2.550700e+03 
1.842200e-01 2.524491e+03 
1.855000e-01 2.497248e+03 
1.867000e-01 2.472434e+03 
1.879200e-01 2.447615e+03 
1.890900e-01 2.424241e+03 
1.902800e-01 2.401095e+03 
1.915200e-01 2.377361e+03 
1.926900e-01 2.355415e+03 
1.939000e-01 2.333386e+03 
1.951700e-01 2.310631e+03 
1.963100e-01 2.290617e+03 
1.975100e-01 2.270124e+03 
1.987800e-01 2.248770e+03 
2.000100e-01 2.228501e+03 
2.012500e-01 2.208586e+03 
2.023400e-01 2.191331e+03 
2.036100e-01 2.171539e+03 
2.048900e-01 2.151992e+03 
2.060400e-01 2.134687e+03 
2.072200e-01 2.117181e+03 
2.084200e-01 2.099676e+03 
2.096900e-01 2.081420e+03 
2.109200e-01 2.063999e+03 
2.121100e-01 2.047289e+03 
2.132700e-01 2.031218e+03 
2.145200e-01 2.014141e+03 
2.157200e-01 1.997887e+03 
2.168800e-01 1.982345e+03 
2.180700e-01 1.966614e+03 
2.193400e-01 1.950002e+03 
2.206000e-01 1.933649e+03 
2.217500e-01 1.918925e+03 
2.229500e-01 1.903762e+03 
2.241400e-01 1.888763e+03 
2.253500e-01 1.873710e+03 
2.264900e-01 1.859712e+03 
2.277100e-01 1.844882e+03 
2.289900e-01 1.829486e+03 
2.301500e-01 1.815718e+03 
2.313600e-01 1.801539e+03 
2.325600e-01 1.787498e+03 
2.337700e-01 1.773523e+03 
2.350000e-01 1.759501e+03 
2.362000e-01 1.745981e+03 
2.374100e-01 1.732501e+03 
2.386500e-01 1.718864e+03 
2.399100e-01 1.705188e+03 
2.410400e-01 1.693021e+03 
2.422500e-01 1.680143e+03 
2.435000e-01 1.667008e+03 
2.447300e-01 1.654275e+03 
2.458700e-01 1.642726e+03 
2.470600e-01 1.630812e+03 
2.483300e-01 1.618254e+03 
2.495600e-01 1.606300e+03 
2.507600e-01 1.594855e+03 
2.519600e-01 1.583547e+03 
2.532200e-01 1.571816e+03 
2.543700e-01 1.561332e+03 
2.555500e-01 1.550763e+03 
2.568000e-01 1.539699e+03 
2.580100e-01 1.529115e+03 
2.592400e-01 1.518613e+03 
2.604100e-01 1.508795e+03 
2.616100e-01 1.498838e+03 
2.628400e-01 1.488749e+03 
2.640600e-01 1.478943e+03 
2.652200e-01 1.469756e+03 
2.664300e-01 1.460278e+03 
2.676500e-01 1.450829e+03 
2.688400e-01 1.441777e+03 
2.700700e-01 1.432562e+03 
2.712400e-01 1.423892e+03 
2.724800e-01 1.414804e+03 
2.736700e-01 1.406238e+03 
2.748800e-01 1.397683e+03 
2.761000e-01 1.389150e+03 
2.773200e-01 1.380710e+03 
2.785400e-01 1.372356e+03 
2.797000e-01 1.364484e+03 
2.808900e-01 1.356491e+03 
2.821400e-01 1.348185e+03 
2.833900e-01 1.339973e+03 
2.845500e-01 1.332490e+03 
2.857800e-01 1.324637e+03 
2.870300e-01 1.316742e+03 
2.882100e-01 1.309366e+03 
2.893900e-01 1.302028e+03 
2.906300e-01 1.294377e+03 
2.918900e-01 1.286685e+03 
2.930500e-01 1.279675e+03 
2.942500e-01 1.272504e+03 
2.954200e-01 1.265608e+03 
2.966500e-01 1.258431e+03 
2.978900e-01 1.251270e+03 
2.990400e-01 1.244693e+03 
3.002700e-01 1.237719e+03 
3.015100e-01 1.230754e+03 
3.026800e-01 1.224247e+03 
3.038500e-01 1.217801e+03 
3.050300e-01 1.211361e+03 
3.062600e-01 1.204660e+03 
3.075000e-01 1.197971e+03 
3.087000e-01 1.191561e+03 
3.099100e-01 1.185159e+03 
3.111200e-01 1.178847e+03 
3.123100e-01 1.172746e+03 
3.135300e-01 1.166551e+03 
3.147300e-01 1.160515e+03 
3.159900e-01 1.154237e+03 
3.171800e-01 1.148364e+03 
3.183700e-01 1.142543e+03 
3.196300e-01 1.136438e+03 
3.208400e-01 1.130631e+03 
3.220300e-01 1.124972e+03 
3.232000e-01 1.119461e+03 
3.244300e-01 1.113721e+03 
3.256700e-01 1.107988e+03 
3.269200e-01 1.102263e+03 
3.280800e-01 1.096999e+03 
3.292500e-01 1.091793e+03 
3.304800e-01 1.086387e+03 
3.317100e-01 1.081030e+03 
3.328900e-01 1.075937e+03 
3.340700e-01 1.070888e+03 
3.353600e-01 1.065422e+03 
3.365300e-01 1.060511e+03 
3.377100e-01 1.055601e+03 
3.389200e-01 1.050609e+03 
3.401600e-01 1.045538e+03 
3.413700e-01 1.040656e+03 
3.425300e-01 1.036030e+03 
3.437700e-01 1.031128e+03 
3.449800e-01 1.026386e+03 
3.461800e-01 1.021723e+03 
3.473600e-01 1.017197e+03 
3.485800e-01 1.012609e+03 
3.498100e-01 1.008022e+03 
3.510200e-01 1.003548e+03 
3.522000e-01 9.992220e+02 
3.533900e-01 9.948948e+02 
3.546400e-01 9.903931e+02 
3.558400e-01 9.861082e+02 
3.570600e-01 9.817880e+02 
3.582700e-01 9.775389e+02 
3.595000e-01 9.732555e+02 
3.607100e-01 9.690942e+02 
3.618900e-01 9.650827e+02 
3.631200e-01 9.609353e+02 
3.643200e-01 9.569220e+02 
3.655500e-01 9.528419e+02 
3.667300e-01 9.489591e+02 
3.679500e-01 9.450392e+02 
3.691900e-01 9.410875e+02 
3.703600e-01 9.373886e+02 
3.715700e-01 9.335933e+02 
3.727700e-01 9.298591e+02 
3.739900e-01 9.260909e+02 
3.752000e-01 9.223802e+02 
3.763900e-01 9.187593e+02 
3.775800e-01 9.151663e+02 
3.788200e-01 9.114518e+02 
3.800300e-01 9.078557e+02 
3.812100e-01 9.043847e+02 
3.824200e-01 9.008587e+02 
3.836100e-01 8.974176e+02 
3.848600e-01 8.938310e+02 
3.860400e-01 8.904713e+02 
3.872400e-01 8.870804e+02 
3.884600e-01 8.836643e+02 
3.896500e-01 8.803593e+02 
3.908700e-01 8.769965e+02 
3.920600e-01 8.737411e+02 
3.933100e-01 8.703475e+02 
3.945300e-01 8.670608e+02 
3.957200e-01 8.638874e+02 
3.969300e-01 8.606870e+02 
3.981700e-01 8.574319e+02 
3.993500e-01 8.543574e+02 
4.094840e-01 8.289008e+02 
4.272360e-01 7.877650e+02 
4.454600e-01 7.495406e+02 
4.630560e-01 7.157392e+02 
4.804610e-01 6.850184e+02 
4.980690e-01 6.563698e+02 
5.159230e-01 6.295006e+02 
5.317440e-01 6.074678e+02 
5.489640e-01 5.850587e+02 
5.671990e-01 5.631264e+02 
5.838690e-01 5.444407e+02 
6.018840e-01 5.256463e+02 
6.202330e-01 5.078475e+02 
6.379250e-01 4.917562e+02 
6.545410e-01 4.776510e+02 
6.714560e-01 4.641050e+02 
6.892080e-01 4.506975e+02 
7.066010e-01 4.383110e+02 
7.240540e-01 4.265669e+02 
7.420450e-01 4.150826e+02 
7.593780e-01 4.045762e+02 
7.764720e-01 3.947275e+02 
7.942840e-01 3.849401e+02 
8.116170e-01 3.758076e+02 
8.288310e-01 3.670984e+02 
8.462240e-01 3.586628e+02 
8.631980e-01 3.507873e+02 
8.810700e-01 3.428155e+02 
8.989410e-01 3.351192e+02 
9.166330e-01 3.277802e+02 
9.345640e-01 3.205850e+02 
9.515980e-01 3.140030e+02 
9.688720e-01 3.075478e+02 
9.865640e-01 3.011295e+02 
1.031870e+00 2.855874e+02 
1.063490e+00 2.754137e+02 
1.097920e+00 2.649656e+02 
1.134370e+00 2.545173e+02 
1.167730e+00 2.454537e+02 
1.203830e+00 2.361419e+02 
1.240470e+00 2.272268e+02 
1.275790e+00 2.190334e+02 
1.309140e+00 2.116902e+02 
1.342970e+00 2.045762e+02 
1.378420e+00 1.974906e+02 
1.413200e+00 1.908529e+02 
1.448110e+00 1.844983e+02 
1.484090e+00 1.782542e+02 
1.518820e+00 1.725291e+02 
1.552880e+00 1.671188e+02 
1.588630e+00 1.617119e+02 
1.623230e+00 1.567046e+02 
1.657720e+00 1.519336e+02 
1.692450e+00 1.473442e+02 
1.726400e+00 1.430045e+02 
1.762200e+00 1.386379e+02 
1.797880e+00 1.344678e+02 
1.833270e+00 1.305107e+02 
1.869070e+00 1.266721e+02 
1.903200e+00 1.231468e+02 
1.937740e+00 1.197202e+02 
1.973190e+00 1.163494e+02 
2.007440e+00 1.132148e+02 
2.042160e+00 1.101534e+02 
2.077900e+00 1.071195e+02 
2.112390e+00 1.043036e+02 
2.146220e+00 1.016458e+02 
2.181600e+00 9.895580e+01 
2.216930e+00 9.637460e+01 
2.250760e+00 9.399160e+01 
2.286500e+00 9.156021e+01 
2.321770e+00 8.924394e+01 
2.355950e+00 8.707351e+01 
2.391280e+00 8.491419e+01 
2.426240e+00 8.285239e+01 
2.460670e+00 8.088779e+01 
2.495640e+00 7.895469e+01 
2.531080e+00 7.706084e+01 
2.566220e+00 7.524276e+01 
2.600830e+00 7.350899e+01 
2.635080e+00 7.184697e+01 
2.670340e+00 7.019459e+01 
2.705970e+00 6.857941e+01 
2.740040e+00 6.708291e+01 
2.774520e+00 6.560912e+01 
2.809730e+00 6.415590e+01 
2.844390e+00 6.277099e+01 
2.879960e+00 6.139042e+01 
2.914860e+00 6.007519e+01 
2.949410e+00 5.881161e+01 
2.984440e+00 5.756731e+01 
3.019760e+00 5.634684e+01 
3.054730e+00 5.517286e+01 
3.089030e+00 5.405897e+01 
3.124060e+00 5.295316e+01 
3.159560e+00 5.186332e+01 
3.194710e+00 5.081814e+01 
3.229010e+00 4.982728e+01 
3.263320e+00 4.885474e+01 
3.297930e+00 4.790199e+01 
3.332830e+00 4.697001e+01 
3.368040e+00 4.605680e+01 
3.403300e+00 4.516823e+01 
3.438450e+00 4.430425e+01 
3.473060e+00 4.347581e+01 
3.508440e+00 4.265056e+01 
3.543110e+00 4.186296e+01 
3.577470e+00 4.110093e+01 
3.613040e+00 4.033319e+01 
3.648120e+00 3.959756e+01 
3.682910e+00 3.888552e+01 
3.718050e+00 3.818249e+01 
3.753320e+00 3.749615e+01 
3.787980e+00 3.684058e+01 
3.822290e+00 3.620640e+01 
3.857020e+00 3.557841e+01 
3.891920e+00 3.496337e+01 
3.926650e+00 3.436739e+01 
3.961970e+00 3.377538e+01 
3.997360e+00 3.319545e+01 
4.031670e+00 3.264681e+01 
4.066330e+00 3.210714e+01 
4.101420e+00 3.157331e+01 
4.136200e+00 3.105498e+01 
4.170810e+00 3.055085e+01 
4.206250e+00 3.004633e+01 
4.241580e+00 2.955480e+01 
4.276300e+00 2.908454e+01 
4.310970e+00 2.862636e+01 
4.346120e+00 2.817121e+01 
4.380600e+00 2.773313e+01 
4.414730e+00 2.730878e+01 
4.450350e+00 2.687832e+01 
4.485320e+00 2.646480e+01 
4.519810e+00 2.606425e+01 
4.555430e+00 2.565874e+01 
4.590870e+00 2.526490e+01 
4.625480e+00 2.489046e+01 
4.659910e+00 2.452552e+01 
4.695230e+00 2.415824e+01 
4.729960e+00 2.380434e+01 
4.764450e+00 2.346026e+01 
4.799530e+00 2.311786e+01 
4.834910e+00 2.277945e+01 
4.869700e+00 2.245374e+01 
4.904370e+00 2.213555e+01 
4.939450e+00 2.182009e+01 
4.973940e+00 2.151650e+01 
5.008430e+00 2.121867e+01 
5.043810e+00 2.091957e+01 
5.078840e+00 2.062941e+01 
5.113500e+00 2.034770e+01 
5.148890e+00 2.006593e+01 
5.184210e+00 1.979003e+01 
5.219060e+00 1.952293e+01 
5.253660e+00 1.926284e+01 
5.288570e+00 1.900519e+01 
5.323420e+00 1.875342e+01 
5.358440e+00 1.850584e+01 
5.393590e+00 1.826182e+01 
5.428310e+00 1.802489e+01 
5.462800e+00 1.779357e+01 
5.497640e+00 1.756398e+01 
5.532670e+00 1.733827e+01 
5.567280e+00 1.711948e+01 
5.602000e+00 1.690376e+01 
5.637270e+00 1.668864e+01 
5.672410e+00 1.647807e+01 
5.707020e+00 1.627418e+01 
5.742040e+00 1.607176e+01 
5.777430e+00 1.587075e+01 
5.812210e+00 1.567651e+01 
5.846820e+00 1.548690e+01 
5.881610e+00 1.529955e+01 
5.916510e+00 1.511468e+01 
5.951600e+00 1.493252e+01 
5.986560e+00 1.475428e+01 
6.021830e+00 1.457736e+01 
6.056490e+00 1.440636e+01 
6.091160e+00 1.423808e+01 
6.125830e+00 1.407244e+01 
6.161090e+00 1.390682e+01 
6.195760e+00 1.374692e+01 
6.230420e+00 1.358954e+01 
6.265690e+00 1.343191e+01 
6.300950e+00 1.327766e+01 
6.335620e+00 1.312832e+01 
6.370880e+00 1.297876e+01 
6.405550e+00 1.283401e+01 
6.440220e+00 1.269145e+01 
6.475480e+00 1.254866e+01 
6.510150e+00 1.241060e+01 
6.544810e+00 1.227517e+01 
6.580080e+00 1.213939e+01 
6.614750e+00 1.200790e+01 
6.649410e+00 1.187878e+01 
6.684080e+00 1.175157e+01 
6.719340e+00 1.162408e+01 
6.754010e+00 1.150058e+01 
6.788680e+00 1.137895e+01 
6.823940e+00 1.125702e+01 
6.859800e+00 1.113482e+01 
6.894470e+00 1.101886e+01 
6.929140e+00 1.090471e+01 
6.963800e+00 1.079217e+01 
6.999070e+00 1.067925e+01 
7.033730e+00 1.056981e+01 
7.068400e+00 1.046183e+01 
7.103660e+00 1.035353e+01 
7.138330e+00 1.024878e+01 
7.173600e+00 1.014422e+01 
7.208260e+00 1.004287e+01 
7.243530e+00 9.941122e+00 
7.277600e+00 9.844061e+00 
7.312860e+00 9.744863e+00 
7.348120e+00 9.647001e+00 
7.382790e+00 9.552056e+00 
7.417460e+00 9.458838e+00 
7.452720e+00 9.365532e+00 
7.487390e+00 9.274989e+00 
7.522650e+00 9.184105e+00 
7.557320e+00 9.096197e+00 
7.591990e+00 9.009524e+00 
7.627250e+00 8.922509e+00 
7.662510e+00 8.836619e+00 
7.697180e+00 8.753111e+00 
7.731850e+00 8.670606e+00 
7.766510e+00 8.589161e+00 
7.801180e+00 8.508712e+00 
7.836440e+00 8.428367e+00 
7.871110e+00 8.350629e+00 
7.906380e+00 8.272529e+00 
7.941040e+00 8.196729e+00 
7.976310e+00 8.120619e+00 
8.011570e+00 8.045561e+00 
8.046240e+00 7.972662e+00 
8.080900e+00 7.900663e+00 
8.115570e+00 7.829536e+00 
8.150830e+00 7.758168e+00 
8.185500e+00 7.688839e+00 
8.220770e+00 7.619156e+00 
8.255430e+00 7.551497e+00 
8.290100e+00 7.484971e+00 
8.324770e+00 7.419267e+00 
8.359430e+00 7.354350e+00 
8.394700e+00 7.289067e+00 
8.429960e+00 7.224629e+00 
8.464630e+00 7.162066e+00 
8.499890e+00 7.099177e+00 
8.534560e+00 7.038056e+00 
8.569200e+00 6.977686e+00 
