# Parameters:
# omega_b = 0.022949, omega_m = 0.139016, n_s = 0.862598, h = 60.196850, w = -1.000000, sigma_8 = 0.731496
# z = 0.300000
#
# k[1/Mpc] # P(k):
8.694000e-04 1.808428e+04 
2.077466e-03 3.532709e+04 
3.285532e-03 4.769851e+04 
4.493598e-03 5.657389e+04 
5.701664e-03 6.271387e+04 
6.909730e-03 6.668660e+04 
8.117797e-03 6.903627e+04 
9.325863e-03 7.004448e+04 
1.053393e-02 6.997674e+04 
1.174199e-02 6.906675e+04 
1.295006e-02 6.746118e+04 
1.415813e-02 6.534542e+04 
1.536619e-02 6.287462e+04 
1.657426e-02 6.013489e+04 
1.778233e-02 5.718871e+04 
1.899039e-02 5.428280e+04 
2.019846e-02 5.155000e+04 
2.140652e-02 4.894785e+04 
2.261459e-02 4.644610e+04 
2.382266e-02 4.407515e+04 
2.503072e-02 4.186243e+04 
2.623879e-02 3.981351e+04 
2.744685e-02 3.792727e+04 
2.865492e-02 3.620622e+04 
2.986299e-02 3.464181e+04 
3.100100e-02 3.330486e+04 
3.220400e-02 3.202475e+04 
3.288100e-02 3.136190e+04 
3.424300e-02 3.013957e+04 
3.555100e-02 2.908711e+04 
3.686000e-02 2.813797e+04 
3.795000e-02 2.741348e+04 
3.929100e-02 2.659323e+04 
4.039800e-02 2.596108e+04 
4.164000e-02 2.529010e+04 
4.294400e-02 2.461251e+04 
4.415000e-02 2.400747e+04 
4.542900e-02 2.337038e+04 
4.660900e-02 2.279317e+04 
4.782300e-02 2.218798e+04 
4.892900e-02 2.163623e+04 
5.031200e-02 2.094089e+04 
5.155900e-02 2.030622e+04 
5.238100e-02 1.988516e+04 
5.378200e-02 1.916961e+04 
5.513400e-02 1.847897e+04 
5.627600e-02 1.789916e+04 
5.735300e-02 1.736141e+04 
5.870100e-02 1.670542e+04 
5.988700e-02 1.614624e+04 
6.113500e-02 1.557934e+04 
6.225900e-02 1.508837e+04 
6.340100e-02 1.461519e+04 
6.480200e-02 1.406792e+04 
6.601100e-02 1.362673e+04 
6.725500e-02 1.320323e+04 
6.829100e-02 1.287661e+04 
6.958600e-02 1.249760e+04 
7.071100e-02 1.219578e+04 
7.192300e-02 1.189555e+04 
7.307400e-02 1.163277e+04 
7.412300e-02 1.141119e+04 
7.550400e-02 1.114529e+04 
7.663100e-02 1.094418e+04 
7.791200e-02 1.073430e+04 
7.912700e-02 1.054776e+04 
8.027600e-02 1.038134e+04 
8.138400e-02 1.022710e+04 
8.272200e-02 1.004617e+04 
8.406100e-02 9.869066e+03 
8.534100e-02 9.699140e+03 
8.653800e-02 9.539358e+03 
8.759800e-02 9.396638e+03 
8.900300e-02 9.203787e+03 
9.009000e-02 9.050459e+03 
9.113300e-02 8.900491e+03 
9.239600e-02 8.718230e+03 
9.358000e-02 8.545196e+03 
9.496100e-02 8.340264e+03 
9.608400e-02 8.174825e+03 
9.727500e-02 8.001631e+03 
9.852600e-02 7.820609e+03 
9.973800e-02 7.649962e+03 
1.009000e-01 7.490673e+03 
1.020900e-01 7.333546e+03 
1.034000e-01 7.167333e+03 
1.046000e-01 7.021283e+03 
1.057200e-01 6.892102e+03 
1.069100e-01 6.760312e+03 
1.082500e-01 6.621920e+03 
1.093900e-01 6.510696e+03 
1.105400e-01 6.403241e+03 
1.116900e-01 6.303574e+03 
1.129600e-01 6.198063e+03 
1.142000e-01 6.101729e+03 
1.153300e-01 6.017718e+03 
1.166400e-01 5.925227e+03 
1.177800e-01 5.848323e+03 
1.190000e-01 5.768739e+03 
1.201200e-01 5.698015e+03 
1.213400e-01 5.622903e+03 
1.227100e-01 5.540733e+03 
1.238900e-01 5.471468e+03 
1.250700e-01 5.402787e+03 
1.263200e-01 5.331064e+03 
1.275500e-01 5.260649e+03 
1.287500e-01 5.192880e+03 
1.299900e-01 5.123416e+03 
1.311300e-01 5.059960e+03 
1.323500e-01 4.992009e+03 
1.335900e-01 4.923751e+03 
1.347100e-01 4.862426e+03 
1.359800e-01 4.793857e+03 
1.372100e-01 4.727850e+03 
1.384300e-01 4.663467e+03 
1.395700e-01 4.603712e+03 
1.407700e-01 4.542070e+03 
1.420300e-01 4.478153e+03 
1.432800e-01 4.416147e+03 
1.444500e-01 4.359049e+03 
1.456300e-01 4.302639e+03 
1.468900e-01 4.244206e+03 
1.480500e-01 4.191679e+03 
1.491700e-01 4.142234e+03 
1.503800e-01 4.090230e+03 
1.516400e-01 4.037431e+03 
1.528200e-01 3.990037e+03 
1.540200e-01 3.942772e+03 
1.551900e-01 3.898355e+03 
1.564300e-01 3.852375e+03 
1.576600e-01 3.808256e+03 
1.588700e-01 3.766402e+03 
1.600900e-01 3.725023e+03 
1.612700e-01 3.686231e+03 
1.625400e-01 3.645258e+03 
1.637600e-01 3.606979e+03 
1.649500e-01 3.570513e+03 
1.662200e-01 3.532293e+03 
1.674000e-01 3.497346e+03 
1.685000e-01 3.465312e+03 
1.697500e-01 3.429362e+03 
1.710300e-01 3.393051e+03 
1.722200e-01 3.359893e+03 
1.734400e-01 3.326017e+03 
1.746400e-01 3.293250e+03 
1.758700e-01 3.260143e+03 
1.770900e-01 3.227675e+03 
1.782700e-01 3.196795e+03 
1.794600e-01 3.165892e+03 
1.807000e-01 3.134046e+03 
1.819100e-01 3.103490e+03 
1.830100e-01 3.075932e+03 
1.842200e-01 3.046054e+03 
1.855000e-01 3.014986e+03 
1.867000e-01 2.986560e+03 
1.879200e-01 2.958123e+03 
1.890900e-01 2.931309e+03 
1.902800e-01 2.904612e+03 
1.915200e-01 2.877231e+03 
1.926900e-01 2.851870e+03 
1.939000e-01 2.826278e+03 
1.951700e-01 2.799841e+03 
1.963100e-01 2.776546e+03 
1.975100e-01 2.752586e+03 
1.987800e-01 2.727619e+03 
2.000100e-01 2.703889e+03 
2.012500e-01 2.680508e+03 
2.023400e-01 2.660249e+03 
2.036100e-01 2.637000e+03 
2.048900e-01 2.614000e+03 
2.060400e-01 2.593636e+03 
2.072200e-01 2.573036e+03 
2.084200e-01 2.552441e+03 
2.096900e-01 2.530961e+03 
2.109200e-01 2.510462e+03 
2.121100e-01 2.490835e+03 
2.132700e-01 2.471960e+03 
2.145200e-01 2.451902e+03 
2.157200e-01 2.432843e+03 
2.168800e-01 2.414633e+03 
2.180700e-01 2.396200e+03 
2.193400e-01 2.376749e+03 
2.206000e-01 2.357627e+03 
2.217500e-01 2.340409e+03 
2.229500e-01 2.322676e+03 
2.241400e-01 2.305169e+03 
2.253500e-01 2.287599e+03 
2.264900e-01 2.271257e+03 
2.277100e-01 2.253947e+03 
2.289900e-01 2.235979e+03 
2.301500e-01 2.219909e+03 
2.313600e-01 2.203357e+03 
2.325600e-01 2.186952e+03 
2.337700e-01 2.170621e+03 
2.350000e-01 2.154235e+03 
2.362000e-01 2.138420e+03 
2.374100e-01 2.122638e+03 
2.386500e-01 2.106670e+03 
2.399100e-01 2.090655e+03 
2.410400e-01 2.076377e+03 
2.422500e-01 2.061260e+03 
2.435000e-01 2.045839e+03 
2.447300e-01 2.030883e+03 
2.458700e-01 2.017292e+03 
2.470600e-01 2.003272e+03 
2.483300e-01 1.988492e+03 
2.495600e-01 1.974413e+03 
2.507600e-01 1.960919e+03 
2.519600e-01 1.947585e+03 
2.532200e-01 1.933752e+03 
2.543700e-01 1.921380e+03 
2.555500e-01 1.908900e+03 
2.568000e-01 1.895833e+03 
2.580100e-01 1.883334e+03 
2.592400e-01 1.870929e+03 
2.604100e-01 1.859329e+03 
2.616100e-01 1.847565e+03 
2.628400e-01 1.835644e+03 
2.640600e-01 1.824053e+03 
2.652200e-01 1.813194e+03 
2.664300e-01 1.801990e+03 
2.676500e-01 1.790820e+03 
2.688400e-01 1.780120e+03 
2.700700e-01 1.769230e+03 
2.712400e-01 1.758983e+03 
2.724800e-01 1.748242e+03 
2.736700e-01 1.738119e+03 
2.748800e-01 1.728011e+03 
2.761000e-01 1.717930e+03 
2.773200e-01 1.707958e+03 
2.785400e-01 1.698086e+03 
2.797000e-01 1.688783e+03 
2.808900e-01 1.679337e+03 
2.821400e-01 1.669520e+03 
2.833900e-01 1.659812e+03 
2.845500e-01 1.650971e+03 
2.857800e-01 1.641692e+03 
2.870300e-01 1.632362e+03 
2.882100e-01 1.623645e+03 
2.893900e-01 1.614971e+03 
2.906300e-01 1.605924e+03 
2.918900e-01 1.596827e+03 
2.930500e-01 1.588538e+03 
2.942500e-01 1.580056e+03 
2.954200e-01 1.571899e+03 
2.966500e-01 1.563409e+03 
2.978900e-01 1.554937e+03 
2.990400e-01 1.547156e+03 
3.002700e-01 1.538902e+03 
3.015100e-01 1.530658e+03 
3.026800e-01 1.522956e+03 
3.038500e-01 1.515326e+03 
3.050300e-01 1.507703e+03 
3.062600e-01 1.499761e+03 
3.075000e-01 1.491833e+03 
3.087000e-01 1.484236e+03 
3.099100e-01 1.476648e+03 
3.111200e-01 1.469167e+03 
3.123100e-01 1.461936e+03 
3.135300e-01 1.454592e+03 
3.147300e-01 1.447437e+03 
3.159900e-01 1.439996e+03 
3.171800e-01 1.433030e+03 
3.183700e-01 1.426125e+03 
3.196300e-01 1.418883e+03 
3.208400e-01 1.411994e+03 
3.220300e-01 1.405281e+03 
3.232000e-01 1.398738e+03 
3.244300e-01 1.391921e+03 
3.256700e-01 1.385112e+03 
3.269200e-01 1.378313e+03 
3.280800e-01 1.372060e+03 
3.292500e-01 1.365878e+03 
3.304800e-01 1.359458e+03 
3.317100e-01 1.353096e+03 
3.328900e-01 1.347047e+03 
3.340700e-01 1.341051e+03 
3.353600e-01 1.334555e+03 
3.365300e-01 1.328716e+03 
3.377100e-01 1.322878e+03 
3.389200e-01 1.316943e+03 
3.401600e-01 1.310915e+03 
3.413700e-01 1.305108e+03 
3.425300e-01 1.299605e+03 
3.437700e-01 1.293773e+03 
3.449800e-01 1.288131e+03 
3.461800e-01 1.282584e+03 
3.473600e-01 1.277198e+03 
3.485800e-01 1.271735e+03 
3.498100e-01 1.266274e+03 
3.510200e-01 1.260947e+03 
3.522000e-01 1.255795e+03 
3.533900e-01 1.250643e+03 
3.546400e-01 1.245279e+03 
3.558400e-01 1.240173e+03 
3.570600e-01 1.235025e+03 
3.582700e-01 1.229961e+03 
3.595000e-01 1.224857e+03 
3.607100e-01 1.219896e+03 
3.618900e-01 1.215111e+03 
3.631200e-01 1.210165e+03 
3.643200e-01 1.205378e+03 
3.655500e-01 1.200512e+03 
3.667300e-01 1.195881e+03 
3.679500e-01 1.191199e+03 
3.691900e-01 1.186479e+03 
3.703600e-01 1.182061e+03 
3.715700e-01 1.177527e+03 
3.727700e-01 1.173067e+03 
3.739900e-01 1.168566e+03 
3.752000e-01 1.164130e+03 
3.763900e-01 1.159802e+03 
3.775800e-01 1.155508e+03 
3.788200e-01 1.151068e+03 
3.800300e-01 1.146770e+03 
3.812100e-01 1.142616e+03 
3.824200e-01 1.138393e+03 
3.836100e-01 1.134271e+03 
3.848600e-01 1.129975e+03 
3.860400e-01 1.125951e+03 
3.872400e-01 1.121889e+03 
3.884600e-01 1.117792e+03 
3.896500e-01 1.113825e+03 
3.908700e-01 1.109789e+03 
3.920600e-01 1.105882e+03 
3.933100e-01 1.101809e+03 
3.945300e-01 1.097864e+03 
3.957200e-01 1.094052e+03 
3.969300e-01 1.090207e+03 
3.981700e-01 1.086297e+03 
3.993500e-01 1.082603e+03 
4.094840e-01 1.051973e+03 
4.272360e-01 1.002287e+03 
4.454600e-01 9.559128e+02 
4.630560e-01 9.147326e+02 
4.804610e-01 8.771618e+02 
4.980690e-01 8.420164e+02 
5.159230e-01 8.089560e+02 
5.317440e-01 7.817835e+02 
5.489640e-01 7.540728e+02 
5.671990e-01 7.268814e+02 
5.838690e-01 7.036529e+02 
6.018840e-01 6.802294e+02 
6.202330e-01 6.579639e+02 
6.379250e-01 6.377779e+02 
6.545410e-01 6.200114e+02 
6.714560e-01 6.028952e+02 
6.892080e-01 5.858837e+02 
7.066010e-01 5.700981e+02 
7.240540e-01 5.550813e+02 
7.420450e-01 5.403192e+02 
7.593780e-01 5.267626e+02 
7.764720e-01 5.140066e+02 
7.942840e-01 5.012811e+02 
8.116170e-01 4.893539e+02 
8.288310e-01 4.779376e+02 
8.462240e-01 4.668462e+02 
8.631980e-01 4.564545e+02 
8.810700e-01 4.459026e+02 
8.989410e-01 4.356899e+02 
9.166330e-01 4.259258e+02 
9.345640e-01 4.163316e+02 
9.515980e-01 4.075361e+02 
9.688720e-01 3.988932e+02 
9.865640e-01 3.902835e+02 
1.031870e+00 3.693969e+02 
1.063490e+00 3.556957e+02 
1.097920e+00 3.416011e+02 
1.134370e+00 3.275062e+02 
1.167730e+00 3.152775e+02 
1.203830e+00 3.027167e+02 
1.240470e+00 2.907011e+02 
1.275790e+00 2.796685e+02 
1.309140e+00 2.697944e+02 
1.342970e+00 2.602414e+02 
1.378420e+00 2.507409e+02 
1.413200e+00 2.418568e+02 
1.448110e+00 2.333671e+02 
1.484090e+00 2.250421e+02 
1.518820e+00 2.174213e+02 
1.552880e+00 2.102372e+02 
1.588630e+00 2.030714e+02 
1.623230e+00 1.964482e+02 
1.657720e+00 1.901490e+02 
1.692450e+00 1.841018e+02 
1.726400e+00 1.783981e+02 
1.762200e+00 1.726700e+02 
1.797880e+00 1.672114e+02 
1.833270e+00 1.620400e+02 
1.869070e+00 1.570347e+02 
1.903200e+00 1.524477e+02 
1.937740e+00 1.479969e+02 
1.973190e+00 1.436271e+02 
2.007440e+00 1.395712e+02 
2.042160e+00 1.356174e+02 
2.077900e+00 1.317063e+02 
2.112390e+00 1.280826e+02 
2.146220e+00 1.246688e+02 
2.181600e+00 1.212202e+02 
2.216930e+00 1.179164e+02 
2.250760e+00 1.148713e+02 
2.286500e+00 1.117694e+02 
2.321770e+00 1.088195e+02 
2.355950e+00 1.060599e+02 
2.391280e+00 1.033189e+02 
2.426240e+00 1.007057e+02 
2.460670e+00 9.821928e+01 
2.495640e+00 9.577641e+01 
2.531080e+00 9.338739e+01 
2.566220e+00 9.109737e+01 
2.600830e+00 8.891646e+01 
2.635080e+00 8.682846e+01 
2.670340e+00 8.475608e+01 
2.705970e+00 8.273293e+01 
2.740040e+00 8.086065e+01 
2.774520e+00 7.901962e+01 
2.809730e+00 7.720655e+01 
2.844390e+00 7.548051e+01 
2.879960e+00 7.376231e+01 
2.914860e+00 7.212778e+01 
2.949410e+00 7.055901e+01 
2.984440e+00 6.901631e+01 
3.019760e+00 6.750498e+01 
3.054730e+00 6.605256e+01 
3.089030e+00 6.467654e+01 
3.124060e+00 6.331169e+01 
3.159560e+00 6.196806e+01 
3.194710e+00 6.068099e+01 
3.229010e+00 5.946166e+01 
3.263320e+00 5.826686e+01 
3.297930e+00 5.709717e+01 
3.332830e+00 5.595419e+01 
3.368040e+00 5.483525e+01 
3.403300e+00 5.374734e+01 
3.438450e+00 5.269091e+01 
3.473060e+00 5.167849e+01 
3.508440e+00 5.067141e+01 
3.543110e+00 4.971075e+01 
3.577470e+00 4.878249e+01 
3.613040e+00 4.784776e+01 
3.648120e+00 4.695299e+01 
3.682910e+00 4.608749e+01 
3.718050e+00 4.523381e+01 
3.753320e+00 4.440092e+01 
3.787980e+00 4.360602e+01 
3.822290e+00 4.283757e+01 
3.857020e+00 4.207733e+01 
3.891920e+00 4.133317e+01 
3.926650e+00 4.061265e+01 
3.961970e+00 3.989732e+01 
3.997360e+00 3.919725e+01 
4.031670e+00 3.853521e+01 
4.066330e+00 3.788458e+01 
4.101420e+00 3.724116e+01 
4.136200e+00 3.661715e+01 
4.170810e+00 3.601035e+01 
4.206250e+00 3.540365e+01 
4.241580e+00 3.481278e+01 
4.276300e+00 3.424785e+01 
4.310970e+00 3.369768e+01 
4.346120e+00 3.315143e+01 
4.380600e+00 3.262605e+01 
4.414730e+00 3.211725e+01 
4.450350e+00 3.160156e+01 
4.485320e+00 3.110625e+01 
4.519810e+00 3.062685e+01 
4.555430e+00 3.014171e+01 
4.590870e+00 2.967070e+01 
4.625480e+00 2.922311e+01 
4.659910e+00 2.878694e+01 
4.695230e+00 2.834835e+01 
4.729960e+00 2.792585e+01 
4.764450e+00 2.751523e+01 
4.799530e+00 2.710681e+01 
4.834910e+00 2.670320e+01 
4.869700e+00 2.631500e+01 
4.904370e+00 2.593586e+01 
4.939450e+00 2.556008e+01 
4.973940e+00 2.519865e+01 
5.008430e+00 2.484413e+01 
5.043810e+00 2.448822e+01 
5.078840e+00 2.414306e+01 
5.113500e+00 2.380801e+01 
5.148890e+00 2.347308e+01 
5.184210e+00 2.314519e+01 
5.219060e+00 2.282785e+01 
5.253660e+00 2.251898e+01 
5.288570e+00 2.221304e+01 
5.323420e+00 2.191416e+01 
5.358440e+00 2.162035e+01 
5.393590e+00 2.133078e+01 
5.428310e+00 2.104976e+01 
5.462800e+00 2.077545e+01 
5.497640e+00 2.050324e+01 
5.532670e+00 2.023571e+01 
5.567280e+00 1.997643e+01 
5.602000e+00 1.972081e+01 
5.637270e+00 1.946601e+01 
5.672410e+00 1.921662e+01 
5.707020e+00 1.897519e+01 
5.742040e+00 1.873559e+01 
5.777430e+00 1.849768e+01 
5.812210e+00 1.826782e+01 
5.846820e+00 1.804349e+01 
5.881610e+00 1.782187e+01 
5.916510e+00 1.760322e+01 
5.951600e+00 1.738780e+01 
5.986560e+00 1.717707e+01 
6.021830e+00 1.696793e+01 
6.056490e+00 1.676582e+01 
6.091160e+00 1.656697e+01 
6.125830e+00 1.637126e+01 
6.161090e+00 1.617561e+01 
6.195760e+00 1.598674e+01 
6.230420e+00 1.580088e+01 
6.265690e+00 1.561474e+01 
6.300950e+00 1.543262e+01 
6.335620e+00 1.525632e+01 
6.370880e+00 1.507978e+01 
6.405550e+00 1.490894e+01 
6.440220e+00 1.474073e+01 
6.475480e+00 1.457225e+01 
6.510150e+00 1.440938e+01 
6.544810e+00 1.424963e+01 
6.580080e+00 1.408949e+01 
6.614750e+00 1.393441e+01 
6.649410e+00 1.378217e+01 
6.684080e+00 1.363219e+01 
6.719340e+00 1.348190e+01 
6.754010e+00 1.333633e+01 
6.788680e+00 1.319298e+01 
6.823940e+00 1.304930e+01 
6.859800e+00 1.290530e+01 
6.894470e+00 1.276869e+01 
6.929140e+00 1.263420e+01 
6.963800e+00 1.250165e+01 
6.999070e+00 1.236866e+01 
7.033730e+00 1.223977e+01 
7.068400e+00 1.211262e+01 
7.103660e+00 1.198512e+01 
7.138330e+00 1.186179e+01 
7.173600e+00 1.173871e+01 
7.208260e+00 1.161941e+01 
7.243530e+00 1.149966e+01 
7.277600e+00 1.138544e+01 
7.312860e+00 1.126873e+01 
7.348120e+00 1.115360e+01 
7.382790e+00 1.104192e+01 
7.417460e+00 1.093227e+01 
7.452720e+00 1.082253e+01 
7.487390e+00 1.071604e+01 
7.522650e+00 1.060917e+01 
7.557320e+00 1.050581e+01 
7.591990e+00 1.040391e+01 
7.627250e+00 1.030162e+01 
7.662510e+00 1.020066e+01 
7.697180e+00 1.010252e+01 
7.731850e+00 1.000557e+01 
7.766510e+00 9.909871e+00 
7.801180e+00 9.815358e+00 
7.836440e+00 9.720971e+00 
7.871110e+00 9.629653e+00 
7.906380e+00 9.537919e+00 
7.941040e+00 9.448898e+00 
7.976310e+00 9.359524e+00 
8.011570e+00 9.271396e+00 
8.046240e+00 9.185811e+00 
8.080900e+00 9.101294e+00 
8.115570e+00 9.017809e+00 
8.150830e+00 8.934052e+00 
8.185500e+00 8.852697e+00 
8.220770e+00 8.770936e+00 
8.255430e+00 8.691559e+00 
8.290100e+00 8.613516e+00 
8.324770e+00 8.536445e+00 
8.359430e+00 8.460306e+00 
8.394700e+00 8.383746e+00 
8.429960e+00 8.308190e+00 
8.464630e+00 8.234844e+00 
8.499890e+00 8.161124e+00 
8.534560e+00 8.089485e+00 
8.569200e+00 8.018735e+00 
