# Parameters:
# omega_b = 0.023043, omega_m = 0.152520, n_s = 0.971260, h = 75.551181, w = -1.000000, sigma_8 = 0.884252
# z = 0.300000
#
# k[1/Mpc] # P(k):
8.694000e-04 9.414704e+03 
2.077466e-03 2.036726e+04 
3.285532e-03 2.914069e+04 
4.493598e-03 3.609558e+04 
5.701664e-03 4.142466e+04 
6.909730e-03 4.536792e+04 
8.117797e-03 4.821467e+04 
9.325863e-03 5.010855e+04 
1.053393e-02 5.119191e+04 
1.174199e-02 5.159529e+04 
1.295006e-02 5.140750e+04 
1.415813e-02 5.075213e+04 
1.536619e-02 4.973154e+04 
1.657426e-02 4.843334e+04 
1.778233e-02 4.693346e+04 
1.899039e-02 4.522584e+04 
2.019846e-02 4.333355e+04 
2.140652e-02 4.141228e+04 
2.261459e-02 3.953316e+04 
2.382266e-02 3.773069e+04 
2.503072e-02 3.603181e+04 
2.623879e-02 3.444752e+04 
2.744685e-02 3.298312e+04 
2.865492e-02 3.164594e+04 
2.986299e-02 3.043366e+04 
3.100100e-02 2.940410e+04 
3.220400e-02 2.842778e+04 
3.288100e-02 2.792854e+04 
3.424300e-02 2.702075e+04 
3.555100e-02 2.625456e+04 
3.686000e-02 2.557924e+04 
3.795000e-02 2.507397e+04 
3.929100e-02 2.451417e+04 
4.039800e-02 2.408770e+04 
4.164000e-02 2.363610e+04 
4.294400e-02 2.317475e+04 
4.415000e-02 2.275495e+04 
4.542900e-02 2.229542e+04 
4.660900e-02 2.186565e+04 
4.782300e-02 2.139037e+04 
4.892900e-02 2.094104e+04 
5.031200e-02 2.035077e+04 
5.155900e-02 1.978917e+04 
5.238100e-02 1.940653e+04 
5.378200e-02 1.874083e+04 
5.513400e-02 1.808188e+04 
5.627600e-02 1.751921e+04 
5.735300e-02 1.699241e+04 
5.870100e-02 1.634554e+04 
5.988700e-02 1.579297e+04 
6.113500e-02 1.523344e+04 
6.225900e-02 1.475115e+04 
6.340100e-02 1.428973e+04 
6.480200e-02 1.376097e+04 
6.601100e-02 1.334088e+04 
6.725500e-02 1.294366e+04 
6.829100e-02 1.264297e+04 
6.958600e-02 1.229890e+04 
7.071100e-02 1.203031e+04 
7.192300e-02 1.176768e+04 
7.307400e-02 1.154169e+04 
7.412300e-02 1.135400e+04 
7.550400e-02 1.113274e+04 
7.663100e-02 1.096730e+04 
7.791200e-02 1.079660e+04 
7.912700e-02 1.064542e+04 
8.027600e-02 1.051050e+04 
8.138400e-02 1.038485e+04 
8.272200e-02 1.023595e+04 
8.406100e-02 1.008815e+04 
8.534100e-02 9.943416e+03 
8.653800e-02 9.804820e+03 
8.759800e-02 9.679247e+03 
8.900300e-02 9.506625e+03 
9.009000e-02 9.366832e+03 
9.113300e-02 9.227896e+03 
9.239600e-02 9.057025e+03 
9.358000e-02 8.892240e+03 
9.496100e-02 8.693374e+03 
9.608400e-02 8.530717e+03 
9.727500e-02 8.358767e+03 
9.852600e-02 8.175173e+03 
9.973800e-02 8.000606e+03 
1.009000e-01 7.836439e+03 
1.020900e-01 7.672114e+03 
1.034000e-01 7.497625e+03 
1.046000e-01 7.343663e+03 
1.057200e-01 7.207242e+03 
1.069100e-01 7.068224e+03 
1.082500e-01 6.923148e+03 
1.093900e-01 6.807643e+03 
1.105400e-01 6.696693e+03 
1.116900e-01 6.595973e+03 
1.129600e-01 6.490210e+03 
1.142000e-01 6.396127e+03 
1.153300e-01 6.315121e+03 
1.166400e-01 6.227594e+03 
1.177800e-01 6.156232e+03 
1.190000e-01 6.083059e+03 
1.201200e-01 6.019019e+03 
1.213400e-01 5.951186e+03 
1.227100e-01 5.877441e+03 
1.238900e-01 5.815173e+03 
1.250700e-01 5.752997e+03 
1.263200e-01 5.687683e+03 
1.275500e-01 5.622713e+03 
1.287500e-01 5.559595e+03 
1.299900e-01 5.493976e+03 
1.311300e-01 5.433307e+03 
1.323500e-01 5.367267e+03 
1.335900e-01 5.300207e+03 
1.347100e-01 5.239022e+03 
1.359800e-01 5.170094e+03 
1.372100e-01 5.102730e+03 
1.384300e-01 5.036666e+03 
1.395700e-01 4.974520e+03 
1.407700e-01 4.910324e+03 
1.420300e-01 4.842961e+03 
1.432800e-01 4.777603e+03 
1.444500e-01 4.717048e+03 
1.456300e-01 4.657217e+03 
1.468900e-01 4.595298e+03 
1.480500e-01 4.539652e+03 
1.491700e-01 4.487449e+03 
1.503800e-01 4.432776e+03 
1.516400e-01 4.377382e+03 
1.528200e-01 4.328197e+03 
1.540200e-01 4.279138e+03 
1.551900e-01 4.233715e+03 
1.564300e-01 4.186854e+03 
1.576600e-01 4.142228e+03 
1.588700e-01 4.100312e+03 
1.600900e-01 4.058895e+03 
1.612700e-01 4.020656e+03 
1.625400e-01 3.980260e+03 
1.637600e-01 3.942715e+03 
1.649500e-01 3.907064e+03 
1.662200e-01 3.869693e+03 
1.674000e-01 3.835531e+03 
1.685000e-01 3.804212e+03 
1.697500e-01 3.768919e+03 
1.710300e-01 3.733126e+03 
1.722200e-01 3.700435e+03 
1.734400e-01 3.666596e+03 
1.746400e-01 3.633839e+03 
1.758700e-01 3.600580e+03 
1.770900e-01 3.567636e+03 
1.782700e-01 3.536299e+03 
1.794600e-01 3.504648e+03 
1.807000e-01 3.471834e+03 
1.819100e-01 3.440344e+03 
1.830100e-01 3.411635e+03 
1.842200e-01 3.380453e+03 
1.855000e-01 3.348013e+03 
1.867000e-01 3.318114e+03 
1.879200e-01 3.288198e+03 
1.890900e-01 3.259970e+03 
1.902800e-01 3.231772e+03 
1.915200e-01 3.202849e+03 
1.926900e-01 3.176052e+03 
1.939000e-01 3.148992e+03 
1.951700e-01 3.121034e+03 
1.963100e-01 3.096409e+03 
1.975100e-01 3.071113e+03 
1.987800e-01 3.044749e+03 
2.000100e-01 3.019720e+03 
2.012500e-01 2.995128e+03 
2.023400e-01 2.973817e+03 
2.036100e-01 2.949382e+03 
2.048900e-01 2.925301e+03 
2.060400e-01 2.903978e+03 
2.072200e-01 2.882417e+03 
2.084200e-01 2.860989e+03 
2.096900e-01 2.838640e+03 
2.109200e-01 2.817308e+03 
2.121100e-01 2.797018e+03 
2.132700e-01 2.777510e+03 
2.145200e-01 2.756778e+03 
2.157200e-01 2.737226e+03 
2.168800e-01 2.718611e+03 
2.180700e-01 2.699767e+03 
2.193400e-01 2.679980e+03 
2.206000e-01 2.660710e+03 
2.217500e-01 2.643357e+03 
2.229500e-01 2.625483e+03 
2.241400e-01 2.608173e+03 
2.253500e-01 2.590806e+03 
2.264900e-01 2.574652e+03 
2.277100e-01 2.557732e+03 
2.289900e-01 2.540384e+03 
2.301500e-01 2.524865e+03 
2.313600e-01 2.508883e+03 
2.325600e-01 2.493444e+03 
2.337700e-01 2.478074e+03 
2.350000e-01 2.462648e+03 
2.362000e-01 2.447918e+03 
2.374100e-01 2.433403e+03 
2.386500e-01 2.418716e+03 
2.399100e-01 2.403983e+03 
2.410400e-01 2.391011e+03 
2.422500e-01 2.377295e+03 
2.435000e-01 2.363302e+03 
2.447300e-01 2.349746e+03 
2.458700e-01 2.337503e+03 
2.470600e-01 2.324871e+03 
2.483300e-01 2.311554e+03 
2.495600e-01 2.298830e+03 
2.507600e-01 2.286583e+03 
2.519600e-01 2.274479e+03 
2.532200e-01 2.261922e+03 
2.543700e-01 2.250560e+03 
2.555500e-01 2.239008e+03 
2.568000e-01 2.226913e+03 
2.580100e-01 2.215342e+03 
2.592400e-01 2.203648e+03 
2.604100e-01 2.192620e+03 
2.616100e-01 2.181435e+03 
2.628400e-01 2.170101e+03 
2.640600e-01 2.158833e+03 
2.652200e-01 2.148177e+03 
2.664300e-01 2.137183e+03 
2.676500e-01 2.126222e+03 
2.688400e-01 2.115535e+03 
2.700700e-01 2.104539e+03 
2.712400e-01 2.094193e+03 
2.724800e-01 2.083348e+03 
2.736700e-01 2.073006e+03 
2.748800e-01 2.062556e+03 
2.761000e-01 2.052133e+03 
2.773200e-01 2.041822e+03 
2.785400e-01 2.031559e+03 
2.797000e-01 2.021768e+03 
2.808900e-01 2.011827e+03 
2.821400e-01 2.001495e+03 
2.833900e-01 1.991275e+03 
2.845500e-01 1.981876e+03 
2.857800e-01 1.972012e+03 
2.870300e-01 1.962093e+03 
2.882100e-01 1.952827e+03 
2.893900e-01 1.943566e+03 
2.906300e-01 1.933887e+03 
2.918900e-01 1.924155e+03 
2.930500e-01 1.915287e+03 
2.942500e-01 1.906206e+03 
2.954200e-01 1.897454e+03 
2.966500e-01 1.888344e+03 
2.978900e-01 1.879254e+03 
2.990400e-01 1.870906e+03 
3.002700e-01 1.862039e+03 
3.015100e-01 1.853177e+03 
3.026800e-01 1.844897e+03 
3.038500e-01 1.836696e+03 
3.050300e-01 1.828501e+03 
3.062600e-01 1.819947e+03 
3.075000e-01 1.811408e+03 
3.087000e-01 1.803225e+03 
3.099100e-01 1.795052e+03 
3.111200e-01 1.786991e+03 
3.123100e-01 1.779197e+03 
3.135300e-01 1.771282e+03 
3.147300e-01 1.763570e+03 
3.159900e-01 1.755550e+03 
3.171800e-01 1.748029e+03 
3.183700e-01 1.740565e+03 
3.196300e-01 1.732736e+03 
3.208400e-01 1.725289e+03 
3.220300e-01 1.718032e+03 
3.232000e-01 1.710940e+03 
3.244300e-01 1.703544e+03 
3.256700e-01 1.696157e+03 
3.269200e-01 1.688781e+03 
3.280800e-01 1.681997e+03 
3.292500e-01 1.675276e+03 
3.304800e-01 1.668292e+03 
3.317100e-01 1.661372e+03 
3.328900e-01 1.654792e+03 
3.340700e-01 1.648270e+03 
3.353600e-01 1.641180e+03 
3.365300e-01 1.634798e+03 
3.377100e-01 1.628417e+03 
3.389200e-01 1.621930e+03 
3.401600e-01 1.615341e+03 
3.413700e-01 1.608981e+03 
3.425300e-01 1.602944e+03 
3.437700e-01 1.596546e+03 
3.449800e-01 1.590357e+03 
3.461800e-01 1.584272e+03 
3.473600e-01 1.578355e+03 
3.485800e-01 1.572330e+03 
3.498100e-01 1.566309e+03 
3.510200e-01 1.560436e+03 
3.522000e-01 1.554756e+03 
3.533900e-01 1.549076e+03 
3.546400e-01 1.543129e+03 
3.558400e-01 1.537467e+03 
3.570600e-01 1.531758e+03 
3.582700e-01 1.526144e+03 
3.595000e-01 1.520484e+03 
3.607100e-01 1.514973e+03 
3.618900e-01 1.509648e+03 
3.631200e-01 1.504143e+03 
3.643200e-01 1.498817e+03 
3.655500e-01 1.493403e+03 
3.667300e-01 1.488251e+03 
3.679500e-01 1.483016e+03 
3.691900e-01 1.477740e+03 
3.703600e-01 1.472801e+03 
3.715700e-01 1.467734e+03 
3.727700e-01 1.462750e+03 
3.739900e-01 1.457713e+03 
3.752000e-01 1.452739e+03 
3.763900e-01 1.447887e+03 
3.775800e-01 1.443072e+03 
3.788200e-01 1.438095e+03 
3.800300e-01 1.433277e+03 
3.812100e-01 1.428605e+03 
3.824200e-01 1.423845e+03 
3.836100e-01 1.419200e+03 
3.848600e-01 1.414359e+03 
3.860400e-01 1.409824e+03 
3.872400e-01 1.405248e+03 
3.884600e-01 1.400620e+03 
3.896500e-01 1.396135e+03 
3.908700e-01 1.391572e+03 
3.920600e-01 1.387156e+03 
3.933100e-01 1.382552e+03 
3.945300e-01 1.378094e+03 
3.957200e-01 1.373779e+03 
3.969300e-01 1.369424e+03 
3.981700e-01 1.364996e+03 
3.993500e-01 1.360814e+03 
4.094840e-01 1.326067e+03 
4.272360e-01 1.269557e+03 
4.454600e-01 1.216676e+03 
4.630560e-01 1.169648e+03 
4.804610e-01 1.126660e+03 
4.980690e-01 1.086389e+03 
5.159230e-01 1.048382e+03 
5.317440e-01 1.017058e+03 
5.489640e-01 9.849651e+02 
5.671990e-01 9.533292e+02 
5.838690e-01 9.261588e+02 
6.018840e-01 8.986172e+02 
6.202330e-01 8.722498e+02 
6.379250e-01 8.482235e+02 
6.545410e-01 8.269362e+02 
6.714560e-01 8.063247e+02 
6.892080e-01 7.857153e+02 
7.066010e-01 7.664796e+02 
7.240540e-01 7.481022e+02 
7.420450e-01 7.299248e+02 
7.593780e-01 7.131568e+02 
7.764720e-01 6.973162e+02 
7.942840e-01 6.814451e+02 
8.116170e-01 6.664979e+02 
8.288310e-01 6.521361e+02 
8.462240e-01 6.381456e+02 
8.631980e-01 6.249883e+02 
8.810700e-01 6.115887e+02 
8.989410e-01 5.985781e+02 
9.166330e-01 5.861059e+02 
9.345640e-01 5.738192e+02 
9.515980e-01 5.625248e+02 
9.688720e-01 5.514033e+02 
9.865640e-01 5.402990e+02 
1.031870e+00 5.132489e+02 
1.063490e+00 4.954178e+02 
1.097920e+00 4.770163e+02 
1.134370e+00 4.585521e+02 
1.167730e+00 4.424806e+02 
1.203830e+00 4.259125e+02 
1.240470e+00 4.100223e+02 
1.275790e+00 3.953751e+02 
1.309140e+00 3.822423e+02 
1.342970e+00 3.694950e+02 
1.378420e+00 3.567910e+02 
1.413200e+00 3.448770e+02 
1.448110e+00 3.334601e+02 
1.484090e+00 3.222431e+02 
1.518820e+00 3.119469e+02 
1.552880e+00 3.022141e+02 
1.588630e+00 2.924893e+02 
1.623230e+00 2.834777e+02 
1.657720e+00 2.748892e+02 
1.692450e+00 2.666295e+02 
1.726400e+00 2.588167e+02 
1.762200e+00 2.509576e+02 
1.797880e+00 2.434542e+02 
1.833270e+00 2.363297e+02 
1.869070e+00 2.294209e+02 
1.903200e+00 2.230772e+02 
1.937740e+00 2.169105e+02 
1.973190e+00 2.108469e+02 
2.007440e+00 2.052076e+02 
2.042160e+00 1.997005e+02 
2.077900e+00 1.942420e+02 
2.112390e+00 1.891780e+02 
2.146220e+00 1.843984e+02 
2.181600e+00 1.795626e+02 
2.216930e+00 1.749220e+02 
2.250760e+00 1.706381e+02 
2.286500e+00 1.662679e+02 
2.321770e+00 1.621053e+02 
2.355950e+00 1.582056e+02 
2.391280e+00 1.543261e+02 
2.426240e+00 1.506222e+02 
2.460670e+00 1.470932e+02 
2.495640e+00 1.436210e+02 
2.531080e+00 1.402203e+02 
2.566220e+00 1.369559e+02 
2.600830e+00 1.338428e+02 
2.635080e+00 1.308584e+02 
2.670340e+00 1.278924e+02 
2.705970e+00 1.249932e+02 
2.740040e+00 1.223069e+02 
2.774520e+00 1.196619e+02 
2.809730e+00 1.170541e+02 
2.844390e+00 1.145690e+02 
2.879960e+00 1.120918e+02 
2.914860e+00 1.097318e+02 
2.949410e+00 1.074645e+02 
2.984440e+00 1.052324e+02 
3.019760e+00 1.030427e+02 
3.054730e+00 1.009361e+02 
3.089030e+00 9.893817e+01 
3.124060e+00 9.695450e+01 
3.159560e+00 9.499937e+01 
3.194710e+00 9.312483e+01 
3.229010e+00 9.134758e+01 
3.263320e+00 8.960284e+01 
3.297930e+00 8.789355e+01 
3.332830e+00 8.622188e+01 
3.368040e+00 8.458362e+01 
3.403300e+00 8.298928e+01 
3.438450e+00 8.143928e+01 
3.473060e+00 7.995279e+01 
3.508440e+00 7.847230e+01 
3.543110e+00 7.705905e+01 
3.577470e+00 7.569159e+01 
3.613040e+00 7.431369e+01 
3.648120e+00 7.299349e+01 
3.682910e+00 7.171534e+01 
3.718050e+00 7.045307e+01 
3.753320e+00 6.922072e+01 
3.787980e+00 6.804377e+01 
3.822290e+00 6.690490e+01 
3.857020e+00 6.577686e+01 
3.891920e+00 6.467193e+01 
3.926650e+00 6.360123e+01 
3.961970e+00 6.253739e+01 
3.997360e+00 6.149509e+01 
4.031670e+00 6.050878e+01 
4.066330e+00 5.953855e+01 
4.101420e+00 5.857856e+01 
4.136200e+00 5.764646e+01 
4.170810e+00 5.673962e+01 
4.206250e+00 5.583168e+01 
4.241580e+00 5.494683e+01 
4.276300e+00 5.410030e+01 
4.310970e+00 5.327543e+01 
4.346120e+00 5.245569e+01 
4.380600e+00 5.166628e+01 
4.414730e+00 5.090140e+01 
4.450350e+00 5.012559e+01 
4.485320e+00 4.938005e+01 
4.519810e+00 4.865761e+01 
4.555430e+00 4.792593e+01 
4.590870e+00 4.721509e+01 
4.625480e+00 4.653909e+01 
4.659910e+00 4.588003e+01 
4.695230e+00 4.521653e+01 
4.729960e+00 4.457701e+01 
4.764450e+00 4.395496e+01 
4.799530e+00 4.333563e+01 
4.834910e+00 4.272330e+01 
4.869700e+00 4.213368e+01 
4.904370e+00 4.155747e+01 
4.939450e+00 4.098603e+01 
4.973940e+00 4.043596e+01 
5.008430e+00 3.989615e+01 
5.043810e+00 3.935361e+01 
5.078840e+00 3.882699e+01 
5.113500e+00 3.831557e+01 
5.148890e+00 3.780377e+01 
5.184210e+00 3.730246e+01 
5.219060e+00 3.681697e+01 
5.253660e+00 3.634396e+01 
5.288570e+00 3.587523e+01 
5.323420e+00 3.541691e+01 
5.358440e+00 3.496595e+01 
5.393590e+00 3.452131e+01 
5.428310e+00 3.408926e+01 
5.462800e+00 3.366720e+01 
5.497640e+00 3.324818e+01 
5.532670e+00 3.283594e+01 
5.567280e+00 3.243616e+01 
5.602000e+00 3.204187e+01 
5.637270e+00 3.164831e+01 
5.672410e+00 3.126287e+01 
5.707020e+00 3.088958e+01 
5.742040e+00 3.051860e+01 
5.777430e+00 3.015003e+01 
5.812210e+00 2.979379e+01 
5.846820e+00 2.944563e+01 
5.881610e+00 2.910146e+01 
5.916510e+00 2.876176e+01 
5.951600e+00 2.842669e+01 
5.986560e+00 2.809865e+01 
6.021830e+00 2.777298e+01 
6.056490e+00 2.745792e+01 
6.091160e+00 2.714759e+01 
6.125830e+00 2.684208e+01 
6.161090e+00 2.653640e+01 
6.195760e+00 2.624092e+01 
6.230420e+00 2.595002e+01 
6.265690e+00 2.565858e+01 
6.300950e+00 2.537290e+01 
6.335620e+00 2.509625e+01 
6.370880e+00 2.481913e+01 
6.405550e+00 2.455057e+01 
6.440220e+00 2.428593e+01 
6.475480e+00 2.402077e+01 
6.510150e+00 2.376423e+01 
6.544810e+00 2.351223e+01 
6.580080e+00 2.325954e+01 
6.614750e+00 2.301476e+01 
6.649410e+00 2.277404e+01 
6.684080e+00 2.253679e+01 
6.719340e+00 2.229896e+01 
6.754010e+00 2.206838e+01 
6.788680e+00 2.184092e+01 
6.823940e+00 2.161285e+01 
6.859800e+00 2.138423e+01 
6.894470e+00 2.116697e+01 
6.929140e+00 2.095294e+01 
6.963800e+00 2.074192e+01 
6.999070e+00 2.053012e+01 
7.033730e+00 2.032437e+01 
7.068400e+00 2.012136e+01 
7.103660e+00 1.991770e+01 
7.138330e+00 1.972054e+01 
7.173600e+00 1.952344e+01 
7.208260e+00 1.933234e+01 
7.243530e+00 1.914048e+01 
7.277600e+00 1.895722e+01 
7.312860e+00 1.876970e+01 
7.348120e+00 1.858469e+01 
7.382790e+00 1.840516e+01 
7.417460e+00 1.822861e+01 
7.452720e+00 1.805173e+01 
7.487390e+00 1.788007e+01 
7.522650e+00 1.770775e+01 
7.557320e+00 1.754076e+01 
7.591990e+00 1.737599e+01 
7.627250e+00 1.721057e+01 
7.662510e+00 1.704726e+01 
7.697180e+00 1.688816e+01 
7.731850e+00 1.673084e+01 
7.766510e+00 1.657554e+01 
7.801180e+00 1.642212e+01 
7.836440e+00 1.626866e+01 
7.871110e+00 1.612002e+01 
7.906380e+00 1.597069e+01 
7.941040e+00 1.582574e+01 
7.976310e+00 1.568003e+01 
8.011570e+00 1.553611e+01 
8.046240e+00 1.539633e+01 
8.080900e+00 1.525827e+01 
8.115570e+00 1.512179e+01 
8.150830e+00 1.498454e+01 
8.185500e+00 1.485120e+01 
8.220770e+00 1.471718e+01 
8.255430e+00 1.458705e+01 
8.290100e+00 1.445878e+01 
8.324770e+00 1.433206e+01 
8.359430e+00 1.420685e+01 
8.394700e+00 1.408094e+01 
8.429960e+00 1.395650e+01 
8.464630e+00 1.383552e+01 
8.499890e+00 1.371391e+01 
8.534560e+00 1.359572e+01 
8.569200e+00 1.347899e+01 
