# Parameters:
# omega_b = 0.021988, omega_m = 0.129094, n_s = 1.005906, h = 56.181102, w = -1.000000, sigma_8 = 0.893701
# z = 0.300000
#
# k[1/Mpc] # P(k):
8.694000e-04 1.847462e+04 
2.077466e-03 4.046706e+04 
3.285532e-03 5.790642e+04 
4.493598e-03 7.135405e+04 
5.701664e-03 8.132517e+04 
6.909730e-03 8.834208e+04 
8.117797e-03 9.302650e+04 
9.325863e-03 9.570036e+04 
1.053393e-02 9.669890e+04 
1.174199e-02 9.634030e+04 
1.295006e-02 9.482546e+04 
1.415813e-02 9.242959e+04 
1.536619e-02 8.939469e+04 
1.657426e-02 8.584807e+04 
1.778233e-02 8.188829e+04 
1.899039e-02 7.799757e+04 
2.019846e-02 7.441909e+04 
2.140652e-02 7.100874e+04 
2.261459e-02 6.769267e+04 
2.382266e-02 6.452743e+04 
2.503072e-02 6.156352e+04 
2.623879e-02 5.881465e+04 
2.744685e-02 5.628565e+04 
2.865492e-02 5.398085e+04 
2.986299e-02 5.188993e+04 
3.100100e-02 5.010689e+04 
3.220400e-02 4.840239e+04 
3.288100e-02 4.751997e+04 
3.424300e-02 4.589103e+04 
3.555100e-02 4.448181e+04 
3.686000e-02 4.320096e+04 
3.795000e-02 4.221372e+04 
3.929100e-02 4.107870e+04 
4.039800e-02 4.019002e+04 
4.164000e-02 3.923280e+04 
4.294400e-02 3.824690e+04 
4.415000e-02 3.735641e+04 
4.542900e-02 3.640750e+04 
4.660900e-02 3.554357e+04 
4.782300e-02 3.463569e+04 
4.892900e-02 3.380933e+04 
5.031200e-02 3.277262e+04 
5.155900e-02 3.183353e+04 
5.238100e-02 3.121460e+04 
5.378200e-02 3.016985e+04 
5.513400e-02 2.917046e+04 
5.627600e-02 2.833713e+04 
5.735300e-02 2.756797e+04 
5.870100e-02 2.663318e+04 
5.988700e-02 2.583710e+04 
6.113500e-02 2.502956e+04 
6.225900e-02 2.432824e+04 
6.340100e-02 2.364995e+04 
6.480200e-02 2.286100e+04 
6.601100e-02 2.221931e+04 
6.725500e-02 2.159798e+04 
6.829100e-02 2.111424e+04 
6.958600e-02 2.054871e+04 
7.071100e-02 2.009409e+04 
7.192300e-02 1.963843e+04 
7.307400e-02 1.923691e+04 
7.412300e-02 1.889663e+04 
7.550400e-02 1.848651e+04 
7.663100e-02 1.817566e+04 
7.791200e-02 1.785092e+04 
7.912700e-02 1.756266e+04 
8.027600e-02 1.730589e+04 
8.138400e-02 1.706819e+04 
8.272200e-02 1.678949e+04 
8.406100e-02 1.651625e+04 
8.534100e-02 1.625297e+04 
8.653800e-02 1.600399e+04 
8.759800e-02 1.578040e+04 
8.900300e-02 1.547627e+04 
9.009000e-02 1.523275e+04 
9.113300e-02 1.499353e+04 
9.239600e-02 1.470210e+04 
9.358000e-02 1.442489e+04 
9.496100e-02 1.409721e+04 
9.608400e-02 1.383357e+04 
9.727500e-02 1.355836e+04 
9.852600e-02 1.327432e+04 
9.973800e-02 1.300840e+04 
1.009000e-01 1.276167e+04 
1.020900e-01 1.252270e+04 
1.034000e-01 1.227160e+04 
1.046000e-01 1.205278e+04 
1.057200e-01 1.186159e+04 
1.069100e-01 1.166712e+04 
1.082500e-01 1.146468e+04 
1.093900e-01 1.130197e+04 
1.105400e-01 1.114476e+04 
1.116900e-01 1.099805e+04 
1.129600e-01 1.084211e+04 
1.142000e-01 1.069766e+04 
1.153300e-01 1.057042e+04 
1.166400e-01 1.042837e+04 
1.177800e-01 1.030790e+04 
1.190000e-01 1.018210e+04 
1.201200e-01 1.006735e+04 
1.213400e-01 9.944936e+03 
1.227100e-01 9.807663e+03 
1.238900e-01 9.691422e+03 
1.250700e-01 9.574575e+03 
1.263200e-01 9.452289e+03 
1.275500e-01 9.331665e+03 
1.287500e-01 9.215790e+03 
1.299900e-01 9.097360e+03 
1.311300e-01 8.989848e+03 
1.323500e-01 8.875719e+03 
1.335900e-01 8.762160e+03 
1.347100e-01 8.661552e+03 
1.359800e-01 8.550114e+03 
1.372100e-01 8.444956e+03 
1.384300e-01 8.343203e+03 
1.395700e-01 8.250764e+03 
1.407700e-01 8.155591e+03 
1.420300e-01 8.059262e+03 
1.432800e-01 7.965752e+03 
1.444500e-01 7.881226e+03 
1.456300e-01 7.797664e+03 
1.468900e-01 7.711424e+03 
1.480500e-01 7.633965e+03 
1.491700e-01 7.560767e+03 
1.503800e-01 7.483429e+03 
1.516400e-01 7.404578e+03 
1.528200e-01 7.332515e+03 
1.540200e-01 7.260616e+03 
1.551900e-01 7.191368e+03 
1.564300e-01 7.119248e+03 
1.576600e-01 7.049081e+03 
1.588700e-01 6.981350e+03 
1.600900e-01 6.914275e+03 
1.612700e-01 6.849600e+03 
1.625400e-01 6.781276e+03 
1.637600e-01 6.716696e+03 
1.649500e-01 6.654732e+03 
1.662200e-01 6.589719e+03 
1.674000e-01 6.529941e+03 
1.685000e-01 6.475140e+03 
1.697500e-01 6.413783e+03 
1.710300e-01 6.351954e+03 
1.722200e-01 6.295483e+03 
1.734400e-01 6.238564e+03 
1.746400e-01 6.183527e+03 
1.758700e-01 6.128255e+03 
1.770900e-01 6.074740e+03 
1.782700e-01 6.023833e+03 
1.794600e-01 5.973440e+03 
1.807000e-01 5.921872e+03 
1.819100e-01 5.872381e+03 
1.830100e-01 5.828309e+03 
1.842200e-01 5.780611e+03 
1.855000e-01 5.731020e+03 
1.867000e-01 5.686161e+03 
1.879200e-01 5.641273e+03 
1.890900e-01 5.598967e+03 
1.902800e-01 5.556992e+03 
1.915200e-01 5.513932e+03 
1.926900e-01 5.474023e+03 
1.939000e-01 5.433690e+03 
1.951700e-01 5.392015e+03 
1.963100e-01 5.355216e+03 
1.975100e-01 5.317171e+03 
1.987800e-01 5.277519e+03 
2.000100e-01 5.239723e+03 
2.012500e-01 5.202238e+03 
2.023400e-01 5.169752e+03 
2.036100e-01 5.132375e+03 
2.048900e-01 5.095028e+03 
2.060400e-01 5.061959e+03 
2.072200e-01 5.028471e+03 
2.084200e-01 4.994596e+03 
2.096900e-01 4.959262e+03 
2.109200e-01 4.925538e+03 
2.121100e-01 4.892802e+03 
2.132700e-01 4.861292e+03 
2.145200e-01 4.827805e+03 
2.157200e-01 4.795669e+03 
2.168800e-01 4.764816e+03 
2.180700e-01 4.733583e+03 
2.193400e-01 4.700415e+03 
2.206000e-01 4.667423e+03 
2.217500e-01 4.637712e+03 
2.229500e-01 4.607109e+03 
2.241400e-01 4.576308e+03 
2.253500e-01 4.545375e+03 
2.264900e-01 4.516602e+03 
2.277100e-01 4.485782e+03 
2.289900e-01 4.453413e+03 
2.301500e-01 4.424460e+03 
2.313600e-01 4.394628e+03 
2.325600e-01 4.364376e+03 
2.337700e-01 4.334258e+03 
2.350000e-01 4.304032e+03 
2.362000e-01 4.274586e+03 
2.374100e-01 4.244873e+03 
2.386500e-01 4.214808e+03 
2.399100e-01 4.184650e+03 
2.410400e-01 4.157392e+03 
2.422500e-01 4.128484e+03 
2.435000e-01 4.098992e+03 
2.447300e-01 4.070352e+03 
2.458700e-01 4.044192e+03 
2.470600e-01 4.017202e+03 
2.483300e-01 3.988749e+03 
2.495600e-01 3.961677e+03 
2.507600e-01 3.935779e+03 
2.519600e-01 3.910184e+03 
2.532200e-01 3.883631e+03 
2.543700e-01 3.860047e+03 
2.555500e-01 3.836369e+03 
2.568000e-01 3.811578e+03 
2.580100e-01 3.787861e+03 
2.592400e-01 3.764637e+03 
2.604100e-01 3.743063e+03 
2.616100e-01 3.721181e+03 
2.628400e-01 3.699005e+03 
2.640600e-01 3.677800e+03 
2.652200e-01 3.658073e+03 
2.664300e-01 3.637720e+03 
2.676500e-01 3.617426e+03 
2.688400e-01 3.598288e+03 
2.700700e-01 3.578998e+03 
2.712400e-01 3.560848e+03 
2.724800e-01 3.541820e+03 
2.736700e-01 3.524088e+03 
2.748800e-01 3.506588e+03 
2.761000e-01 3.489135e+03 
2.773200e-01 3.471870e+03 
2.785400e-01 3.454869e+03 
2.797000e-01 3.439035e+03 
2.808900e-01 3.422959e+03 
2.821400e-01 3.406252e+03 
2.833900e-01 3.389742e+03 
2.845500e-01 3.374908e+03 
2.857800e-01 3.359341e+03 
2.870300e-01 3.343690e+03 
2.882100e-01 3.329069e+03 
2.893900e-01 3.314585e+03 
2.906300e-01 3.299517e+03 
2.918900e-01 3.284367e+03 
2.930500e-01 3.270562e+03 
2.942500e-01 3.256455e+03 
2.954200e-01 3.242940e+03 
2.966500e-01 3.228873e+03 
2.978900e-01 3.214839e+03 
2.990400e-01 3.201951e+03 
3.002700e-01 3.188294e+03 
3.015100e-01 3.174661e+03 
3.026800e-01 3.161925e+03 
3.038500e-01 3.149311e+03 
3.050300e-01 3.136708e+03 
3.062600e-01 3.123552e+03 
3.075000e-01 3.110422e+03 
3.087000e-01 3.097840e+03 
3.099100e-01 3.085275e+03 
3.111200e-01 3.072893e+03 
3.123100e-01 3.060938e+03 
3.135300e-01 3.048798e+03 
3.147300e-01 3.036972e+03 
3.159900e-01 3.024674e+03 
3.171800e-01 3.013140e+03 
3.183700e-01 3.001691e+03 
3.196300e-01 2.989685e+03 
3.208400e-01 2.978266e+03 
3.220300e-01 2.967140e+03 
3.232000e-01 2.956261e+03 
3.244300e-01 2.944914e+03 
3.256700e-01 2.933583e+03 
3.269200e-01 2.922269e+03 
3.280800e-01 2.911866e+03 
3.292500e-01 2.901569e+03 
3.304800e-01 2.890876e+03 
3.317100e-01 2.880281e+03 
3.328900e-01 2.870210e+03 
3.340700e-01 2.860227e+03 
3.353600e-01 2.849366e+03 
3.365300e-01 2.839587e+03 
3.377100e-01 2.829810e+03 
3.389200e-01 2.819874e+03 
3.401600e-01 2.809782e+03 
3.413700e-01 2.800039e+03 
3.425300e-01 2.790789e+03 
3.437700e-01 2.780989e+03 
3.449800e-01 2.771511e+03 
3.461800e-01 2.762193e+03 
3.473600e-01 2.753126e+03 
3.485800e-01 2.743871e+03 
3.498100e-01 2.734624e+03 
3.510200e-01 2.725606e+03 
3.522000e-01 2.716887e+03 
3.533900e-01 2.708169e+03 
3.546400e-01 2.699029e+03 
3.558400e-01 2.690326e+03 
3.570600e-01 2.681555e+03 
3.582700e-01 2.672930e+03 
3.595000e-01 2.664237e+03 
3.607100e-01 2.655757e+03 
3.618900e-01 2.647556e+03 
3.631200e-01 2.639079e+03 
3.643200e-01 2.630878e+03 
3.655500e-01 2.622543e+03 
3.667300e-01 2.614614e+03 
3.679500e-01 2.606510e+03 
3.691900e-01 2.598343e+03 
3.703600e-01 2.590701e+03 
3.715700e-01 2.582861e+03 
3.727700e-01 2.575151e+03 
3.739900e-01 2.567356e+03 
3.752000e-01 2.559651e+03 
3.763900e-01 2.552136e+03 
3.775800e-01 2.544681e+03 
3.788200e-01 2.536975e+03 
3.800300e-01 2.529518e+03 
3.812100e-01 2.522252e+03 
3.824200e-01 2.514825e+03 
3.836100e-01 2.507579e+03 
3.848600e-01 2.500028e+03 
3.860400e-01 2.492958e+03 
3.872400e-01 2.485824e+03 
3.884600e-01 2.478565e+03 
3.896500e-01 2.471517e+03 
3.908700e-01 2.464348e+03 
3.920600e-01 2.457410e+03 
3.933100e-01 2.450179e+03 
3.945300e-01 2.443178e+03 
3.957200e-01 2.436388e+03 
3.969300e-01 2.429532e+03 
3.981700e-01 2.422561e+03 
3.993500e-01 2.415979e+03 
4.094840e-01 2.361007e+03 
4.272360e-01 2.270598e+03 
4.454600e-01 2.184959e+03 
4.630560e-01 2.107989e+03 
4.804610e-01 2.036961e+03 
4.980690e-01 1.969982e+03 
5.159230e-01 1.906338e+03 
5.317440e-01 1.853616e+03 
5.489640e-01 1.799236e+03 
5.671990e-01 1.745291e+03 
5.838690e-01 1.698628e+03 
6.018840e-01 1.650993e+03 
6.202330e-01 1.604901e+03 
6.379250e-01 1.562592e+03 
6.545410e-01 1.524659e+03 
6.714560e-01 1.487622e+03 
6.892080e-01 1.450164e+03 
7.066010e-01 1.414790e+03 
7.240540e-01 1.380719e+03 
7.420450e-01 1.346561e+03 
7.593780e-01 1.314768e+03 
7.764720e-01 1.284474e+03 
7.942840e-01 1.253851e+03 
8.116170e-01 1.224727e+03 
8.288310e-01 1.196548e+03 
8.462240e-01 1.168935e+03 
8.631980e-01 1.142772e+03 
8.810700e-01 1.115973e+03 
8.989410e-01 1.089853e+03 
9.166330e-01 1.064708e+03 
9.345640e-01 1.039865e+03 
9.515980e-01 1.016956e+03 
9.688720e-01 9.943360e+02 
9.865640e-01 9.717107e+02 
1.031870e+00 9.165447e+02 
1.063490e+00 8.801721e+02 
1.097920e+00 8.426182e+02 
1.134370e+00 8.050795e+02 
1.167730e+00 7.725061e+02 
1.203830e+00 7.390635e+02 
1.240470e+00 7.071418e+02 
1.275790e+00 6.778782e+02 
1.309140e+00 6.517819e+02 
1.342970e+00 6.266048e+02 
1.378420e+00 6.016501e+02 
1.413200e+00 5.783971e+02 
1.448110e+00 5.562535e+02 
1.484090e+00 5.346399e+02 
1.518820e+00 5.149094e+02 
1.552880e+00 4.964017e+02 
1.588630e+00 4.780160e+02 
1.623230e+00 4.610794e+02 
1.657720e+00 4.450273e+02 
1.692450e+00 4.296845e+02 
1.726400e+00 4.152751e+02 
1.762200e+00 4.008602e+02 
1.797880e+00 3.871835e+02 
1.833270e+00 3.742585e+02 
1.869070e+00 3.618010e+02 
1.903200e+00 3.504314e+02 
1.937740e+00 3.394327e+02 
1.973190e+00 3.286768e+02 
2.007440e+00 3.187262e+02 
2.042160e+00 3.090576e+02 
2.077900e+00 2.995231e+02 
2.112390e+00 2.907201e+02 
2.146220e+00 2.824535e+02 
2.181600e+00 2.741309e+02 
2.216930e+00 2.661805e+02 
2.250760e+00 2.588729e+02 
2.286500e+00 2.514511e+02 
2.321770e+00 2.444136e+02 
2.355950e+00 2.378486e+02 
2.391280e+00 2.313476e+02 
2.426240e+00 2.251653e+02 
2.460670e+00 2.192977e+02 
2.495640e+00 2.135470e+02 
2.531080e+00 2.079402e+02 
2.566220e+00 2.025791e+02 
2.600830e+00 1.974846e+02 
2.635080e+00 1.926173e+02 
2.670340e+00 1.878011e+02 
2.705970e+00 1.831088e+02 
2.740040e+00 1.787747e+02 
2.774520e+00 1.745238e+02 
2.809730e+00 1.703464e+02 
2.844390e+00 1.663762e+02 
2.879960e+00 1.624330e+02 
2.914860e+00 1.586904e+02 
2.949410e+00 1.551040e+02 
2.984440e+00 1.515853e+02 
3.019760e+00 1.481444e+02 
3.054730e+00 1.448421e+02 
3.089030e+00 1.417219e+02 
3.124060e+00 1.386309e+02 
3.159560e+00 1.355931e+02 
3.194710e+00 1.326887e+02 
3.229010e+00 1.299399e+02 
3.263320e+00 1.272531e+02 
3.297930e+00 1.246255e+02 
3.332830e+00 1.220624e+02 
3.368040e+00 1.195565e+02 
3.403300e+00 1.171228e+02 
3.438450e+00 1.147643e+02 
3.473060e+00 1.125057e+02 
3.508440e+00 1.102640e+02 
3.543110e+00 1.081268e+02 
3.577470e+00 1.060657e+02 
3.613040e+00 1.039918e+02 
3.648120e+00 1.020095e+02 
3.682910e+00 1.000936e+02 
3.718050e+00 9.820629e+01 
3.753320e+00 9.636668e+01 
3.787980e+00 9.461330e+01 
3.822290e+00 9.291964e+01 
3.857020e+00 9.124596e+01 
3.891920e+00 8.960892e+01 
3.926650e+00 8.802585e+01 
3.961970e+00 8.645508e+01 
3.997360e+00 8.491975e+01 
4.031670e+00 8.346837e+01 
4.066330e+00 8.204382e+01 
4.101420e+00 8.063531e+01 
4.136200e+00 7.927147e+01 
4.170810e+00 7.794540e+01 
4.206250e+00 7.662110e+01 
4.241580e+00 7.533172e+01 
4.276300e+00 7.409998e+01 
4.310970e+00 7.290103e+01 
4.346120e+00 7.171121e+01 
4.380600e+00 7.056772e+01 
4.414730e+00 6.946041e+01 
4.450350e+00 6.833951e+01 
4.485320e+00 6.726294e+01 
4.519810e+00 6.622169e+01 
4.555430e+00 6.516830e+01 
4.590870e+00 6.414587e+01 
4.625480e+00 6.317483e+01 
4.659910e+00 6.222861e+01 
4.695230e+00 6.127790e+01 
4.729960e+00 6.036224e+01 
4.764450e+00 5.947247e+01 
4.799530e+00 5.858778e+01 
4.834910e+00 5.771354e+01 
4.869700e+00 5.687317e+01 
4.904370e+00 5.605248e+01 
4.939450e+00 5.523920e+01 
4.973940e+00 5.445734e+01 
5.008430e+00 5.369041e+01 
5.043810e+00 5.292054e+01 
5.078840e+00 5.217393e+01 
5.113500e+00 5.144919e+01 
5.148890e+00 5.072500e+01 
5.184210e+00 5.001602e+01 
5.219060e+00 4.932990e+01 
5.253660e+00 4.866222e+01 
5.288570e+00 4.800089e+01 
5.323420e+00 4.735475e+01 
5.358440e+00 4.671947e+01 
5.393590e+00 4.609338e+01 
5.428310e+00 4.548575e+01 
5.462800e+00 4.489265e+01 
5.497640e+00 4.430407e+01 
5.532670e+00 4.372555e+01 
5.567280e+00 4.316483e+01 
5.602000e+00 4.261204e+01 
5.637270e+00 4.206081e+01 
5.672410e+00 4.152128e+01 
5.707020e+00 4.099895e+01 
5.742040e+00 4.048039e+01 
5.777430e+00 3.996548e+01 
5.812210e+00 3.946800e+01 
5.846820e+00 3.898222e+01 
5.881610e+00 3.850224e+01 
5.916510e+00 3.802870e+01 
5.951600e+00 3.756198e+01 
5.986560e+00 3.710530e+01 
6.021830e+00 3.665210e+01 
6.056490e+00 3.621398e+01 
6.091160e+00 3.578276e+01 
6.125830e+00 3.535838e+01 
6.161090e+00 3.493401e+01 
6.195760e+00 3.452408e+01 
6.230420e+00 3.412068e+01 
6.265690e+00 3.371670e+01 
6.300950e+00 3.332103e+01 
6.335620e+00 3.293802e+01 
6.370880e+00 3.255451e+01 
6.405550e+00 3.218311e+01 
6.440220e+00 3.181732e+01 
6.475480e+00 3.145097e+01 
6.510150e+00 3.109669e+01 
6.544810e+00 3.074890e+01 
6.580080e+00 3.040030e+01 
6.614750e+00 3.006274e+01 
6.649410e+00 2.973104e+01 
6.684080e+00 2.940425e+01 
6.719340e+00 2.907678e+01 
6.754010e+00 2.875948e+01 
6.788680e+00 2.844668e+01 
6.823940e+00 2.813317e+01 
6.859800e+00 2.781902e+01 
6.894470e+00 2.752068e+01 
6.929140e+00 2.722694e+01 
6.963800e+00 2.693743e+01 
6.999070e+00 2.664697e+01 
7.033730e+00 2.636504e+01 
7.068400e+00 2.608697e+01 
7.103660e+00 2.580813e+01 
7.138330e+00 2.553830e+01 
7.173600e+00 2.526871e+01 
7.208260e+00 2.500745e+01 
7.243530e+00 2.474523e+01 
7.277600e+00 2.449497e+01 
7.312860e+00 2.423909e+01 
7.348120e+00 2.398673e+01 
7.382790e+00 2.374195e+01 
7.417460e+00 2.350134e+01 
7.452720e+00 2.326038e+01 
7.487390e+00 2.302661e+01 
7.522650e+00 2.279203e+01 
7.557320e+00 2.256489e+01 
7.591990e+00 2.234088e+01 
7.627250e+00 2.211606e+01 
7.662510e+00 2.189419e+01 
7.697180e+00 2.167827e+01 
7.731850e+00 2.146489e+01 
7.766510e+00 2.125432e+01 
7.801180e+00 2.104638e+01 
7.836440e+00 2.083850e+01 
7.871110e+00 2.063725e+01 
7.906380e+00 2.043513e+01 
7.941040e+00 2.023901e+01 
7.976310e+00 2.004200e+01 
8.011570e+00 1.984756e+01 
8.046240e+00 1.965877e+01 
8.080900e+00 1.947238e+01 
8.115570e+00 1.928822e+01 
8.150830e+00 1.910324e+01 
8.185500e+00 1.892359e+01 
8.220770e+00 1.874309e+01 
8.255430e+00 1.856789e+01 
8.290100e+00 1.839532e+01 
8.324770e+00 1.822491e+01 
8.359430e+00 1.805659e+01 
8.394700e+00 1.788738e+01 
8.429960e+00 1.772029e+01 
8.464630e+00 1.755799e+01 
8.499890e+00 1.739490e+01 
8.534560e+00 1.723646e+01 
8.569200e+00 1.708001e+01 
