# Parameters:
# omega_b = 0.022902, omega_m = 0.152795, n_s = 0.901969, h = 80.039370, w = -1.000000, sigma_8 = 0.753543
# z = 0.300000
#
# k[1/Mpc] # P(k):
8.694000e-04 8.936048e+03 
2.077466e-03 1.818312e+04 
3.285532e-03 2.522155e+04 
4.493598e-03 3.058293e+04 
5.701664e-03 3.454083e+04 
6.909730e-03 3.734754e+04 
8.117797e-03 3.926822e+04 
9.325863e-03 4.043735e+04 
1.053393e-02 4.098202e+04 
1.174199e-02 4.101467e+04 
1.295006e-02 4.061112e+04 
1.415813e-02 3.987081e+04 
1.536619e-02 3.887404e+04 
1.657426e-02 3.769467e+04 
1.778233e-02 3.640423e+04 
1.899039e-02 3.496499e+04 
2.019846e-02 3.335962e+04 
2.140652e-02 3.172929e+04 
2.261459e-02 3.014795e+04 
2.382266e-02 2.864380e+04 
2.503072e-02 2.723526e+04 
2.623879e-02 2.592899e+04 
2.744685e-02 2.472739e+04 
2.865492e-02 2.363465e+04 
2.986299e-02 2.264756e+04 
3.100100e-02 2.181257e+04 
3.220400e-02 2.102393e+04 
3.288100e-02 2.062252e+04 
3.424300e-02 1.989615e+04 
3.555100e-02 1.928807e+04 
3.686000e-02 1.875748e+04 
3.795000e-02 1.836454e+04 
3.929100e-02 1.793535e+04 
4.039800e-02 1.761247e+04 
4.164000e-02 1.727402e+04 
4.294400e-02 1.693174e+04 
4.415000e-02 1.662117e+04 
4.542900e-02 1.628061e+04 
4.660900e-02 1.596056e+04 
4.782300e-02 1.560284e+04 
4.892900e-02 1.526179e+04 
5.031200e-02 1.480910e+04 
5.155900e-02 1.437374e+04 
5.238100e-02 1.407513e+04 
5.378200e-02 1.355269e+04 
5.513400e-02 1.303278e+04 
5.627600e-02 1.258774e+04 
5.735300e-02 1.217084e+04 
5.870100e-02 1.165945e+04 
5.988700e-02 1.122409e+04 
6.113500e-02 1.078526e+04 
6.225900e-02 1.040938e+04 
6.340100e-02 1.005215e+04 
6.480200e-02 9.646016e+03 
6.601100e-02 9.326995e+03 
6.725500e-02 9.028527e+03 
6.829100e-02 8.805244e+03 
6.958600e-02 8.552050e+03 
7.071100e-02 8.356727e+03 
7.192300e-02 8.167602e+03 
7.307400e-02 8.006325e+03 
7.412300e-02 7.873321e+03 
7.550400e-02 7.717568e+03 
7.663100e-02 7.601459e+03 
7.791200e-02 7.481758e+03 
7.912700e-02 7.375319e+03 
8.027600e-02 7.279828e+03 
8.138400e-02 7.190394e+03 
8.272200e-02 7.083701e+03 
8.406100e-02 6.977142e+03 
8.534100e-02 6.872241e+03 
8.653800e-02 6.771537e+03 
8.759800e-02 6.680261e+03 
8.900300e-02 6.554835e+03 
9.009000e-02 6.453377e+03 
9.113300e-02 6.352554e+03 
9.239600e-02 6.228541e+03 
9.358000e-02 6.108880e+03 
9.496100e-02 5.964077e+03 
9.608400e-02 5.845316e+03 
9.727500e-02 5.719514e+03 
9.852600e-02 5.584147e+03 
9.973800e-02 5.455014e+03 
1.009000e-01 5.333252e+03 
1.020900e-01 5.210410e+03 
1.034000e-01 5.079747e+03 
1.046000e-01 4.964211e+03 
1.057200e-01 4.861659e+03 
1.069100e-01 4.757227e+03 
1.082500e-01 4.648329e+03 
1.093900e-01 4.562027e+03 
1.105400e-01 4.479383e+03 
1.116900e-01 4.405113e+03 
1.129600e-01 4.327488e+03 
1.142000e-01 4.259429e+03 
1.153300e-01 4.201311e+03 
1.166400e-01 4.139267e+03 
1.177800e-01 4.089411e+03 
1.190000e-01 4.038644e+03 
1.201200e-01 3.994930e+03 
1.213400e-01 3.948756e+03 
1.227100e-01 3.899113e+03 
1.238900e-01 3.857229e+03 
1.250700e-01 3.815474e+03 
1.263200e-01 3.771515e+03 
1.275500e-01 3.727576e+03 
1.287500e-01 3.684645e+03 
1.299900e-01 3.639631e+03 
1.311300e-01 3.597694e+03 
1.323500e-01 3.551578e+03 
1.335900e-01 3.504381e+03 
1.347100e-01 3.460841e+03 
1.359800e-01 3.411501e+03 
1.372100e-01 3.362698e+03 
1.384300e-01 3.314653e+03 
1.395700e-01 3.268995e+03 
1.407700e-01 3.221813e+03 
1.420300e-01 3.171844e+03 
1.432800e-01 3.123403e+03 
1.444500e-01 3.078310e+03 
1.456300e-01 3.033793e+03 
1.468900e-01 2.987801e+03 
1.480500e-01 2.946513e+03 
1.491700e-01 2.907936e+03 
1.503800e-01 2.867724e+03 
1.516400e-01 2.827106e+03 
1.528200e-01 2.791481e+03 
1.540200e-01 2.755966e+03 
1.551900e-01 2.723586e+03 
1.564300e-01 2.690316e+03 
1.576600e-01 2.658904e+03 
1.588700e-01 2.629726e+03 
1.600900e-01 2.600925e+03 
1.612700e-01 2.574800e+03 
1.625400e-01 2.547203e+03 
1.637600e-01 2.521723e+03 
1.649500e-01 2.497628e+03 
1.662200e-01 2.472376e+03 
1.674000e-01 2.449317e+03 
1.685000e-01 2.428178e+03 
1.697500e-01 2.404272e+03 
1.710300e-01 2.379947e+03 
1.722200e-01 2.357730e+03 
1.734400e-01 2.334452e+03 
1.746400e-01 2.311911e+03 
1.758700e-01 2.288919e+03 
1.770900e-01 2.265931e+03 
1.782700e-01 2.244069e+03 
1.794600e-01 2.221834e+03 
1.807000e-01 2.198684e+03 
1.819100e-01 2.176475e+03 
1.830100e-01 2.156096e+03 
1.842200e-01 2.133945e+03 
1.855000e-01 2.110905e+03 
1.867000e-01 2.089572e+03 
1.879200e-01 2.068236e+03 
1.890900e-01 2.048110e+03 
1.902800e-01 2.028008e+03 
1.915200e-01 2.007396e+03 
1.926900e-01 1.988320e+03 
1.939000e-01 1.969108e+03 
1.951700e-01 1.949266e+03 
1.963100e-01 1.931822e+03 
1.975100e-01 1.913977e+03 
1.987800e-01 1.895385e+03 
2.000100e-01 1.877770e+03 
2.012500e-01 1.860539e+03 
2.023400e-01 1.845609e+03 
2.036100e-01 1.828519e+03 
2.048900e-01 1.811773e+03 
2.060400e-01 1.796948e+03 
2.072200e-01 1.781967e+03 
2.084200e-01 1.767169e+03 
2.096900e-01 1.751737e+03 
2.109200e-01 1.737010e+03 
2.121100e-01 1.723099e+03 
2.132700e-01 1.709731e+03 
2.145200e-01 1.695526e+03 
2.157200e-01 1.682196e+03 
2.168800e-01 1.669538e+03 
2.180700e-01 1.656725e+03 
2.193400e-01 1.643318e+03 
2.206000e-01 1.630349e+03 
2.217500e-01 1.618670e+03 
2.229500e-01 1.606642e+03 
2.241400e-01 1.595130e+03 
2.253500e-01 1.583585e+03 
2.264900e-01 1.572847e+03 
2.277100e-01 1.561684e+03 
2.289900e-01 1.550332e+03 
2.301500e-01 1.540178e+03 
2.313600e-01 1.529721e+03 
2.325600e-01 1.519798e+03 
2.337700e-01 1.509919e+03 
2.350000e-01 1.500003e+03 
2.362000e-01 1.490608e+03 
2.374100e-01 1.481439e+03 
2.386500e-01 1.472159e+03 
2.399100e-01 1.462851e+03 
2.410400e-01 1.454755e+03 
2.422500e-01 1.446207e+03 
2.435000e-01 1.437486e+03 
2.447300e-01 1.429048e+03 
2.458700e-01 1.421465e+03 
2.470600e-01 1.413640e+03 
2.483300e-01 1.405391e+03 
2.495600e-01 1.397499e+03 
2.507600e-01 1.389889e+03 
2.519600e-01 1.382367e+03 
2.532200e-01 1.374564e+03 
2.543700e-01 1.367456e+03 
2.555500e-01 1.360197e+03 
2.568000e-01 1.352596e+03 
2.580100e-01 1.345325e+03 
2.592400e-01 1.337890e+03 
2.604100e-01 1.330840e+03 
2.616100e-01 1.323689e+03 
2.628400e-01 1.316443e+03 
2.640600e-01 1.309146e+03 
2.652200e-01 1.302208e+03 
2.664300e-01 1.295050e+03 
2.676500e-01 1.287913e+03 
2.688400e-01 1.280879e+03 
2.700700e-01 1.273594e+03 
2.712400e-01 1.266740e+03 
2.724800e-01 1.259554e+03 
2.736700e-01 1.252654e+03 
2.748800e-01 1.245633e+03 
2.761000e-01 1.238629e+03 
2.773200e-01 1.231701e+03 
2.785400e-01 1.224783e+03 
2.797000e-01 1.218142e+03 
2.808900e-01 1.211399e+03 
2.821400e-01 1.204391e+03 
2.833900e-01 1.197456e+03 
2.845500e-01 1.191032e+03 
2.857800e-01 1.184290e+03 
2.870300e-01 1.177511e+03 
2.882100e-01 1.171178e+03 
2.893900e-01 1.164835e+03 
2.906300e-01 1.158199e+03 
2.918900e-01 1.151526e+03 
2.930500e-01 1.145445e+03 
2.942500e-01 1.139216e+03 
2.954200e-01 1.133201e+03 
2.966500e-01 1.126941e+03 
2.978900e-01 1.120694e+03 
2.990400e-01 1.114957e+03 
3.002700e-01 1.108862e+03 
3.015100e-01 1.102770e+03 
3.026800e-01 1.097077e+03 
3.038500e-01 1.091439e+03 
3.050300e-01 1.085805e+03 
3.062600e-01 1.079934e+03 
3.075000e-01 1.074073e+03 
3.087000e-01 1.068457e+03 
3.099100e-01 1.062847e+03 
3.111200e-01 1.057314e+03 
3.123100e-01 1.051962e+03 
3.135300e-01 1.046526e+03 
3.147300e-01 1.041230e+03 
3.159900e-01 1.035723e+03 
3.171800e-01 1.030565e+03 
3.183700e-01 1.025451e+03 
3.196300e-01 1.020086e+03 
3.208400e-01 1.014984e+03 
3.220300e-01 1.010011e+03 
3.232000e-01 1.005163e+03 
3.244300e-01 1.000110e+03 
3.256700e-01 9.950641e+02 
3.269200e-01 9.900249e+02 
3.280800e-01 9.853906e+02 
3.292500e-01 9.808022e+02 
3.304800e-01 9.760357e+02 
3.317100e-01 9.713125e+02 
3.328900e-01 9.668215e+02 
3.340700e-01 9.623695e+02 
3.353600e-01 9.575434e+02 
3.365300e-01 9.532043e+02 
3.377100e-01 9.488656e+02 
3.389200e-01 9.444550e+02 
3.401600e-01 9.399749e+02 
3.413700e-01 9.356568e+02 
3.425300e-01 9.315628e+02 
3.437700e-01 9.272238e+02 
3.449800e-01 9.230267e+02 
3.461800e-01 9.188998e+02 
3.473600e-01 9.148928e+02 
3.485800e-01 9.108266e+02 
3.498100e-01 9.067622e+02 
3.510200e-01 9.027980e+02 
3.522000e-01 8.989642e+02 
3.533900e-01 8.951297e+02 
3.546400e-01 8.911320e+02 
3.558400e-01 8.873263e+02 
3.570600e-01 8.834893e+02 
3.582700e-01 8.797154e+02 
3.595000e-01 8.759110e+02 
3.607100e-01 8.722137e+02 
3.618900e-01 8.686484e+02 
3.631200e-01 8.649622e+02 
3.643200e-01 8.613953e+02 
3.655500e-01 8.577689e+02 
3.667300e-01 8.543180e+02 
3.679500e-01 8.508333e+02 
3.691900e-01 8.473204e+02 
3.703600e-01 8.440322e+02 
3.715700e-01 8.406582e+02 
3.727700e-01 8.373386e+02 
3.739900e-01 8.339876e+02 
3.752000e-01 8.306853e+02 
3.763900e-01 8.274630e+02 
3.775800e-01 8.242655e+02 
3.788200e-01 8.209598e+02 
3.800300e-01 8.177596e+02 
3.812100e-01 8.146710e+02 
3.824200e-01 8.115337e+02 
3.836100e-01 8.084719e+02 
3.848600e-01 8.052807e+02 
3.860400e-01 8.022914e+02 
3.872400e-01 7.992743e+02 
3.884600e-01 7.962372e+02 
3.896500e-01 7.932997e+02 
3.908700e-01 7.903109e+02 
3.920600e-01 7.874176e+02 
3.933100e-01 7.844014e+02 
3.945300e-01 7.814802e+02 
3.957200e-01 7.786593e+02 
3.969300e-01 7.758144e+02 
3.981700e-01 7.729209e+02 
3.993500e-01 7.701878e+02 
4.094840e-01 7.475796e+02 
4.272360e-01 7.111299e+02 
4.454600e-01 6.773456e+02 
4.630560e-01 6.475399e+02 
4.804610e-01 6.204997e+02 
4.980690e-01 5.953093e+02 
5.159230e-01 5.716925e+02 
5.317440e-01 5.523301e+02 
5.489640e-01 5.326363e+02 
5.671990e-01 5.133586e+02 
5.838690e-01 4.969325e+02 
6.018840e-01 4.804107e+02 
6.202330e-01 4.647696e+02 
6.379250e-01 4.506303e+02 
6.545410e-01 4.382500e+02 
6.714560e-01 4.263669e+02 
6.892080e-01 4.146202e+02 
7.066010e-01 4.037842e+02 
7.240540e-01 3.935189e+02 
7.420450e-01 3.835021e+02 
7.593780e-01 3.743490e+02 
7.764720e-01 3.657802e+02 
7.942840e-01 3.572767e+02 
8.116170e-01 3.493547e+02 
8.288310e-01 3.418057e+02 
8.462240e-01 3.345009e+02 
8.631980e-01 3.276907e+02 
8.810700e-01 3.208041e+02 
8.989410e-01 3.141550e+02 
9.166330e-01 3.078177e+02 
9.345640e-01 3.016038e+02 
9.515980e-01 2.959201e+02 
9.688720e-01 2.903472e+02 
9.865640e-01 2.848035e+02 
1.031870e+00 2.713598e+02 
1.063490e+00 2.625401e+02 
1.097920e+00 2.534719e+02 
1.134370e+00 2.443729e+02 
1.167730e+00 2.364574e+02 
1.203830e+00 2.282963e+02 
1.240470e+00 2.204574e+02 
1.275790e+00 2.132226e+02 
1.309140e+00 2.067178e+02 
1.342970e+00 2.003890e+02 
1.378420e+00 1.940646e+02 
1.413200e+00 1.881156e+02 
1.448110e+00 1.823975e+02 
1.484090e+00 1.767577e+02 
1.518820e+00 1.715685e+02 
1.552880e+00 1.666413e+02 
1.588630e+00 1.617012e+02 
1.623230e+00 1.571097e+02 
1.657720e+00 1.527205e+02 
1.692450e+00 1.484836e+02 
1.726400e+00 1.444597e+02 
1.762200e+00 1.403984e+02 
1.797880e+00 1.365061e+02 
1.833270e+00 1.328020e+02 
1.869070e+00 1.291966e+02 
1.903200e+00 1.258739e+02 
1.937740e+00 1.226353e+02 
1.973190e+00 1.194397e+02 
2.007440e+00 1.164589e+02 
2.042160e+00 1.135394e+02 
2.077900e+00 1.106375e+02 
2.112390e+00 1.079370e+02 
2.146220e+00 1.053808e+02 
2.181600e+00 1.027865e+02 
2.216930e+00 1.002906e+02 
2.250760e+00 9.798074e+01 
2.286500e+00 9.561811e+01 
2.321770e+00 9.336170e+01 
2.355950e+00 9.124238e+01 
2.391280e+00 8.912833e+01 
2.426240e+00 8.710530e+01 
2.460670e+00 8.517345e+01 
2.495640e+00 8.326843e+01 
2.531080e+00 8.139742e+01 
2.566220e+00 7.959736e+01 
2.600830e+00 7.787726e+01 
2.635080e+00 7.622511e+01 
2.670340e+00 7.457865e+01 
2.705970e+00 7.296628e+01 
2.740040e+00 7.146977e+01 
2.774520e+00 6.999269e+01 
2.809730e+00 6.853368e+01 
2.844390e+00 6.714114e+01 
2.879960e+00 6.575013e+01 
2.914860e+00 6.442212e+01 
2.949410e+00 6.314443e+01 
2.984440e+00 6.188393e+01 
3.019760e+00 6.064526e+01 
3.054730e+00 5.945209e+01 
3.089030e+00 5.831773e+01 
3.124060e+00 5.719015e+01 
3.159560e+00 5.607704e+01 
3.194710e+00 5.500797e+01 
3.229010e+00 5.399346e+01 
3.263320e+00 5.299509e+01 
3.297930e+00 5.201611e+01 
3.332830e+00 5.105716e+01 
3.368040e+00 5.011618e+01 
3.403300e+00 4.919949e+01 
3.438450e+00 4.830660e+01 
3.473060e+00 4.744971e+01 
3.508440e+00 4.659453e+01 
3.543110e+00 4.577773e+01 
3.577470e+00 4.498591e+01 
3.613040e+00 4.418752e+01 
3.648120e+00 4.342149e+01 
3.682910e+00 4.267927e+01 
3.718050e+00 4.194532e+01 
3.753320e+00 4.122815e+01 
3.787980e+00 4.054240e+01 
3.822290e+00 3.987829e+01 
3.857020e+00 3.921975e+01 
3.891920e+00 3.857424e+01 
3.926650e+00 3.794800e+01 
3.961970e+00 3.732541e+01 
3.997360e+00 3.671467e+01 
4.031670e+00 3.613651e+01 
4.066330e+00 3.556708e+01 
4.101420e+00 3.500353e+01 
4.136200e+00 3.445552e+01 
4.170810e+00 3.392227e+01 
4.206250e+00 3.338774e+01 
4.241580e+00 3.286663e+01 
4.276300e+00 3.236769e+01 
4.310970e+00 3.188126e+01 
4.346120e+00 3.139759e+01 
4.380600e+00 3.093143e+01 
4.414730e+00 3.047968e+01 
4.450350e+00 3.002095e+01 
4.485320e+00 2.958007e+01 
4.519810e+00 2.915251e+01 
4.555430e+00 2.871931e+01 
4.590870e+00 2.829832e+01 
4.625480e+00 2.789772e+01 
4.659910e+00 2.750712e+01 
4.695230e+00 2.711353e+01 
4.729960e+00 2.673409e+01 
4.764450e+00 2.636491e+01 
4.799530e+00 2.599717e+01 
4.834910e+00 2.563356e+01 
4.869700e+00 2.528319e+01 
4.904370e+00 2.494074e+01 
4.939450e+00 2.460104e+01 
4.973940e+00 2.427386e+01 
5.008430e+00 2.395277e+01 
5.043810e+00 2.362997e+01 
5.078840e+00 2.331661e+01 
5.113500e+00 2.301225e+01 
5.148890e+00 2.270752e+01 
5.184210e+00 2.240901e+01 
5.219060e+00 2.211987e+01 
5.253660e+00 2.183805e+01 
5.288570e+00 2.155877e+01 
5.323420e+00 2.128569e+01 
5.358440e+00 2.101697e+01 
5.393590e+00 2.075200e+01 
5.428310e+00 2.049448e+01 
5.462800e+00 2.024288e+01 
5.497640e+00 1.999307e+01 
5.532670e+00 1.974729e+01 
5.567280e+00 1.950893e+01 
5.602000e+00 1.927382e+01 
5.637270e+00 1.903916e+01 
5.672410e+00 1.880933e+01 
5.707020e+00 1.858673e+01 
5.742040e+00 1.836551e+01 
5.777430e+00 1.814572e+01 
5.812210e+00 1.793327e+01 
5.846820e+00 1.772568e+01 
5.881610e+00 1.752047e+01 
5.916510e+00 1.731791e+01 
5.951600e+00 1.711814e+01 
5.986560e+00 1.692257e+01 
6.021830e+00 1.672839e+01 
6.056490e+00 1.654056e+01 
6.091160e+00 1.635557e+01 
6.125830e+00 1.617344e+01 
6.161090e+00 1.599123e+01 
6.195760e+00 1.581514e+01 
6.230420e+00 1.564178e+01 
6.265690e+00 1.546808e+01 
6.300950e+00 1.529790e+01 
6.335620e+00 1.513309e+01 
6.370880e+00 1.496798e+01 
6.405550e+00 1.480804e+01 
6.440220e+00 1.465043e+01 
6.475480e+00 1.449251e+01 
6.510150e+00 1.433974e+01 
6.544810e+00 1.418974e+01 
6.580080e+00 1.403932e+01 
6.614750e+00 1.389359e+01 
6.649410e+00 1.375035e+01 
6.684080e+00 1.360917e+01 
6.719340e+00 1.346763e+01 
6.754010e+00 1.333044e+01 
6.788680e+00 1.319517e+01 
6.823940e+00 1.305954e+01 
6.859800e+00 1.292356e+01 
6.894470e+00 1.279440e+01 
6.929140e+00 1.266718e+01 
6.963800e+00 1.254172e+01 
6.999070e+00 1.241580e+01 
7.033730e+00 1.229358e+01 
7.068400e+00 1.217296e+01 
7.103660e+00 1.205196e+01 
7.138330e+00 1.193484e+01 
7.173600e+00 1.181782e+01 
7.208260e+00 1.170436e+01 
7.243530e+00 1.159043e+01 
7.277600e+00 1.148164e+01 
7.312860e+00 1.137034e+01 
7.348120e+00 1.126052e+01 
7.382790e+00 1.115395e+01 
7.417460e+00 1.104921e+01 
7.452720e+00 1.094431e+01 
7.487390e+00 1.084249e+01 
7.522650e+00 1.074026e+01 
7.557320e+00 1.064127e+01 
7.591990e+00 1.054360e+01 
7.627250e+00 1.044553e+01 
7.662510e+00 1.034870e+01 
7.697180e+00 1.025442e+01 
7.731850e+00 1.016121e+01 
7.766510e+00 1.006918e+01 
7.801180e+00 9.978250e+00 
7.836440e+00 9.887353e+00 
7.871110e+00 9.799343e+00 
7.906380e+00 9.710904e+00 
7.941040e+00 9.625053e+00 
7.976310e+00 9.538772e+00 
8.011570e+00 9.453594e+00 
8.046240e+00 9.370849e+00 
8.080900e+00 9.289110e+00 
8.115570e+00 9.208312e+00 
8.150830e+00 9.127108e+00 
8.185500e+00 9.048208e+00 
8.220770e+00 8.968890e+00 
8.255430e+00 8.891861e+00 
8.290100e+00 8.816008e+00 
8.324770e+00 8.741068e+00 
8.359430e+00 8.667011e+00 
8.394700e+00 8.592523e+00 
8.429960e+00 8.518924e+00 
8.464630e+00 8.447392e+00 
8.499890e+00 8.375474e+00 
8.534560e+00 8.305566e+00 
8.569200e+00 8.236505e+00 
