# Parameters:
# omega_b = 0.022760, omega_m = 0.142874, n_s = 0.946063, h = 73.188976, w = -1.000000, sigma_8 = 0.876378
# z = 0.300000
#
# k[1/Mpc] # P(k):
8.694000e-04 1.316128e+04 
2.077466e-03 2.767968e+04 
3.285532e-03 3.889539e+04 
4.493598e-03 4.747874e+04 
5.701664e-03 5.381107e+04 
6.909730e-03 5.827889e+04 
8.117797e-03 6.130452e+04 
9.325863e-03 6.310114e+04 
1.053393e-02 6.387397e+04 
1.174199e-02 6.380736e+04 
1.295006e-02 6.302515e+04 
1.415813e-02 6.169346e+04 
1.536619e-02 5.994983e+04 
1.657426e-02 5.790047e+04 
1.778233e-02 5.563351e+04 
1.899039e-02 5.320828e+04 
2.019846e-02 5.068453e+04 
2.140652e-02 4.819426e+04 
2.261459e-02 4.579440e+04 
2.382266e-02 4.352181e+04 
2.503072e-02 4.140475e+04 
2.623879e-02 3.945164e+04 
2.744685e-02 3.766609e+04 
2.865492e-02 3.604990e+04 
2.986299e-02 3.459567e+04 
3.100100e-02 3.336889e+04 
3.220400e-02 3.221091e+04 
3.288100e-02 3.162018e+04 
3.424300e-02 3.054647e+04 
3.555100e-02 2.963834e+04 
3.686000e-02 2.883348e+04 
3.795000e-02 2.822670e+04 
3.929100e-02 2.754612e+04 
4.039800e-02 2.702141e+04 
4.164000e-02 2.646034e+04 
4.294400e-02 2.588087e+04 
4.415000e-02 2.535175e+04 
4.542900e-02 2.477321e+04 
4.660900e-02 2.423427e+04 
4.782300e-02 2.364510e+04 
4.892900e-02 2.309384e+04 
5.031200e-02 2.237921e+04 
5.155900e-02 2.170978e+04 
5.238100e-02 2.125896e+04 
5.378200e-02 2.048328e+04 
5.513400e-02 1.972638e+04 
5.627600e-02 1.908764e+04 
5.735300e-02 1.849484e+04 
5.870100e-02 1.777316e+04 
5.988700e-02 1.716125e+04 
6.113500e-02 1.654548e+04 
6.225900e-02 1.601758e+04 
6.340100e-02 1.551458e+04 
6.480200e-02 1.493991e+04 
6.601100e-02 1.448469e+04 
6.725500e-02 1.405487e+04 
6.829100e-02 1.372973e+04 
6.958600e-02 1.335766e+04 
7.071100e-02 1.306694e+04 
7.192300e-02 1.278223e+04 
7.307400e-02 1.253667e+04 
7.412300e-02 1.233213e+04 
7.550400e-02 1.208986e+04 
7.663100e-02 1.190783e+04 
7.791200e-02 1.171847e+04 
7.912700e-02 1.154918e+04 
8.027600e-02 1.139673e+04 
8.138400e-02 1.125361e+04 
8.272200e-02 1.108248e+04 
8.406100e-02 1.091106e+04 
8.534100e-02 1.074178e+04 
8.653800e-02 1.057878e+04 
8.759800e-02 1.043085e+04 
8.900300e-02 1.022748e+04 
9.009000e-02 1.006317e+04 
9.113300e-02 9.900530e+03 
9.239600e-02 9.701366e+03 
9.358000e-02 9.510657e+03 
9.496100e-02 9.283131e+03 
9.608400e-02 9.098753e+03 
9.727500e-02 8.905246e+03 
9.852600e-02 8.702365e+03 
9.973800e-02 8.511181e+03 
1.009000e-01 8.332794e+03 
1.020900e-01 8.157521e+03 
1.034000e-01 7.972754e+03 
1.046000e-01 7.811105e+03 
1.057200e-01 7.669736e+03 
1.069100e-01 7.526209e+03 
1.082500e-01 7.377786e+03 
1.093900e-01 7.260036e+03 
1.105400e-01 7.147175e+03 
1.116900e-01 7.044769e+03 
1.129600e-01 6.937109e+03 
1.142000e-01 6.840728e+03 
1.153300e-01 6.757237e+03 
1.166400e-01 6.666221e+03 
1.177800e-01 6.590875e+03 
1.190000e-01 6.513061e+03 
1.201200e-01 6.443378e+03 
1.213400e-01 6.369273e+03 
1.227100e-01 6.286577e+03 
1.238900e-01 6.216395e+03 
1.250700e-01 6.145235e+03 
1.263200e-01 6.070246e+03 
1.275500e-01 5.995141e+03 
1.287500e-01 5.922154e+03 
1.299900e-01 5.846242e+03 
1.311300e-01 5.776370e+03 
1.323500e-01 5.700769e+03 
1.335900e-01 5.624540e+03 
1.347100e-01 5.555678e+03 
1.359800e-01 5.478648e+03 
1.372100e-01 5.404431e+03 
1.384300e-01 5.332117e+03 
1.395700e-01 5.265191e+03 
1.407700e-01 5.196197e+03 
1.420300e-01 5.125171e+03 
1.432800e-01 5.056257e+03 
1.444500e-01 4.993467e+03 
1.456300e-01 4.931422e+03 
1.468900e-01 4.867656e+03 
1.480500e-01 4.810478e+03 
1.491700e-01 4.756884e+03 
1.503800e-01 4.700814e+03 
1.516400e-01 4.643945e+03 
1.528200e-01 4.593215e+03 
1.540200e-01 4.542610e+03 
1.551900e-01 4.495277e+03 
1.564300e-01 4.446325e+03 
1.576600e-01 4.399393e+03 
1.588700e-01 4.354922e+03 
1.600900e-01 4.310946e+03 
1.612700e-01 4.269679e+03 
1.625400e-01 4.226084e+03 
1.637600e-01 4.185247e+03 
1.649500e-01 4.146280e+03 
1.662200e-01 4.105395e+03 
1.674000e-01 4.067797e+03 
1.685000e-01 4.033329e+03 
1.697500e-01 3.994490e+03 
1.710300e-01 3.955106e+03 
1.722200e-01 3.919134e+03 
1.734400e-01 3.882102e+03 
1.746400e-01 3.846264e+03 
1.758700e-01 3.809981e+03 
1.770900e-01 3.774252e+03 
1.782700e-01 3.740266e+03 
1.794600e-01 3.706148e+03 
1.807000e-01 3.670915e+03 
1.819100e-01 3.637105e+03 
1.830100e-01 3.606531e+03 
1.842200e-01 3.573365e+03 
1.855000e-01 3.538873e+03 
1.867000e-01 3.507306e+03 
1.879200e-01 3.475724e+03 
1.890900e-01 3.445945e+03 
1.902800e-01 3.416318e+03 
1.915200e-01 3.385929e+03 
1.926900e-01 3.357788e+03 
1.939000e-01 3.329421e+03 
1.951700e-01 3.300113e+03 
1.963100e-01 3.274298e+03 
1.975100e-01 3.247775e+03 
1.987800e-01 3.220133e+03 
2.000100e-01 3.193872e+03 
2.012500e-01 3.168026e+03 
2.023400e-01 3.145627e+03 
2.036100e-01 3.119926e+03 
2.048900e-01 3.094519e+03 
2.060400e-01 3.072022e+03 
2.072200e-01 3.049264e+03 
2.084200e-01 3.026540e+03 
2.096900e-01 3.002838e+03 
2.109200e-01 2.980216e+03 
2.121100e-01 2.958581e+03 
2.132700e-01 2.937774e+03 
2.145200e-01 2.915660e+03 
2.157200e-01 2.894709e+03 
2.168800e-01 2.874718e+03 
2.180700e-01 2.854481e+03 
2.193400e-01 2.833172e+03 
2.206000e-01 2.812313e+03 
2.217500e-01 2.793529e+03 
2.229500e-01 2.774181e+03 
2.241400e-01 2.755268e+03 
2.253500e-01 2.736289e+03 
2.264900e-01 2.718634e+03 
2.277100e-01 2.700048e+03 
2.289900e-01 2.680884e+03 
2.301500e-01 2.663741e+03 
2.313600e-01 2.646084e+03 
2.325600e-01 2.628834e+03 
2.337700e-01 2.611661e+03 
2.350000e-01 2.594425e+03 
2.362000e-01 2.577891e+03 
2.374100e-01 2.561509e+03 
2.386500e-01 2.544933e+03 
2.399100e-01 2.528303e+03 
2.410400e-01 2.513581e+03 
2.422500e-01 2.498003e+03 
2.435000e-01 2.482110e+03 
2.447300e-01 2.466707e+03 
2.458700e-01 2.452769e+03 
2.470600e-01 2.438387e+03 
2.483300e-01 2.423224e+03 
2.495600e-01 2.408760e+03 
2.507600e-01 2.394871e+03 
2.519600e-01 2.381144e+03 
2.532200e-01 2.366903e+03 
2.543700e-01 2.354088e+03 
2.555500e-01 2.341109e+03 
2.568000e-01 2.327519e+03 
2.580100e-01 2.314518e+03 
2.592400e-01 2.301490e+03 
2.604100e-01 2.289255e+03 
2.616100e-01 2.276844e+03 
2.628400e-01 2.264268e+03 
2.640600e-01 2.251891e+03 
2.652200e-01 2.240236e+03 
2.664300e-01 2.228210e+03 
2.676500e-01 2.216219e+03 
2.688400e-01 2.204622e+03 
2.700700e-01 2.192747e+03 
2.712400e-01 2.181574e+03 
2.724800e-01 2.169861e+03 
2.736700e-01 2.158750e+03 
2.748800e-01 2.147581e+03 
2.761000e-01 2.136441e+03 
2.773200e-01 2.125421e+03 
2.785400e-01 2.114478e+03 
2.797000e-01 2.104092e+03 
2.808900e-01 2.093548e+03 
2.821400e-01 2.082589e+03 
2.833900e-01 2.071750e+03 
2.845500e-01 2.061826e+03 
2.857800e-01 2.051412e+03 
2.870300e-01 2.040940e+03 
2.882100e-01 2.031156e+03 
2.893900e-01 2.021397e+03 
2.906300e-01 2.011206e+03 
2.918900e-01 2.000960e+03 
2.930500e-01 1.991622e+03 
2.942500e-01 1.982065e+03 
2.954200e-01 1.972864e+03 
2.966500e-01 1.963287e+03 
2.978900e-01 1.953729e+03 
2.990400e-01 1.944953e+03 
3.002700e-01 1.935636e+03 
3.015100e-01 1.926327e+03 
3.026800e-01 1.917629e+03 
3.038500e-01 1.909013e+03 
3.050300e-01 1.900404e+03 
3.062600e-01 1.891424e+03 
3.075000e-01 1.882460e+03 
3.087000e-01 1.873869e+03 
3.099100e-01 1.865289e+03 
3.111200e-01 1.856828e+03 
3.123100e-01 1.848650e+03 
3.135300e-01 1.840345e+03 
3.147300e-01 1.832252e+03 
3.159900e-01 1.823837e+03 
3.171800e-01 1.815948e+03 
3.183700e-01 1.808121e+03 
3.196300e-01 1.799911e+03 
3.208400e-01 1.792102e+03 
3.220300e-01 1.784492e+03 
3.232000e-01 1.777060e+03 
3.244300e-01 1.769311e+03 
3.256700e-01 1.761572e+03 
3.269200e-01 1.753843e+03 
3.280800e-01 1.746736e+03 
3.292500e-01 1.739697e+03 
3.304800e-01 1.732385e+03 
3.317100e-01 1.725139e+03 
3.328900e-01 1.718249e+03 
3.340700e-01 1.711420e+03 
3.353600e-01 1.704000e+03 
3.365300e-01 1.697324e+03 
3.377100e-01 1.690648e+03 
3.389200e-01 1.683862e+03 
3.401600e-01 1.676969e+03 
3.413700e-01 1.670318e+03 
3.425300e-01 1.664007e+03 
3.437700e-01 1.657318e+03 
3.449800e-01 1.650849e+03 
3.461800e-01 1.644487e+03 
3.473600e-01 1.638302e+03 
3.485800e-01 1.632005e+03 
3.498100e-01 1.625712e+03 
3.510200e-01 1.619573e+03 
3.522000e-01 1.613637e+03 
3.533900e-01 1.607700e+03 
3.546400e-01 1.601489e+03 
3.558400e-01 1.595576e+03 
3.570600e-01 1.589614e+03 
3.582700e-01 1.583751e+03 
3.595000e-01 1.577841e+03 
3.607100e-01 1.572085e+03 
3.618900e-01 1.566525e+03 
3.631200e-01 1.560777e+03 
3.643200e-01 1.555215e+03 
3.655500e-01 1.549562e+03 
3.667300e-01 1.544181e+03 
3.679500e-01 1.538715e+03 
3.691900e-01 1.533204e+03 
3.703600e-01 1.528046e+03 
3.715700e-01 1.522754e+03 
3.727700e-01 1.517548e+03 
3.739900e-01 1.512288e+03 
3.752000e-01 1.507096e+03 
3.763900e-01 1.502030e+03 
3.775800e-01 1.497003e+03 
3.788200e-01 1.491807e+03 
3.800300e-01 1.486777e+03 
3.812100e-01 1.481899e+03 
3.824200e-01 1.476928e+03 
3.836100e-01 1.472077e+03 
3.848600e-01 1.467021e+03 
3.860400e-01 1.462286e+03 
3.872400e-01 1.457507e+03 
3.884600e-01 1.452670e+03 
3.896500e-01 1.447984e+03 
3.908700e-01 1.443215e+03 
3.920600e-01 1.438600e+03 
3.933100e-01 1.433789e+03 
3.945300e-01 1.429129e+03 
3.957200e-01 1.424620e+03 
3.969300e-01 1.420070e+03 
3.981700e-01 1.415443e+03 
3.993500e-01 1.411072e+03 
4.094840e-01 1.374743e+03 
4.272360e-01 1.315605e+03 
4.454600e-01 1.260212e+03 
4.630560e-01 1.210914e+03 
4.804610e-01 1.165826e+03 
4.980690e-01 1.123581e+03 
5.159230e-01 1.083708e+03 
5.317440e-01 1.050846e+03 
5.489640e-01 1.017176e+03 
5.671990e-01 9.839869e+02 
5.838690e-01 9.554813e+02 
6.018840e-01 9.265829e+02 
6.202330e-01 8.989097e+02 
6.379250e-01 8.736920e+02 
6.545410e-01 8.513377e+02 
6.714560e-01 8.296893e+02 
6.892080e-01 8.080335e+02 
7.066010e-01 7.878121e+02 
7.240540e-01 7.684896e+02 
7.420450e-01 7.493667e+02 
7.593780e-01 7.317232e+02 
7.764720e-01 7.150522e+02 
7.942840e-01 6.983451e+02 
8.116170e-01 6.826076e+02 
8.288310e-01 6.674892e+02 
8.462240e-01 6.527621e+02 
8.631980e-01 6.389095e+02 
8.810700e-01 6.248028e+02 
8.989410e-01 6.111114e+02 
9.166330e-01 5.979895e+02 
9.345640e-01 5.850691e+02 
9.515980e-01 5.731959e+02 
9.688720e-01 5.615080e+02 
9.865640e-01 5.498450e+02 
1.031870e+00 5.214619e+02 
1.063490e+00 5.027789e+02 
1.097920e+00 4.835162e+02 
1.134370e+00 4.642182e+02 
1.167730e+00 4.474439e+02 
1.203830e+00 4.301781e+02 
1.240470e+00 4.136413e+02 
1.275790e+00 3.984239e+02 
1.309140e+00 3.847968e+02 
1.342970e+00 3.715913e+02 
1.378420e+00 3.584466e+02 
1.413200e+00 3.461378e+02 
1.448110e+00 3.343589e+02 
1.484090e+00 3.228015e+02 
1.518820e+00 3.122059e+02 
1.552880e+00 3.022061e+02 
1.588630e+00 2.922253e+02 
1.623230e+00 2.829874e+02 
1.657720e+00 2.741928e+02 
1.692450e+00 2.657449e+02 
1.726400e+00 2.577650e+02 
1.762200e+00 2.497458e+02 
1.797880e+00 2.420983e+02 
1.833270e+00 2.348436e+02 
1.869070e+00 2.278160e+02 
1.903200e+00 2.213701e+02 
1.937740e+00 2.151098e+02 
1.973190e+00 2.089599e+02 
2.007440e+00 2.032458e+02 
2.042160e+00 1.976704e+02 
2.077900e+00 1.921495e+02 
2.112390e+00 1.870316e+02 
2.146220e+00 1.822055e+02 
2.181600e+00 1.773265e+02 
2.216930e+00 1.726483e+02 
2.250760e+00 1.683328e+02 
2.286500e+00 1.639337e+02 
2.321770e+00 1.597467e+02 
2.355950e+00 1.558268e+02 
2.391280e+00 1.519304e+02 
2.426240e+00 1.482128e+02 
2.460670e+00 1.446730e+02 
2.495640e+00 1.411924e+02 
2.531080e+00 1.377860e+02 
2.566220e+00 1.345181e+02 
2.600830e+00 1.314037e+02 
2.635080e+00 1.284196e+02 
2.670340e+00 1.254561e+02 
2.705970e+00 1.225609e+02 
2.740040e+00 1.198797e+02 
2.774520e+00 1.172413e+02 
2.809730e+00 1.146414e+02 
2.844390e+00 1.121649e+02 
2.879960e+00 1.096977e+02 
2.914860e+00 1.073487e+02 
2.949410e+00 1.050929e+02 
2.984440e+00 1.028732e+02 
3.019760e+00 1.006969e+02 
3.054730e+00 9.860407e+01 
3.089030e+00 9.662027e+01 
3.124060e+00 9.465137e+01 
3.159560e+00 9.271170e+01 
3.194710e+00 9.085272e+01 
3.229010e+00 8.909072e+01 
3.263320e+00 8.736225e+01 
3.297930e+00 8.566936e+01 
3.332830e+00 8.401435e+01 
3.368040e+00 8.239308e+01 
3.403300e+00 8.081582e+01 
3.438450e+00 7.928317e+01 
3.473060e+00 7.781368e+01 
3.508440e+00 7.635083e+01 
3.543110e+00 7.495474e+01 
3.577470e+00 7.360462e+01 
3.613040e+00 7.224451e+01 
3.648120e+00 7.094183e+01 
3.682910e+00 6.968101e+01 
3.718050e+00 6.843637e+01 
3.753320e+00 6.722154e+01 
3.787980e+00 6.606166e+01 
3.822290e+00 6.493965e+01 
3.857020e+00 6.382874e+01 
3.891920e+00 6.274085e+01 
3.926650e+00 6.168700e+01 
3.961970e+00 6.064016e+01 
3.997360e+00 5.961489e+01 
4.031670e+00 5.864488e+01 
4.066330e+00 5.769101e+01 
4.101420e+00 5.674734e+01 
4.136200e+00 5.583144e+01 
4.170810e+00 5.494048e+01 
4.206250e+00 5.404887e+01 
4.241580e+00 5.318009e+01 
4.276300e+00 5.234910e+01 
4.310970e+00 5.153949e+01 
4.346120e+00 5.073514e+01 
4.380600e+00 4.996084e+01 
4.414730e+00 4.921071e+01 
4.450350e+00 4.845005e+01 
4.485320e+00 4.771916e+01 
4.519810e+00 4.701115e+01 
4.555430e+00 4.629424e+01 
4.590870e+00 4.559788e+01 
4.625480e+00 4.493580e+01 
4.659910e+00 4.429040e+01 
4.695230e+00 4.364085e+01 
4.729960e+00 4.301487e+01 
4.764450e+00 4.240612e+01 
4.799530e+00 4.180019e+01 
4.834910e+00 4.120119e+01 
4.869700e+00 4.062459e+01 
4.904370e+00 4.006120e+01 
4.939450e+00 3.950255e+01 
4.973940e+00 3.896488e+01 
5.008430e+00 3.843731e+01 
5.043810e+00 3.790723e+01 
5.078840e+00 3.739283e+01 
5.113500e+00 3.689332e+01 
5.148890e+00 3.639357e+01 
5.184210e+00 3.590413e+01 
5.219060e+00 3.543020e+01 
5.253660e+00 3.496856e+01 
5.288570e+00 3.451116e+01 
5.323420e+00 3.406401e+01 
5.358440e+00 3.362412e+01 
5.393590e+00 3.319045e+01 
5.428310e+00 3.276918e+01 
5.462800e+00 3.235773e+01 
5.497640e+00 3.194929e+01 
5.532670e+00 3.154756e+01 
5.567280e+00 3.115803e+01 
5.602000e+00 3.077389e+01 
5.637270e+00 3.039055e+01 
5.672410e+00 3.001519e+01 
5.707020e+00 2.965169e+01 
5.742040e+00 2.929054e+01 
5.777430e+00 2.893180e+01 
5.812210e+00 2.858509e+01 
5.846820e+00 2.824634e+01 
5.881610e+00 2.791152e+01 
5.916510e+00 2.758109e+01 
5.951600e+00 2.725524e+01 
5.986560e+00 2.693629e+01 
6.021830e+00 2.661966e+01 
6.056490e+00 2.631342e+01 
6.091160e+00 2.601185e+01 
6.125830e+00 2.571499e+01 
6.161090e+00 2.541802e+01 
6.195760e+00 2.513103e+01 
6.230420e+00 2.484853e+01 
6.265690e+00 2.456553e+01 
6.300950e+00 2.428823e+01 
6.335620e+00 2.401972e+01 
6.370880e+00 2.375078e+01 
6.405550e+00 2.349022e+01 
6.440220e+00 2.323350e+01 
6.475480e+00 2.297632e+01 
6.510150e+00 2.272753e+01 
6.544810e+00 2.248322e+01 
6.580080e+00 2.223826e+01 
6.614750e+00 2.200099e+01 
6.649410e+00 2.176774e+01 
6.684080e+00 2.153787e+01 
6.719340e+00 2.130746e+01 
6.754010e+00 2.108413e+01 
6.788680e+00 2.086389e+01 
6.823940e+00 2.064309e+01 
6.859800e+00 2.042177e+01 
6.894470e+00 2.021151e+01 
6.929140e+00 2.000443e+01 
6.963800e+00 1.980027e+01 
6.999070e+00 1.959538e+01 
7.033730e+00 1.939643e+01 
7.068400e+00 1.920014e+01 
7.103660e+00 1.900325e+01 
7.138330e+00 1.881268e+01 
7.173600e+00 1.862222e+01 
7.208260e+00 1.843759e+01 
7.243530e+00 1.825224e+01 
7.277600e+00 1.807525e+01 
7.312860e+00 1.789420e+01 
7.348120e+00 1.771559e+01 
7.382790e+00 1.754229e+01 
7.417460e+00 1.737191e+01 
7.452720e+00 1.720125e+01 
7.487390e+00 1.703564e+01 
7.522650e+00 1.686940e+01 
7.557320e+00 1.670837e+01 
7.591990e+00 1.654952e+01 
7.627250e+00 1.639004e+01 
7.662510e+00 1.623261e+01 
7.697180e+00 1.607932e+01 
7.731850e+00 1.592778e+01 
7.766510e+00 1.577818e+01 
7.801180e+00 1.563041e+01 
7.836440e+00 1.548265e+01 
7.871110e+00 1.533957e+01 
7.906380e+00 1.519582e+01 
7.941040e+00 1.505631e+01 
7.976310e+00 1.491610e+01 
8.011570e+00 1.477766e+01 
8.046240e+00 1.464322e+01 
8.080900e+00 1.451043e+01 
8.115570e+00 1.437920e+01 
8.150830e+00 1.424729e+01 
8.185500e+00 1.411916e+01 
8.220770e+00 1.399038e+01 
8.255430e+00 1.386534e+01 
8.290100e+00 1.374215e+01 
8.324770e+00 1.362046e+01 
8.359430e+00 1.350023e+01 
8.394700e+00 1.337933e+01 
8.429960e+00 1.325988e+01 
8.464630e+00 1.314380e+01 
8.499890e+00 1.302712e+01 
8.534560e+00 1.291373e+01 
8.569200e+00 1.280173e+01 
