# Parameters:
# omega_b = 0.022697, omega_m = 0.134331, n_s = 0.977559, h = 57.362205, w = -1.000000, sigma_8 = 0.714173
# z = 0.300000
#
# k[1/Mpc] # P(k):
8.694000e-04 1.190530e+04 
2.077466e-03 2.560577e+04 
3.285532e-03 3.629833e+04 
4.493598e-03 4.446252e+04 
5.701664e-03 5.048065e+04 
6.909730e-03 5.469275e+04 
8.117797e-03 5.748598e+04 
9.325863e-03 5.906338e+04 
1.053393e-02 5.963424e+04 
1.174199e-02 5.939520e+04 
1.295006e-02 5.846927e+04 
1.415813e-02 5.702019e+04 
1.536619e-02 5.519097e+04 
1.657426e-02 5.305822e+04 
1.778233e-02 5.068342e+04 
1.899039e-02 4.833972e+04 
2.019846e-02 4.615980e+04 
2.140652e-02 4.406859e+04 
2.261459e-02 4.202904e+04 
2.382266e-02 4.007669e+04 
2.503072e-02 3.824200e+04 
2.623879e-02 3.653410e+04 
2.744685e-02 3.495523e+04 
2.865492e-02 3.351034e+04 
2.986299e-02 3.219410e+04 
3.100100e-02 3.106733e+04 
3.220400e-02 2.998689e+04 
3.288100e-02 2.942675e+04 
3.424300e-02 2.839213e+04 
3.555100e-02 2.749855e+04 
3.686000e-02 2.668956e+04 
3.795000e-02 2.606933e+04 
3.929100e-02 2.536253e+04 
4.039800e-02 2.481394e+04 
4.164000e-02 2.422766e+04 
4.294400e-02 2.362972e+04 
4.415000e-02 2.309219e+04 
4.542900e-02 2.252128e+04 
4.660900e-02 2.200141e+04 
4.782300e-02 2.145283e+04 
4.892900e-02 2.095085e+04 
5.031200e-02 2.031595e+04 
5.155900e-02 1.973456e+04 
5.238100e-02 1.934798e+04 
5.378200e-02 1.868968e+04 
5.513400e-02 1.805245e+04 
5.627600e-02 1.751598e+04 
5.735300e-02 1.701728e+04 
5.870100e-02 1.640727e+04 
5.988700e-02 1.588569e+04 
6.113500e-02 1.535541e+04 
6.225900e-02 1.489478e+04 
6.340100e-02 1.444988e+04 
6.480200e-02 1.393425e+04 
6.601100e-02 1.351774e+04 
6.725500e-02 1.311763e+04 
6.829100e-02 1.280918e+04 
6.958600e-02 1.245155e+04 
7.071100e-02 1.216738e+04 
7.192300e-02 1.188543e+04 
7.307400e-02 1.163945e+04 
7.412300e-02 1.143276e+04 
7.550400e-02 1.118592e+04 
7.663100e-02 1.099985e+04 
7.791200e-02 1.080637e+04 
7.912700e-02 1.063449e+04 
8.027600e-02 1.048093e+04 
8.138400e-02 1.033810e+04 
8.272200e-02 1.016944e+04 
8.406100e-02 1.000280e+04 
8.534100e-02 9.840756e+03 
8.653800e-02 9.686531e+03 
8.759800e-02 9.547597e+03 
8.900300e-02 9.358087e+03 
9.009000e-02 9.206087e+03 
9.113300e-02 9.056544e+03 
9.239600e-02 8.874186e+03 
9.358000e-02 8.700509e+03 
9.496100e-02 8.494595e+03 
9.608400e-02 8.328460e+03 
9.727500e-02 8.154658e+03 
9.852600e-02 7.973791e+03 
9.973800e-02 7.803758e+03 
1.009000e-01 7.645426e+03 
1.020900e-01 7.490394e+03 
1.034000e-01 7.326899e+03 
1.046000e-01 7.183773e+03 
1.057200e-01 7.057980e+03 
1.069100e-01 6.929884e+03 
1.082500e-01 6.796120e+03 
1.093900e-01 6.688868e+03 
1.105400e-01 6.585390e+03 
1.116900e-01 6.489613e+03 
1.129600e-01 6.388213e+03 
1.142000e-01 6.295536e+03 
1.153300e-01 6.214565e+03 
1.166400e-01 6.125199e+03 
1.177800e-01 6.050519e+03 
1.190000e-01 5.973055e+03 
1.201200e-01 5.903597e+03 
1.213400e-01 5.829713e+03 
1.227100e-01 5.748012e+03 
1.238900e-01 5.678962e+03 
1.250700e-01 5.609931e+03 
1.263200e-01 5.537654e+03 
1.275500e-01 5.466286e+03 
1.287500e-01 5.397458e+03 
1.299900e-01 5.326687e+03 
1.311300e-01 5.261974e+03 
1.323500e-01 5.192585e+03 
1.335900e-01 5.122907e+03 
1.347100e-01 5.060339e+03 
1.359800e-01 4.990459e+03 
1.372100e-01 4.923349e+03 
1.384300e-01 4.857972e+03 
1.395700e-01 4.797497e+03 
1.407700e-01 4.735137e+03 
1.420300e-01 4.670791e+03 
1.432800e-01 4.608357e+03 
1.444500e-01 4.551168e+03 
1.456300e-01 4.494657e+03 
1.468900e-01 4.436294e+03 
1.480500e-01 4.383875e+03 
1.491700e-01 4.334583e+03 
1.503800e-01 4.282811e+03 
1.516400e-01 4.230241e+03 
1.528200e-01 4.183074e+03 
1.540200e-01 4.136026e+03 
1.551900e-01 4.091777e+03 
1.564300e-01 4.045957e+03 
1.576600e-01 4.001935e+03 
1.588700e-01 3.960111e+03 
1.600900e-01 3.918747e+03 
1.612700e-01 3.879809e+03 
1.625400e-01 3.838678e+03 
1.637600e-01 3.800135e+03 
1.649500e-01 3.763350e+03 
1.662200e-01 3.724763e+03 
1.674000e-01 3.689321e+03 
1.685000e-01 3.656831e+03 
1.697500e-01 3.620282e+03 
1.710300e-01 3.583281e+03 
1.722200e-01 3.549488e+03 
1.734400e-01 3.514834e+03 
1.746400e-01 3.481305e+03 
1.758700e-01 3.447403e+03 
1.770900e-01 3.414105e+03 
1.782700e-01 3.382434e+03 
1.794600e-01 3.350710e+03 
1.807000e-01 3.317998e+03 
1.819100e-01 3.286608e+03 
1.830100e-01 3.258292e+03 
1.842200e-01 3.227589e+03 
1.855000e-01 3.195661e+03 
1.867000e-01 3.166486e+03 
1.879200e-01 3.137296e+03 
1.890900e-01 3.109780e+03 
1.902800e-01 3.082431e+03 
1.915200e-01 3.054378e+03 
1.926900e-01 3.028407e+03 
1.939000e-01 3.002245e+03 
1.951700e-01 2.975215e+03 
1.963100e-01 2.951411e+03 
1.975100e-01 2.926966e+03 
1.987800e-01 2.901490e+03 
2.000100e-01 2.877289e+03 
2.012500e-01 2.853476e+03 
2.023400e-01 2.832839e+03 
2.036100e-01 2.809158e+03 
2.048900e-01 2.785734e+03 
2.060400e-01 2.764995e+03 
2.072200e-01 2.744010e+03 
2.084200e-01 2.723007e+03 
2.096900e-01 2.701101e+03 
2.109200e-01 2.680193e+03 
2.121100e-01 2.660097e+03 
2.132700e-01 2.640766e+03 
2.145200e-01 2.620223e+03 
2.157200e-01 2.600622e+03 
2.168800e-01 2.581858e+03 
2.180700e-01 2.562863e+03 
2.193400e-01 2.542756e+03 
2.206000e-01 2.522877e+03 
2.217500e-01 2.504975e+03 
2.229500e-01 2.486538e+03 
2.241400e-01 2.468140e+03 
2.253500e-01 2.449670e+03 
2.264900e-01 2.432491e+03 
2.277100e-01 2.414186e+03 
2.289900e-01 2.395067e+03 
2.301500e-01 2.377968e+03 
2.313600e-01 2.360354e+03 
2.325600e-01 2.342689e+03 
2.337700e-01 2.325106e+03 
2.350000e-01 2.307462e+03 
2.362000e-01 2.290353e+03 
2.374100e-01 2.273183e+03 
2.386500e-01 2.255813e+03 
2.399100e-01 2.238390e+03 
2.410400e-01 2.222761e+03 
2.422500e-01 2.206201e+03 
2.435000e-01 2.189310e+03 
2.447300e-01 2.172918e+03 
2.458700e-01 2.157985e+03 
2.470600e-01 2.142579e+03 
2.483300e-01 2.126342e+03 
2.495600e-01 2.110882e+03 
2.507600e-01 2.096077e+03 
2.519600e-01 2.081448e+03 
2.532200e-01 2.066273e+03 
2.543700e-01 2.052745e+03 
2.555500e-01 2.039129e+03 
2.568000e-01 2.024876e+03 
2.580100e-01 2.011241e+03 
2.592400e-01 1.997787e+03 
2.604100e-01 1.985244e+03 
2.616100e-01 1.972523e+03 
2.628400e-01 1.959632e+03 
2.640600e-01 1.947193e+03 
2.652200e-01 1.935576e+03 
2.664300e-01 1.923591e+03 
2.676500e-01 1.911642e+03 
2.688400e-01 1.900274e+03 
2.700700e-01 1.888752e+03 
2.712400e-01 1.877912e+03 
2.724800e-01 1.866548e+03 
2.736700e-01 1.855890e+03 
2.748800e-01 1.845302e+03 
2.761000e-01 1.834742e+03 
2.773200e-01 1.824295e+03 
2.785400e-01 1.813980e+03 
2.797000e-01 1.804313e+03 
2.808900e-01 1.794497e+03 
2.821400e-01 1.784296e+03 
2.833900e-01 1.774212e+03 
2.845500e-01 1.765081e+03 
2.857800e-01 1.755498e+03 
2.870300e-01 1.745862e+03 
2.882100e-01 1.736860e+03 
2.893900e-01 1.727923e+03 
2.906300e-01 1.718615e+03 
2.918900e-01 1.709256e+03 
2.930500e-01 1.700726e+03 
2.942500e-01 1.692004e+03 
2.954200e-01 1.683630e+03 
2.966500e-01 1.674914e+03 
2.978900e-01 1.666216e+03 
2.990400e-01 1.658228e+03 
3.002700e-01 1.649760e+03 
3.015100e-01 1.641305e+03 
3.026800e-01 1.633404e+03 
3.038500e-01 1.625579e+03 
3.050300e-01 1.617759e+03 
3.062600e-01 1.609612e+03 
3.075000e-01 1.601478e+03 
3.087000e-01 1.593684e+03 
3.099100e-01 1.585899e+03 
3.111200e-01 1.578222e+03 
3.123100e-01 1.570802e+03 
3.135300e-01 1.563267e+03 
3.147300e-01 1.555925e+03 
3.159900e-01 1.548289e+03 
3.171800e-01 1.541136e+03 
3.183700e-01 1.534043e+03 
3.196300e-01 1.526603e+03 
3.208400e-01 1.519526e+03 
3.220300e-01 1.512629e+03 
3.232000e-01 1.505900e+03 
3.244300e-01 1.498886e+03 
3.256700e-01 1.491880e+03 
3.269200e-01 1.484884e+03 
3.280800e-01 1.478450e+03 
3.292500e-01 1.472084e+03 
3.304800e-01 1.465472e+03 
3.317100e-01 1.458919e+03 
3.328900e-01 1.452689e+03 
3.340700e-01 1.446513e+03 
3.353600e-01 1.439813e+03 
3.365300e-01 1.433789e+03 
3.377100e-01 1.427764e+03 
3.389200e-01 1.421640e+03 
3.401600e-01 1.415419e+03 
3.413700e-01 1.409421e+03 
3.425300e-01 1.403735e+03 
3.437700e-01 1.397707e+03 
3.449800e-01 1.391877e+03 
3.461800e-01 1.386145e+03 
3.473600e-01 1.380577e+03 
3.485800e-01 1.374922e+03 
3.498100e-01 1.369269e+03 
3.510200e-01 1.363756e+03 
3.522000e-01 1.358425e+03 
3.533900e-01 1.353092e+03 
3.546400e-01 1.347530e+03 
3.558400e-01 1.342234e+03 
3.570600e-01 1.336895e+03 
3.582700e-01 1.331644e+03 
3.595000e-01 1.326350e+03 
3.607100e-01 1.321202e+03 
3.618900e-01 1.316234e+03 
3.631200e-01 1.311098e+03 
3.643200e-01 1.306129e+03 
3.655500e-01 1.301076e+03 
3.667300e-01 1.296268e+03 
3.679500e-01 1.291401e+03 
3.691900e-01 1.286494e+03 
3.703600e-01 1.281901e+03 
3.715700e-01 1.277188e+03 
3.727700e-01 1.272551e+03 
3.739900e-01 1.267869e+03 
3.752000e-01 1.263253e+03 
3.763900e-01 1.258749e+03 
3.775800e-01 1.254280e+03 
3.788200e-01 1.249659e+03 
3.800300e-01 1.245186e+03 
3.812100e-01 1.240859e+03 
3.824200e-01 1.236456e+03 
3.836100e-01 1.232160e+03 
3.848600e-01 1.227682e+03 
3.860400e-01 1.223488e+03 
3.872400e-01 1.219254e+03 
3.884600e-01 1.214980e+03 
3.896500e-01 1.210842e+03 
3.908700e-01 1.206632e+03 
3.920600e-01 1.202556e+03 
3.933100e-01 1.198307e+03 
3.945300e-01 1.194193e+03 
3.957200e-01 1.190214e+03 
3.969300e-01 1.186200e+03 
3.981700e-01 1.182118e+03 
3.993500e-01 1.178262e+03 
4.094840e-01 1.146272e+03 
4.272360e-01 1.094327e+03 
4.454600e-01 1.045792e+03 
4.630560e-01 1.002653e+03 
4.804610e-01 9.632519e+02 
4.980690e-01 9.263572e+02 
5.159230e-01 8.915995e+02 
5.317440e-01 8.629967e+02 
5.489640e-01 8.337765e+02 
5.671990e-01 8.050540e+02 
5.838690e-01 7.804711e+02 
6.018840e-01 7.556376e+02 
6.202330e-01 7.319749e+02 
6.379250e-01 7.104829e+02 
6.545410e-01 6.915253e+02 
6.714560e-01 6.732285e+02 
6.892080e-01 6.550052e+02 
7.066010e-01 6.380597e+02 
7.240540e-01 6.219125e+02 
7.420450e-01 6.060029e+02 
7.593780e-01 5.913662e+02 
7.764720e-01 5.775709e+02 
7.942840e-01 5.637850e+02 
8.116170e-01 5.508380e+02 
8.288310e-01 5.384230e+02 
8.462240e-01 5.263454e+02 
8.631980e-01 5.150122e+02 
8.810700e-01 5.034879e+02 
8.989410e-01 4.923168e+02 
9.166330e-01 4.816219e+02 
9.345640e-01 4.710986e+02 
9.515980e-01 4.614389e+02 
9.688720e-01 4.519362e+02 
9.865640e-01 4.424579e+02 
1.031870e+00 4.194178e+02 
1.063490e+00 4.042663e+02 
1.097920e+00 3.886531e+02 
1.134370e+00 3.730114e+02 
1.167730e+00 3.594182e+02 
1.203830e+00 3.454307e+02 
1.240470e+00 3.320327e+02 
1.275790e+00 3.197087e+02 
1.309140e+00 3.086683e+02 
1.342970e+00 2.979707e+02 
1.378420e+00 2.873215e+02 
1.413200e+00 2.773505e+02 
1.448110e+00 2.678112e+02 
1.484090e+00 2.584487e+02 
1.518820e+00 2.498686e+02 
1.552880e+00 2.417708e+02 
1.588630e+00 2.336879e+02 
1.623230e+00 2.262098e+02 
1.657720e+00 2.190917e+02 
1.692450e+00 2.122532e+02 
1.726400e+00 2.057964e+02 
1.762200e+00 1.993079e+02 
1.797880e+00 1.931200e+02 
1.833270e+00 1.872532e+02 
1.869070e+00 1.815709e+02 
1.903200e+00 1.763598e+02 
1.937740e+00 1.713000e+02 
1.973190e+00 1.663295e+02 
2.007440e+00 1.617129e+02 
2.042160e+00 1.572099e+02 
2.077900e+00 1.527523e+02 
2.112390e+00 1.486204e+02 
2.146220e+00 1.447252e+02 
2.181600e+00 1.407885e+02 
2.216930e+00 1.370149e+02 
2.250760e+00 1.335348e+02 
2.286500e+00 1.299882e+02 
2.321770e+00 1.266137e+02 
2.355950e+00 1.234553e+02 
2.391280e+00 1.203167e+02 
2.426240e+00 1.173228e+02 
2.460670e+00 1.144730e+02 
2.495640e+00 1.116719e+02 
2.531080e+00 1.089313e+02 
2.566220e+00 1.063031e+02 
2.600830e+00 1.037989e+02 
2.635080e+00 1.014004e+02 
2.670340e+00 9.901893e+01 
2.705970e+00 9.669306e+01 
2.740040e+00 9.453981e+01 
2.774520e+00 9.242162e+01 
2.809730e+00 9.033488e+01 
2.844390e+00 8.834767e+01 
2.879960e+00 8.636866e+01 
2.914860e+00 8.448520e+01 
2.949410e+00 8.267695e+01 
2.984440e+00 8.089819e+01 
3.019760e+00 7.915484e+01 
3.054730e+00 7.747889e+01 
3.089030e+00 7.589060e+01 
3.124060e+00 7.431473e+01 
3.159560e+00 7.276281e+01 
3.194710e+00 7.127586e+01 
3.229010e+00 6.986684e+01 
3.263320e+00 6.848537e+01 
3.297930e+00 6.713263e+01 
3.332830e+00 6.581048e+01 
3.368040e+00 6.451571e+01 
3.403300e+00 6.325646e+01 
3.438450e+00 6.203325e+01 
3.473060e+00 6.086074e+01 
3.508440e+00 5.969404e+01 
3.543110e+00 5.858087e+01 
3.577470e+00 5.750480e+01 
3.613040e+00 5.642101e+01 
3.648120e+00 5.538327e+01 
3.682910e+00 5.437921e+01 
3.718050e+00 5.338851e+01 
3.753320e+00 5.242174e+01 
3.787980e+00 5.149888e+01 
3.822290e+00 5.060648e+01 
3.857020e+00 4.972330e+01 
3.891920e+00 4.885862e+01 
3.926650e+00 4.802121e+01 
3.961970e+00 4.718962e+01 
3.997360e+00 4.637553e+01 
4.031670e+00 4.560550e+01 
4.066330e+00 4.484855e+01 
4.101420e+00 4.409984e+01 
4.136200e+00 4.337351e+01 
4.170810e+00 4.266710e+01 
4.206250e+00 4.196049e+01 
4.241580e+00 4.127216e+01 
4.276300e+00 4.061396e+01 
4.310970e+00 3.997285e+01 
4.346120e+00 3.933613e+01 
4.380600e+00 3.872349e+01 
4.414730e+00 3.813008e+01 
4.450350e+00 3.752854e+01 
4.485320e+00 3.695067e+01 
4.519810e+00 3.639116e+01 
4.555430e+00 3.582482e+01 
4.590870e+00 3.527485e+01 
4.625480e+00 3.475211e+01 
4.659910e+00 3.424262e+01 
4.695230e+00 3.373013e+01 
4.729960e+00 3.323637e+01 
4.764450e+00 3.275635e+01 
4.799530e+00 3.227876e+01 
4.834910e+00 3.180672e+01 
4.869700e+00 3.135253e+01 
4.904370e+00 3.090885e+01 
4.939450e+00 3.046903e+01 
4.973940e+00 3.004592e+01 
5.008430e+00 2.963082e+01 
5.043810e+00 2.921394e+01 
5.078840e+00 2.880953e+01 
5.113500e+00 2.841689e+01 
5.148890e+00 2.802429e+01 
5.184210e+00 2.763986e+01 
5.219060e+00 2.726773e+01 
5.253660e+00 2.690541e+01 
5.288570e+00 2.654648e+01 
5.323420e+00 2.619574e+01 
5.358440e+00 2.585083e+01 
5.393590e+00 2.551086e+01 
5.428310e+00 2.518078e+01 
5.462800e+00 2.485850e+01 
5.497640e+00 2.453864e+01 
5.532670e+00 2.422417e+01 
5.567280e+00 2.391933e+01 
5.602000e+00 2.361875e+01 
5.637270e+00 2.331901e+01 
5.672410e+00 2.302558e+01 
5.707020e+00 2.274146e+01 
5.742040e+00 2.245937e+01 
5.777430e+00 2.217922e+01 
5.812210e+00 2.190851e+01 
5.846820e+00 2.164419e+01 
5.881610e+00 2.138300e+01 
5.916510e+00 2.112527e+01 
5.951600e+00 2.087125e+01 
5.986560e+00 2.062269e+01 
6.021830e+00 2.037598e+01 
6.056490e+00 2.013748e+01 
6.091160e+00 1.990273e+01 
6.125830e+00 1.967168e+01 
6.161090e+00 1.944062e+01 
6.195760e+00 1.921746e+01 
6.230420e+00 1.899782e+01 
6.265690e+00 1.877782e+01 
6.300950e+00 1.856244e+01 
6.335620e+00 1.835391e+01 
6.370880e+00 1.814507e+01 
6.405550e+00 1.794288e+01 
6.440220e+00 1.774374e+01 
6.475480e+00 1.754426e+01 
6.510150e+00 1.735136e+01 
6.544810e+00 1.716206e+01 
6.580080e+00 1.697228e+01 
6.614750e+00 1.678848e+01 
6.649410e+00 1.660792e+01 
6.684080e+00 1.643003e+01 
6.719340e+00 1.625174e+01 
6.754010e+00 1.607900e+01 
6.788680e+00 1.590878e+01 
6.823940e+00 1.573814e+01 
6.859800e+00 1.556712e+01 
6.894470e+00 1.540476e+01 
6.929140e+00 1.524490e+01 
6.963800e+00 1.508732e+01 
6.999070e+00 1.492919e+01 
7.033730e+00 1.477581e+01 
7.068400e+00 1.462450e+01 
7.103660e+00 1.447274e+01 
7.138330e+00 1.432590e+01 
7.173600e+00 1.417926e+01 
7.208260e+00 1.403712e+01 
7.243530e+00 1.389443e+01 
7.277600e+00 1.375826e+01 
7.312860e+00 1.361905e+01 
7.348120e+00 1.348172e+01 
7.382790e+00 1.334849e+01 
7.417460e+00 1.321760e+01 
7.452720e+00 1.308655e+01 
7.487390e+00 1.295938e+01 
7.522650e+00 1.283174e+01 
7.557320e+00 1.270821e+01 
7.591990e+00 1.258639e+01 
7.627250e+00 1.246409e+01 
7.662510e+00 1.234337e+01 
7.697180e+00 1.222593e+01 
7.731850e+00 1.210987e+01 
7.766510e+00 1.199531e+01 
7.801180e+00 1.188216e+01 
7.836440e+00 1.176909e+01 
7.871110e+00 1.165966e+01 
7.906380e+00 1.154972e+01 
7.941040e+00 1.144302e+01 
7.976310e+00 1.133585e+01 
8.011570e+00 1.123012e+01 
8.046240e+00 1.112742e+01 
8.080900e+00 1.102601e+01 
8.115570e+00 1.092580e+01 
8.150830e+00 1.082518e+01 
8.185500e+00 1.072743e+01 
8.220770e+00 1.062920e+01 
8.255430e+00 1.053382e+01 
8.290100e+00 1.043996e+01 
8.324770e+00 1.034725e+01 
8.359430e+00 1.025567e+01 
8.394700e+00 1.016357e+01 
8.429960e+00 1.007263e+01 
8.464630e+00 9.984303e+00 
8.499890e+00 9.895524e+00 
8.534560e+00 9.809247e+00 
8.569200e+00 9.724037e+00 
