# Parameters:
# omega_b = 0.022398, omega_m = 0.144252, n_s = 1.048425, h = 56.653543, w = -1.000000, sigma_8 = 0.895276
# z = 0.300000
#
# k[1/Mpc] # P(k):
8.694000e-04 1.059128e+04 
2.077466e-03 2.432931e+04 
3.285532e-03 3.588304e+04 
4.493598e-03 4.532168e+04 
5.701664e-03 5.275577e+04 
6.909730e-03 5.839659e+04 
8.117797e-03 6.256537e+04 
9.325863e-03 6.542072e+04 
1.053393e-02 6.714071e+04 
1.174199e-02 6.790340e+04 
1.295006e-02 6.782143e+04 
1.415813e-02 6.706261e+04 
1.536619e-02 6.577704e+04 
1.657426e-02 6.404847e+04 
1.778233e-02 6.193687e+04 
1.899039e-02 5.972083e+04 
2.019846e-02 5.757107e+04 
2.140652e-02 5.544891e+04 
2.261459e-02 5.332123e+04 
2.382266e-02 5.123218e+04 
2.503072e-02 4.922590e+04 
2.623879e-02 4.732088e+04 
2.744685e-02 4.552444e+04 
2.865492e-02 4.385393e+04 
2.986299e-02 4.231084e+04 
3.100100e-02 4.097221e+04 
3.220400e-02 3.967544e+04 
3.288100e-02 3.899792e+04 
3.424300e-02 3.774047e+04 
3.555100e-02 3.665007e+04 
3.686000e-02 3.566212e+04 
3.795000e-02 3.490631e+04 
3.929100e-02 3.405013e+04 
4.039800e-02 3.339073e+04 
4.164000e-02 3.269103e+04 
4.294400e-02 3.198570e+04 
4.415000e-02 3.135581e+04 
4.542900e-02 3.069162e+04 
4.660900e-02 3.008898e+04 
4.782300e-02 2.945368e+04 
4.892900e-02 2.887093e+04 
5.031200e-02 2.813091e+04 
5.155900e-02 2.744835e+04 
5.238100e-02 2.699117e+04 
5.378200e-02 2.620664e+04 
5.513400e-02 2.543771e+04 
5.627600e-02 2.478223e+04 
5.735300e-02 2.416631e+04 
5.870100e-02 2.340366e+04 
5.988700e-02 2.274271e+04 
6.113500e-02 2.206168e+04 
6.225900e-02 2.146146e+04 
6.340100e-02 2.087403e+04 
6.480200e-02 2.018400e+04 
6.601100e-02 1.961669e+04 
6.725500e-02 1.906345e+04 
6.829100e-02 1.863015e+04 
6.958600e-02 1.812201e+04 
7.071100e-02 1.771250e+04 
7.192300e-02 1.730179e+04 
7.307400e-02 1.694020e+04 
7.412300e-02 1.663450e+04 
7.550400e-02 1.626794e+04 
7.663100e-02 1.599187e+04 
7.791200e-02 1.570708e+04 
7.912700e-02 1.545851e+04 
8.027600e-02 1.524088e+04 
8.138400e-02 1.504284e+04 
8.272200e-02 1.481555e+04 
8.406100e-02 1.459786e+04 
8.534100e-02 1.439335e+04 
8.653800e-02 1.420355e+04 
8.759800e-02 1.403458e+04 
8.900300e-02 1.380612e+04 
9.009000e-02 1.362335e+04 
9.113300e-02 1.344303e+04 
9.239600e-02 1.322205e+04 
9.358000e-02 1.300946e+04 
9.496100e-02 1.275302e+04 
9.608400e-02 1.254318e+04 
9.727500e-02 1.232117e+04 
9.852600e-02 1.208392e+04 
9.973800e-02 1.185782e+04 
1.009000e-01 1.164472e+04 
1.020900e-01 1.143025e+04 
1.034000e-01 1.120136e+04 
1.046000e-01 1.099819e+04 
1.057200e-01 1.081542e+04 
1.069100e-01 1.062790e+04 
1.082500e-01 1.042852e+04 
1.093900e-01 1.026681e+04 
1.105400e-01 1.010970e+04 
1.116900e-01 9.962589e+03 
1.129600e-01 9.806458e+03 
1.142000e-01 9.663267e+03 
1.153300e-01 9.538449e+03 
1.166400e-01 9.401138e+03 
1.177800e-01 9.287679e+03 
1.190000e-01 9.170603e+03 
1.201200e-01 9.067988e+03 
1.213400e-01 8.959260e+03 
1.227100e-01 8.843029e+03 
1.238900e-01 8.745603e+03 
1.250700e-01 8.650771e+03 
1.263200e-01 8.552361e+03 
1.275500e-01 8.457119e+03 
1.287500e-01 8.366070e+03 
1.299900e-01 8.273707e+03 
1.311300e-01 8.189525e+03 
1.323500e-01 8.099658e+03 
1.335900e-01 8.009313e+03 
1.347100e-01 7.928057e+03 
1.359800e-01 7.836935e+03 
1.372100e-01 7.748716e+03 
1.384300e-01 7.662268e+03 
1.395700e-01 7.581152e+03 
1.407700e-01 7.497291e+03 
1.420300e-01 7.408913e+03 
1.432800e-01 7.323120e+03 
1.444500e-01 7.242646e+03 
1.456300e-01 7.163094e+03 
1.468900e-01 7.079637e+03 
1.480500e-01 7.004275e+03 
1.491700e-01 6.932851e+03 
1.503800e-01 6.857121e+03 
1.516400e-01 6.780037e+03 
1.528200e-01 6.710124e+03 
1.540200e-01 6.640375e+03 
1.551900e-01 6.574410e+03 
1.564300e-01 6.506005e+03 
1.576600e-01 6.440256e+03 
1.588700e-01 6.377757e+03 
1.600900e-01 6.315953e+03 
1.612700e-01 6.258040e+03 
1.625400e-01 6.196858e+03 
1.637600e-01 6.139848e+03 
1.649500e-01 6.085626e+03 
1.662200e-01 6.028850e+03 
1.674000e-01 5.977289e+03 
1.685000e-01 5.930019e+03 
1.697500e-01 5.877183e+03 
1.710300e-01 5.824027e+03 
1.722200e-01 5.775475e+03 
1.734400e-01 5.726258e+03 
1.746400e-01 5.678657e+03 
1.758700e-01 5.630658e+03 
1.770900e-01 5.583791e+03 
1.782700e-01 5.539207e+03 
1.794600e-01 5.494635e+03 
1.807000e-01 5.448728e+03 
1.819100e-01 5.404669e+03 
1.830100e-01 5.364850e+03 
1.842200e-01 5.321655e+03 
1.855000e-01 5.276720e+03 
1.867000e-01 5.235498e+03 
1.879200e-01 5.194249e+03 
1.890900e-01 5.155309e+03 
1.902800e-01 5.116335e+03 
1.915200e-01 5.076353e+03 
1.926900e-01 5.039247e+03 
1.939000e-01 5.001580e+03 
1.951700e-01 4.962661e+03 
1.963100e-01 4.928286e+03 
1.975100e-01 4.892723e+03 
1.987800e-01 4.855658e+03 
2.000100e-01 4.820366e+03 
2.012500e-01 4.785455e+03 
2.023400e-01 4.755199e+03 
2.036100e-01 4.720436e+03 
2.048900e-01 4.685887e+03 
2.060400e-01 4.655295e+03 
2.072200e-01 4.624337e+03 
2.084200e-01 4.593290e+03 
2.096900e-01 4.560905e+03 
2.109200e-01 4.529996e+03 
2.121100e-01 4.500290e+03 
2.132700e-01 4.471712e+03 
2.145200e-01 4.441340e+03 
2.157200e-01 4.412425e+03 
2.168800e-01 4.384771e+03 
2.180700e-01 4.356776e+03 
2.193400e-01 4.327176e+03 
2.206000e-01 4.297976e+03 
2.217500e-01 4.271679e+03 
2.229500e-01 4.244593e+03 
2.241400e-01 4.217698e+03 
2.253500e-01 4.190697e+03 
2.264900e-01 4.165581e+03 
2.277100e-01 4.138860e+03 
2.289900e-01 4.110994e+03 
2.301500e-01 4.086068e+03 
2.313600e-01 4.060389e+03 
2.325600e-01 4.034680e+03 
2.337700e-01 4.009084e+03 
2.350000e-01 3.983396e+03 
2.362000e-01 3.958485e+03 
2.374100e-01 3.933484e+03 
2.386500e-01 3.908185e+03 
2.399100e-01 3.882805e+03 
2.410400e-01 3.859970e+03 
2.422500e-01 3.835763e+03 
2.435000e-01 3.811064e+03 
2.447300e-01 3.787081e+03 
2.458700e-01 3.765189e+03 
2.470600e-01 3.742601e+03 
2.483300e-01 3.718787e+03 
2.495600e-01 3.696076e+03 
2.507600e-01 3.674280e+03 
2.519600e-01 3.652737e+03 
2.532200e-01 3.630387e+03 
2.543700e-01 3.610406e+03 
2.555500e-01 3.590257e+03 
2.568000e-01 3.569159e+03 
2.580100e-01 3.548975e+03 
2.592400e-01 3.529018e+03 
2.604100e-01 3.510390e+03 
2.616100e-01 3.491497e+03 
2.628400e-01 3.472351e+03 
2.640600e-01 3.453821e+03 
2.652200e-01 3.436494e+03 
2.664300e-01 3.418617e+03 
2.676500e-01 3.400793e+03 
2.688400e-01 3.383817e+03 
2.700700e-01 3.366600e+03 
2.712400e-01 3.350400e+03 
2.724800e-01 3.333418e+03 
2.736700e-01 3.317484e+03 
2.748800e-01 3.301646e+03 
2.761000e-01 3.285851e+03 
2.773200e-01 3.270227e+03 
2.785400e-01 3.254790e+03 
2.797000e-01 3.240306e+03 
2.808900e-01 3.225601e+03 
2.821400e-01 3.210319e+03 
2.833900e-01 3.195213e+03 
2.845500e-01 3.181552e+03 
2.857800e-01 3.167216e+03 
2.870300e-01 3.152804e+03 
2.882100e-01 3.139340e+03 
2.893900e-01 3.125965e+03 
2.906300e-01 3.112029e+03 
2.918900e-01 3.098019e+03 
2.930500e-01 3.085252e+03 
2.942500e-01 3.072200e+03 
2.954200e-01 3.059671e+03 
2.966500e-01 3.046633e+03 
2.978900e-01 3.033624e+03 
2.990400e-01 3.021679e+03 
3.002700e-01 3.009010e+03 
3.015100e-01 2.996358e+03 
3.026800e-01 2.984539e+03 
3.038500e-01 2.972833e+03 
3.050300e-01 2.961138e+03 
3.062600e-01 2.948914e+03 
3.075000e-01 2.936714e+03 
3.087000e-01 2.925023e+03 
3.099100e-01 2.913349e+03 
3.111200e-01 2.901841e+03 
3.123100e-01 2.890723e+03 
3.135300e-01 2.879433e+03 
3.147300e-01 2.868436e+03 
3.159900e-01 2.857001e+03 
3.171800e-01 2.846268e+03 
3.183700e-01 2.835610e+03 
3.196300e-01 2.824434e+03 
3.208400e-01 2.813805e+03 
3.220300e-01 2.803448e+03 
3.232000e-01 2.793310e+03 
3.244300e-01 2.782731e+03 
3.256700e-01 2.772167e+03 
3.269200e-01 2.761620e+03 
3.280800e-01 2.751921e+03 
3.292500e-01 2.742315e+03 
3.304800e-01 2.732337e+03 
3.317100e-01 2.722451e+03 
3.328900e-01 2.713053e+03 
3.340700e-01 2.703739e+03 
3.353600e-01 2.693594e+03 
3.365300e-01 2.684457e+03 
3.377100e-01 2.675321e+03 
3.389200e-01 2.666036e+03 
3.401600e-01 2.656607e+03 
3.413700e-01 2.647497e+03 
3.425300e-01 2.638844e+03 
3.437700e-01 2.629676e+03 
3.449800e-01 2.620809e+03 
3.461800e-01 2.612093e+03 
3.473600e-01 2.603611e+03 
3.485800e-01 2.594955e+03 
3.498100e-01 2.586305e+03 
3.510200e-01 2.577870e+03 
3.522000e-01 2.569716e+03 
3.533900e-01 2.561561e+03 
3.546400e-01 2.553002e+03 
3.558400e-01 2.544852e+03 
3.570600e-01 2.536638e+03 
3.582700e-01 2.528561e+03 
3.595000e-01 2.520421e+03 
3.607100e-01 2.512480e+03 
3.618900e-01 2.504800e+03 
3.631200e-01 2.496861e+03 
3.643200e-01 2.489182e+03 
3.655500e-01 2.481378e+03 
3.667300e-01 2.473953e+03 
3.679500e-01 2.466369e+03 
3.691900e-01 2.458726e+03 
3.703600e-01 2.451575e+03 
3.715700e-01 2.444239e+03 
3.727700e-01 2.437024e+03 
3.739900e-01 2.429729e+03 
3.752000e-01 2.422516e+03 
3.763900e-01 2.415479e+03 
3.775800e-01 2.408499e+03 
3.788200e-01 2.401286e+03 
3.800300e-01 2.394305e+03 
3.812100e-01 2.387505e+03 
3.824200e-01 2.380558e+03 
3.836100e-01 2.373779e+03 
3.848600e-01 2.366716e+03 
3.860400e-01 2.360103e+03 
3.872400e-01 2.353430e+03 
3.884600e-01 2.346647e+03 
3.896500e-01 2.340063e+03 
3.908700e-01 2.333367e+03 
3.920600e-01 2.326886e+03 
3.933100e-01 2.320132e+03 
3.945300e-01 2.313594e+03 
3.957200e-01 2.307250e+03 
3.969300e-01 2.300845e+03 
3.981700e-01 2.294334e+03 
3.993500e-01 2.288185e+03 
4.094840e-01 2.236886e+03 
4.272360e-01 2.152642e+03 
4.454600e-01 2.072960e+03 
4.630560e-01 2.001407e+03 
4.804610e-01 1.935416e+03 
4.980690e-01 1.873187e+03 
5.159230e-01 1.814054e+03 
5.317440e-01 1.765067e+03 
5.489640e-01 1.714542e+03 
5.671990e-01 1.664421e+03 
5.838690e-01 1.621074e+03 
6.018840e-01 1.576837e+03 
6.202330e-01 1.534054e+03 
6.379250e-01 1.494787e+03 
6.545410e-01 1.459609e+03 
6.714560e-01 1.425268e+03 
6.892080e-01 1.390554e+03 
7.066010e-01 1.357787e+03 
7.240540e-01 1.326224e+03 
7.420450e-01 1.294594e+03 
7.593780e-01 1.265151e+03 
7.764720e-01 1.237091e+03 
7.942840e-01 1.208725e+03 
8.116170e-01 1.181739e+03 
8.288310e-01 1.155605e+03 
8.462240e-01 1.129983e+03 
8.631980e-01 1.105701e+03 
8.810700e-01 1.080812e+03 
8.989410e-01 1.056528e+03 
9.166330e-01 1.033131e+03 
9.345640e-01 1.009987e+03 
9.515980e-01 9.886266e+02 
9.688720e-01 9.675175e+02 
9.865640e-01 9.463761e+02 
1.031870e+00 8.947297e+02 
1.063490e+00 8.605870e+02 
1.097920e+00 8.252690e+02 
1.134370e+00 7.898747e+02 
1.167730e+00 7.590929e+02 
1.203830e+00 7.274127e+02 
1.240470e+00 6.971088e+02 
1.275790e+00 6.692594e+02 
1.309140e+00 6.443775e+02 
1.342970e+00 6.203162e+02 
1.378420e+00 5.964253e+02 
1.413200e+00 5.741174e+02 
1.448110e+00 5.528341e+02 
1.484090e+00 5.320217e+02 
1.518820e+00 5.129910e+02 
1.552880e+00 4.951021e+02 
1.588630e+00 4.773051e+02 
1.623230e+00 4.608861e+02 
1.657720e+00 4.453017e+02 
1.692450e+00 4.303826e+02 
1.726400e+00 4.163474e+02 
1.762200e+00 4.022886e+02 
1.797880e+00 3.889297e+02 
1.833270e+00 3.762908e+02 
1.869070e+00 3.640928e+02 
1.903200e+00 3.529449e+02 
1.937740e+00 3.421485e+02 
1.973190e+00 3.315774e+02 
2.007440e+00 3.217865e+02 
2.042160e+00 3.122632e+02 
2.077900e+00 3.028610e+02 
2.112390e+00 2.941712e+02 
2.146220e+00 2.860021e+02 
2.181600e+00 2.777700e+02 
2.216930e+00 2.698979e+02 
2.250760e+00 2.626558e+02 
2.286500e+00 2.552939e+02 
2.321770e+00 2.483069e+02 
2.355950e+00 2.417837e+02 
2.391280e+00 2.353176e+02 
2.426240e+00 2.291635e+02 
2.460670e+00 2.233182e+02 
2.495640e+00 2.175851e+02 
2.531080e+00 2.119908e+02 
2.566220e+00 2.066376e+02 
2.600830e+00 2.015469e+02 
2.635080e+00 1.966796e+02 
2.670340e+00 1.918597e+02 
2.705970e+00 1.871608e+02 
2.740040e+00 1.828178e+02 
2.774520e+00 1.785552e+02 
2.809730e+00 1.743636e+02 
2.844390e+00 1.703779e+02 
2.879960e+00 1.664166e+02 
2.914860e+00 1.626542e+02 
2.949410e+00 1.590471e+02 
2.984440e+00 1.555060e+02 
3.019760e+00 1.520410e+02 
3.054730e+00 1.487139e+02 
3.089030e+00 1.455682e+02 
3.124060e+00 1.424508e+02 
3.159560e+00 1.393853e+02 
3.194710e+00 1.364531e+02 
3.229010e+00 1.336771e+02 
3.263320e+00 1.309615e+02 
3.297930e+00 1.283048e+02 
3.332830e+00 1.257122e+02 
3.368040e+00 1.231763e+02 
3.403300e+00 1.207123e+02 
3.438450e+00 1.183233e+02 
3.473060e+00 1.160348e+02 
3.508440e+00 1.137622e+02 
3.543110e+00 1.115951e+02 
3.577470e+00 1.095038e+02 
3.613040e+00 1.073989e+02 
3.648120e+00 1.053862e+02 
3.682910e+00 1.034402e+02 
3.718050e+00 1.015225e+02 
3.753320e+00 9.965263e+01 
3.787980e+00 9.786981e+01 
3.822290e+00 9.614714e+01 
3.857020e+00 9.444409e+01 
3.891920e+00 9.277783e+01 
3.926650e+00 9.116592e+01 
3.961970e+00 8.956611e+01 
3.997360e+00 8.800176e+01 
4.031670e+00 8.652263e+01 
4.066330e+00 8.507032e+01 
4.101420e+00 8.363409e+01 
4.136200e+00 8.224289e+01 
4.170810e+00 8.088998e+01 
4.206250e+00 7.953812e+01 
4.241580e+00 7.822160e+01 
4.276300e+00 7.696374e+01 
4.310970e+00 7.573917e+01 
4.346120e+00 7.452352e+01 
4.380600e+00 7.335469e+01 
4.414730e+00 7.222266e+01 
4.450350e+00 7.107646e+01 
4.485320e+00 6.997541e+01 
4.519810e+00 6.891011e+01 
4.555430e+00 6.783215e+01 
4.590870e+00 6.678563e+01 
4.625480e+00 6.579143e+01 
4.659910e+00 6.482249e+01 
4.695230e+00 6.384868e+01 
4.729960e+00 6.291059e+01 
4.764450e+00 6.199881e+01 
4.799530e+00 6.109194e+01 
4.834910e+00 6.019564e+01 
4.869700e+00 5.933375e+01 
4.904370e+00 5.849189e+01 
4.939450e+00 5.765750e+01 
4.973940e+00 5.685522e+01 
5.008430e+00 5.606814e+01 
5.043810e+00 5.527775e+01 
5.078840e+00 5.451104e+01 
5.113500e+00 5.376667e+01 
5.148890e+00 5.302269e+01 
5.184210e+00 5.229422e+01 
5.219060e+00 5.158911e+01 
5.253660e+00 5.090279e+01 
5.288570e+00 5.022288e+01 
5.323420e+00 4.955845e+01 
5.358440e+00 4.890503e+01 
5.393590e+00 4.826095e+01 
5.428310e+00 4.763566e+01 
5.462800e+00 4.702518e+01 
5.497640e+00 4.641926e+01 
5.532670e+00 4.582353e+01 
5.567280e+00 4.524604e+01 
5.602000e+00 4.467662e+01 
5.637270e+00 4.410866e+01 
5.672410e+00 4.355265e+01 
5.707020e+00 4.301429e+01 
5.742040e+00 4.247965e+01 
5.777430e+00 4.194869e+01 
5.812210e+00 4.143562e+01 
5.846820e+00 4.093445e+01 
5.881610e+00 4.043918e+01 
5.916510e+00 3.995046e+01 
5.951600e+00 3.946866e+01 
5.986560e+00 3.899713e+01 
6.021830e+00 3.852912e+01 
6.056490e+00 3.807657e+01 
6.091160e+00 3.763103e+01 
6.125830e+00 3.719252e+01 
6.161090e+00 3.675390e+01 
6.195760e+00 3.633006e+01 
6.230420e+00 3.591291e+01 
6.265690e+00 3.549510e+01 
6.300950e+00 3.508570e+01 
6.335620e+00 3.468935e+01 
6.370880e+00 3.429243e+01 
6.405550e+00 3.390793e+01 
6.440220e+00 3.352914e+01 
6.475480e+00 3.314973e+01 
6.510150e+00 3.278274e+01 
6.544810e+00 3.242234e+01 
6.580080e+00 3.206106e+01 
6.614750e+00 3.171118e+01 
6.649410e+00 3.136723e+01 
6.684080e+00 3.102832e+01 
6.719340e+00 3.068867e+01 
6.754010e+00 3.035947e+01 
6.788680e+00 3.003480e+01 
6.823940e+00 2.970936e+01 
6.859800e+00 2.938320e+01 
6.894470e+00 2.907335e+01 
6.929140e+00 2.876819e+01 
6.963800e+00 2.846740e+01 
6.999070e+00 2.816557e+01 
7.033730e+00 2.787245e+01 
7.068400e+00 2.758331e+01 
7.103660e+00 2.729333e+01 
7.138330e+00 2.701266e+01 
7.173600e+00 2.673211e+01 
7.208260e+00 2.646018e+01 
7.243530e+00 2.618725e+01 
7.277600e+00 2.592664e+01 
7.312860e+00 2.566010e+01 
7.348120e+00 2.539718e+01 
7.382790e+00 2.514213e+01 
7.417460e+00 2.489133e+01 
7.452720e+00 2.464010e+01 
7.487390e+00 2.439635e+01 
7.522650e+00 2.415172e+01 
7.557320e+00 2.391473e+01 
7.591990e+00 2.368096e+01 
7.627250e+00 2.344630e+01 
7.662510e+00 2.321472e+01 
7.697180e+00 2.298920e+01 
7.731850e+00 2.276628e+01 
7.766510e+00 2.254626e+01 
7.801180e+00 2.232897e+01 
7.836440e+00 2.211166e+01 
7.871110e+00 2.190123e+01 
7.906380e+00 2.168986e+01 
7.941040e+00 2.148476e+01 
7.976310e+00 2.127863e+01 
8.011570e+00 2.107512e+01 
8.046240e+00 2.087750e+01 
8.080900e+00 2.068237e+01 
8.115570e+00 2.048953e+01 
8.150830e+00 2.029568e+01 
8.185500e+00 2.010741e+01 
8.220770e+00 1.991823e+01 
8.255430e+00 1.973458e+01 
8.290100e+00 1.955360e+01 
8.324770e+00 1.937485e+01 
8.359430e+00 1.919828e+01 
8.394700e+00 1.902076e+01 
8.429960e+00 1.884539e+01 
8.464630e+00 1.867498e+01 
8.499890e+00 1.850372e+01 
8.534560e+00 1.833732e+01 
8.569200e+00 1.817301e+01 
