# Parameters:
# omega_b = 0.022445, omega_m = 0.145354, n_s = 1.002756, h = 55.236220, w = -1.000000, sigma_8 = 0.882677
# z = 0.300000
#
# k[1/Mpc] # P(k):
8.694000e-04 1.288120e+04 
2.077466e-03 2.843031e+04 
3.285532e-03 4.110631e+04 
4.493598e-03 5.123361e+04 
5.701664e-03 5.905010e+04 
6.909730e-03 6.485288e+04 
8.117797e-03 6.903221e+04 
9.325863e-03 7.178401e+04 
1.053393e-02 7.331776e+04 
1.174199e-02 7.383687e+04 
1.295006e-02 7.346953e+04 
1.415813e-02 7.240056e+04 
1.536619e-02 7.079368e+04 
1.657426e-02 6.873594e+04 
1.778233e-02 6.628615e+04 
1.899039e-02 6.376259e+04 
2.019846e-02 6.135762e+04 
2.140652e-02 5.900787e+04 
2.261459e-02 5.666464e+04 
2.382266e-02 5.437137e+04 
2.503072e-02 5.217327e+04 
2.623879e-02 5.008822e+04 
2.744685e-02 4.812217e+04 
2.865492e-02 4.629284e+04 
2.986299e-02 4.460087e+04 
3.100100e-02 4.313020e+04 
3.220400e-02 4.170213e+04 
3.288100e-02 4.095404e+04 
3.424300e-02 3.956206e+04 
3.555100e-02 3.835128e+04 
3.686000e-02 3.725090e+04 
3.795000e-02 3.640727e+04 
3.929100e-02 3.545009e+04 
4.039800e-02 3.471309e+04 
4.164000e-02 3.393228e+04 
4.294400e-02 3.314889e+04 
4.415000e-02 3.245266e+04 
4.542900e-02 3.172485e+04 
4.660900e-02 3.106884e+04 
4.782300e-02 3.038477e+04 
4.892900e-02 2.976185e+04 
5.031200e-02 2.897744e+04 
5.155900e-02 2.825999e+04 
5.238100e-02 2.778205e+04 
5.378200e-02 2.696579e+04 
5.513400e-02 2.616984e+04 
5.627600e-02 2.549359e+04 
5.735300e-02 2.485928e+04 
5.870100e-02 2.407470e+04 
5.988700e-02 2.339480e+04 
6.113500e-02 2.269378e+04 
6.225900e-02 2.207500e+04 
6.340100e-02 2.146814e+04 
6.480200e-02 2.075350e+04 
6.601100e-02 2.016369e+04 
6.725500e-02 1.958631e+04 
6.829100e-02 1.913197e+04 
6.958600e-02 1.859729e+04 
7.071100e-02 1.816429e+04 
7.192300e-02 1.772823e+04 
7.307400e-02 1.734279e+04 
7.412300e-02 1.701576e+04 
7.550400e-02 1.662202e+04 
7.663100e-02 1.632474e+04 
7.791200e-02 1.601729e+04 
7.912700e-02 1.574890e+04 
8.027600e-02 1.551410e+04 
8.138400e-02 1.530092e+04 
8.272200e-02 1.505728e+04 
8.406100e-02 1.482528e+04 
8.534100e-02 1.460922e+04 
8.653800e-02 1.441030e+04 
8.759800e-02 1.423423e+04 
8.900300e-02 1.399774e+04 
9.009000e-02 1.380974e+04 
9.113300e-02 1.362515e+04 
9.239600e-02 1.339963e+04 
9.358000e-02 1.318338e+04 
9.496100e-02 1.292327e+04 
9.608400e-02 1.271071e+04 
9.727500e-02 1.248604e+04 
9.852600e-02 1.224616e+04 
9.973800e-02 1.201752e+04 
1.009000e-01 1.180200e+04 
1.020900e-01 1.158478e+04 
1.034000e-01 1.135269e+04 
1.046000e-01 1.114639e+04 
1.057200e-01 1.096016e+04 
1.069100e-01 1.076881e+04 
1.082500e-01 1.056444e+04 
1.093900e-01 1.039810e+04 
1.105400e-01 1.023613e+04 
1.116900e-01 1.008360e+04 
1.129600e-01 9.921427e+03 
1.142000e-01 9.771967e+03 
1.153300e-01 9.641468e+03 
1.166400e-01 9.497558e+03 
1.177800e-01 9.378507e+03 
1.190000e-01 9.255592e+03 
1.201200e-01 9.148037e+03 
1.213400e-01 9.034105e+03 
1.227100e-01 8.912884e+03 
1.238900e-01 8.811444e+03 
1.250700e-01 8.713285e+03 
1.263200e-01 8.611673e+03 
1.275500e-01 8.513898e+03 
1.287500e-01 8.420701e+03 
1.299900e-01 8.326593e+03 
1.311300e-01 8.241034e+03 
1.323500e-01 8.150019e+03 
1.335900e-01 8.058644e+03 
1.347100e-01 7.976623e+03 
1.359800e-01 7.884664e+03 
1.372100e-01 7.795678e+03 
1.384300e-01 7.708452e+03 
1.395700e-01 7.626541e+03 
1.407700e-01 7.541841e+03 
1.420300e-01 7.452387e+03 
1.432800e-01 7.365551e+03 
1.444500e-01 7.283842e+03 
1.456300e-01 7.203071e+03 
1.468900e-01 7.118140e+03 
1.480500e-01 7.041390e+03 
1.491700e-01 6.968560e+03 
1.503800e-01 6.891225e+03 
1.516400e-01 6.812481e+03 
1.528200e-01 6.740939e+03 
1.540200e-01 6.669567e+03 
1.551900e-01 6.601978e+03 
1.564300e-01 6.531867e+03 
1.576600e-01 6.464460e+03 
1.588700e-01 6.400363e+03 
1.600900e-01 6.336980e+03 
1.612700e-01 6.277600e+03 
1.625400e-01 6.214870e+03 
1.637600e-01 6.156457e+03 
1.649500e-01 6.100922e+03 
1.662200e-01 6.042788e+03 
1.674000e-01 5.990082e+03 
1.685000e-01 5.941762e+03 
1.697500e-01 5.887817e+03 
1.710300e-01 5.833610e+03 
1.722200e-01 5.784099e+03 
1.734400e-01 5.734038e+03 
1.746400e-01 5.685625e+03 
1.758700e-01 5.636843e+03 
1.770900e-01 5.589280e+03 
1.782700e-01 5.544035e+03 
1.794600e-01 5.498857e+03 
1.807000e-01 5.452363e+03 
1.819100e-01 5.407741e+03 
1.830100e-01 5.367462e+03 
1.842200e-01 5.323777e+03 
1.855000e-01 5.278334e+03 
1.867000e-01 5.236666e+03 
1.879200e-01 5.194971e+03 
1.890900e-01 5.155609e+03 
1.902800e-01 5.116210e+03 
1.915200e-01 5.075793e+03 
1.926900e-01 5.038278e+03 
1.939000e-01 5.000185e+03 
1.951700e-01 4.960824e+03 
1.963100e-01 4.926053e+03 
1.975100e-01 4.890059e+03 
1.987800e-01 4.852545e+03 
2.000100e-01 4.816815e+03 
2.012500e-01 4.781446e+03 
2.023400e-01 4.750793e+03 
2.036100e-01 4.715567e+03 
2.048900e-01 4.680533e+03 
2.060400e-01 4.649512e+03 
2.072200e-01 4.618118e+03 
2.084200e-01 4.586605e+03 
2.096900e-01 4.553734e+03 
2.109200e-01 4.522361e+03 
2.121100e-01 4.492193e+03 
2.132700e-01 4.463170e+03 
2.145200e-01 4.432325e+03 
2.157200e-01 4.402941e+03 
2.168800e-01 4.374830e+03 
2.180700e-01 4.346372e+03 
2.193400e-01 4.316273e+03 
2.206000e-01 4.286561e+03 
2.217500e-01 4.259804e+03 
2.229500e-01 4.232243e+03 
2.241400e-01 4.204844e+03 
2.253500e-01 4.177336e+03 
2.264900e-01 4.151749e+03 
2.277100e-01 4.124507e+03 
2.289900e-01 4.096077e+03 
2.301500e-01 4.070646e+03 
2.313600e-01 4.044446e+03 
2.325600e-01 4.018175e+03 
2.337700e-01 3.992020e+03 
2.350000e-01 3.965769e+03 
2.362000e-01 3.940299e+03 
2.374100e-01 3.914719e+03 
2.386500e-01 3.888834e+03 
2.399100e-01 3.862867e+03 
2.410400e-01 3.839493e+03 
2.422500e-01 3.814715e+03 
2.435000e-01 3.789434e+03 
2.447300e-01 3.764884e+03 
2.458700e-01 3.742470e+03 
2.470600e-01 3.719343e+03 
2.483300e-01 3.694960e+03 
2.495600e-01 3.671715e+03 
2.507600e-01 3.649415e+03 
2.519600e-01 3.627375e+03 
2.532200e-01 3.604508e+03 
2.543700e-01 3.584085e+03 
2.555500e-01 3.563502e+03 
2.568000e-01 3.541951e+03 
2.580100e-01 3.521333e+03 
2.592400e-01 3.500974e+03 
2.604100e-01 3.481984e+03 
2.616100e-01 3.462724e+03 
2.628400e-01 3.443204e+03 
2.640600e-01 3.424347e+03 
2.652200e-01 3.406727e+03 
2.664300e-01 3.388547e+03 
2.676500e-01 3.370421e+03 
2.688400e-01 3.353181e+03 
2.700700e-01 3.335711e+03 
2.712400e-01 3.319274e+03 
2.724800e-01 3.302042e+03 
2.736700e-01 3.285889e+03 
2.748800e-01 3.269849e+03 
2.761000e-01 3.253852e+03 
2.773200e-01 3.238028e+03 
2.785400e-01 3.222400e+03 
2.797000e-01 3.207751e+03 
2.808900e-01 3.192877e+03 
2.821400e-01 3.177420e+03 
2.833900e-01 3.162141e+03 
2.845500e-01 3.148330e+03 
2.857800e-01 3.133837e+03 
2.870300e-01 3.119266e+03 
2.882100e-01 3.105655e+03 
2.893900e-01 3.092135e+03 
2.906300e-01 3.078049e+03 
2.918900e-01 3.063888e+03 
2.930500e-01 3.050984e+03 
2.942500e-01 3.037790e+03 
2.954200e-01 3.025127e+03 
2.966500e-01 3.011947e+03 
2.978900e-01 2.998797e+03 
2.990400e-01 2.986722e+03 
3.002700e-01 2.973915e+03 
3.015100e-01 2.961125e+03 
3.026800e-01 2.949177e+03 
3.038500e-01 2.937343e+03 
3.050300e-01 2.925519e+03 
3.062600e-01 2.913165e+03 
3.075000e-01 2.900834e+03 
3.087000e-01 2.889018e+03 
3.099100e-01 2.877218e+03 
3.111200e-01 2.865587e+03 
3.123100e-01 2.854350e+03 
3.135300e-01 2.842940e+03 
3.147300e-01 2.831824e+03 
3.159900e-01 2.820266e+03 
3.171800e-01 2.809421e+03 
3.183700e-01 2.798656e+03 
3.196300e-01 2.787366e+03 
3.208400e-01 2.776628e+03 
3.220300e-01 2.766166e+03 
3.232000e-01 2.755930e+03 
3.244300e-01 2.745253e+03 
3.256700e-01 2.734590e+03 
3.269200e-01 2.723942e+03 
3.280800e-01 2.714152e+03 
3.292500e-01 2.704460e+03 
3.304800e-01 2.694394e+03 
3.317100e-01 2.684420e+03 
3.328900e-01 2.674939e+03 
3.340700e-01 2.665541e+03 
3.353600e-01 2.655315e+03 
3.365300e-01 2.646106e+03 
3.377100e-01 2.636899e+03 
3.389200e-01 2.627541e+03 
3.401600e-01 2.618038e+03 
3.413700e-01 2.608860e+03 
3.425300e-01 2.600147e+03 
3.437700e-01 2.590914e+03 
3.449800e-01 2.581985e+03 
3.461800e-01 2.573207e+03 
3.473600e-01 2.564668e+03 
3.485800e-01 2.555960e+03 
3.498100e-01 2.547257e+03 
3.510200e-01 2.538771e+03 
3.522000e-01 2.530566e+03 
3.533900e-01 2.522362e+03 
3.546400e-01 2.513761e+03 
3.558400e-01 2.505572e+03 
3.570600e-01 2.497318e+03 
3.582700e-01 2.489202e+03 
3.595000e-01 2.481022e+03 
3.607100e-01 2.473046e+03 
3.618900e-01 2.465333e+03 
3.631200e-01 2.457362e+03 
3.643200e-01 2.449650e+03 
3.655500e-01 2.441812e+03 
3.667300e-01 2.434355e+03 
3.679500e-01 2.426746e+03 
3.691900e-01 2.419077e+03 
3.703600e-01 2.411901e+03 
3.715700e-01 2.404540e+03 
3.727700e-01 2.397299e+03 
3.739900e-01 2.389980e+03 
3.752000e-01 2.382746e+03 
3.763900e-01 2.375690e+03 
3.775800e-01 2.368690e+03 
3.788200e-01 2.361455e+03 
3.800300e-01 2.354453e+03 
3.812100e-01 2.347637e+03 
3.824200e-01 2.340676e+03 
3.836100e-01 2.333883e+03 
3.848600e-01 2.326806e+03 
3.860400e-01 2.320178e+03 
3.872400e-01 2.313491e+03 
3.884600e-01 2.306696e+03 
3.896500e-01 2.300102e+03 
3.908700e-01 2.293393e+03 
3.920600e-01 2.286901e+03 
3.933100e-01 2.280136e+03 
3.945300e-01 2.273585e+03 
3.957200e-01 2.267232e+03 
3.969300e-01 2.260818e+03 
3.981700e-01 2.254296e+03 
3.993500e-01 2.248138e+03 
4.094840e-01 2.196768e+03 
4.272360e-01 2.112410e+03 
4.454600e-01 2.032615e+03 
4.630560e-01 1.960947e+03 
4.804610e-01 1.894847e+03 
4.980690e-01 1.832511e+03 
5.159230e-01 1.773300e+03 
5.317440e-01 1.724264e+03 
5.489640e-01 1.673725e+03 
5.671990e-01 1.623624e+03 
5.838690e-01 1.580332e+03 
6.018840e-01 1.536189e+03 
6.202330e-01 1.493547e+03 
6.379250e-01 1.454440e+03 
6.545410e-01 1.419443e+03 
6.714560e-01 1.385306e+03 
6.892080e-01 1.350830e+03 
7.066010e-01 1.318316e+03 
7.240540e-01 1.287018e+03 
7.420450e-01 1.255683e+03 
7.593780e-01 1.226534e+03 
7.764720e-01 1.198771e+03 
7.942840e-01 1.170723e+03 
8.116170e-01 1.144060e+03 
8.288310e-01 1.118256e+03 
8.462240e-01 1.092968e+03 
8.631980e-01 1.069017e+03 
8.810700e-01 1.044479e+03 
8.989410e-01 1.020553e+03 
9.166330e-01 9.975111e+02 
9.345640e-01 9.747315e+02 
9.515980e-01 9.537180e+02 
9.688720e-01 9.329604e+02 
9.865640e-01 9.121817e+02 
1.031870e+00 8.614689e+02 
1.063490e+00 8.279823e+02 
1.097920e+00 7.933699e+02 
1.134370e+00 7.587164e+02 
1.167730e+00 7.286059e+02 
1.203830e+00 6.976478e+02 
1.240470e+00 6.680589e+02 
1.275790e+00 6.408961e+02 
1.309140e+00 6.166438e+02 
1.342970e+00 5.932141e+02 
1.378420e+00 5.699669e+02 
1.413200e+00 5.482793e+02 
1.448110e+00 5.276055e+02 
1.484090e+00 5.074036e+02 
1.518820e+00 4.889459e+02 
1.552880e+00 4.716110e+02 
1.588630e+00 4.543760e+02 
1.623230e+00 4.384877e+02 
1.657720e+00 4.234172e+02 
1.692450e+00 4.089994e+02 
1.726400e+00 3.954474e+02 
1.762200e+00 3.818805e+02 
1.797880e+00 3.689974e+02 
1.833270e+00 3.568165e+02 
1.869070e+00 3.450682e+02 
1.903200e+00 3.343381e+02 
1.937740e+00 3.239523e+02 
1.973190e+00 3.137888e+02 
2.007440e+00 3.043813e+02 
2.042160e+00 2.952360e+02 
2.077900e+00 2.862125e+02 
2.112390e+00 2.778767e+02 
2.146220e+00 2.700448e+02 
2.181600e+00 2.621566e+02 
2.216930e+00 2.546174e+02 
2.250760e+00 2.476849e+02 
2.286500e+00 2.406411e+02 
2.321770e+00 2.339594e+02 
2.355950e+00 2.277240e+02 
2.391280e+00 2.215464e+02 
2.426240e+00 2.156694e+02 
2.460670e+00 2.100898e+02 
2.495640e+00 2.046197e+02 
2.531080e+00 1.992845e+02 
2.566220e+00 1.941815e+02 
2.600830e+00 1.893307e+02 
2.635080e+00 1.846948e+02 
2.670340e+00 1.801060e+02 
2.705970e+00 1.756340e+02 
2.740040e+00 1.715023e+02 
2.774520e+00 1.674488e+02 
2.809730e+00 1.634643e+02 
2.844390e+00 1.596767e+02 
2.879960e+00 1.559138e+02 
2.914860e+00 1.523414e+02 
2.949410e+00 1.489174e+02 
2.984440e+00 1.455573e+02 
3.019760e+00 1.422707e+02 
3.054730e+00 1.391160e+02 
3.089030e+00 1.361343e+02 
3.124060e+00 1.331802e+02 
3.159560e+00 1.302764e+02 
3.194710e+00 1.274996e+02 
3.229010e+00 1.248714e+02 
3.263320e+00 1.223016e+02 
3.297930e+00 1.197881e+02 
3.332830e+00 1.173360e+02 
3.368040e+00 1.149382e+02 
3.403300e+00 1.126091e+02 
3.438450e+00 1.103516e+02 
3.473060e+00 1.081895e+02 
3.508440e+00 1.060433e+02 
3.543110e+00 1.039970e+02 
3.577470e+00 1.020232e+02 
3.613040e+00 1.000368e+02 
3.648120e+00 9.813796e+01 
3.682910e+00 9.630256e+01 
3.718050e+00 9.449439e+01 
3.753320e+00 9.273172e+01 
3.787980e+00 9.105146e+01 
3.822290e+00 8.942830e+01 
3.857020e+00 8.782413e+01 
3.891920e+00 8.625492e+01 
3.926650e+00 8.473727e+01 
3.961970e+00 8.323131e+01 
3.997360e+00 8.175920e+01 
4.031670e+00 8.036751e+01 
4.066330e+00 7.900142e+01 
4.101420e+00 7.765065e+01 
4.136200e+00 7.634263e+01 
4.170810e+00 7.507078e+01 
4.206250e+00 7.380040e+01 
4.241580e+00 7.256344e+01 
4.276300e+00 7.138179e+01 
4.310970e+00 7.023159e+01 
4.346120e+00 6.909004e+01 
4.380600e+00 6.799281e+01 
4.414730e+00 6.693026e+01 
4.450350e+00 6.585464e+01 
4.485320e+00 6.482152e+01 
4.519810e+00 6.382225e+01 
4.555430e+00 6.281130e+01 
4.590870e+00 6.183000e+01 
4.625480e+00 6.089796e+01 
4.659910e+00 5.998970e+01 
4.695230e+00 5.907713e+01 
4.729960e+00 5.819818e+01 
4.764450e+00 5.734404e+01 
4.799530e+00 5.649472e+01 
4.834910e+00 5.565540e+01 
4.869700e+00 5.484853e+01 
4.904370e+00 5.406052e+01 
4.939450e+00 5.327963e+01 
4.973940e+00 5.252894e+01 
5.008430e+00 5.179256e+01 
5.043810e+00 5.105328e+01 
5.078840e+00 5.033630e+01 
5.113500e+00 4.964029e+01 
5.148890e+00 4.894483e+01 
5.184210e+00 4.826395e+01 
5.219060e+00 4.760501e+01 
5.253660e+00 4.696379e+01 
5.288570e+00 4.632863e+01 
5.323420e+00 4.570804e+01 
5.358440e+00 4.509788e+01 
5.393590e+00 4.449651e+01 
5.428310e+00 4.391284e+01 
5.462800e+00 4.334311e+01 
5.497640e+00 4.277770e+01 
5.532670e+00 4.222193e+01 
5.567280e+00 4.168324e+01 
5.602000e+00 4.115215e+01 
5.637270e+00 4.062258e+01 
5.672410e+00 4.010422e+01 
5.707020e+00 3.960237e+01 
5.742040e+00 3.910414e+01 
5.777430e+00 3.860941e+01 
5.812210e+00 3.813139e+01 
5.846820e+00 3.766461e+01 
5.881610e+00 3.720339e+01 
5.916510e+00 3.674833e+01 
5.951600e+00 3.629981e+01 
5.986560e+00 3.586094e+01 
6.021830e+00 3.542538e+01 
6.056490e+00 3.500432e+01 
6.091160e+00 3.458987e+01 
6.125830e+00 3.418200e+01 
6.161090e+00 3.377410e+01 
6.195760e+00 3.338007e+01 
6.230420e+00 3.299230e+01 
6.265690e+00 3.260394e+01 
6.300950e+00 3.222357e+01 
6.335620e+00 3.185535e+01 
6.370880e+00 3.148662e+01 
6.405550e+00 3.112955e+01 
6.440220e+00 3.077785e+01 
6.475480e+00 3.042560e+01 
6.510150e+00 3.008495e+01 
6.544810e+00 2.975052e+01 
6.580080e+00 2.941530e+01 
6.614750e+00 2.909069e+01 
6.649410e+00 2.877169e+01 
6.684080e+00 2.845741e+01 
6.719340e+00 2.814247e+01 
6.754010e+00 2.783728e+01 
6.788680e+00 2.753641e+01 
6.823940e+00 2.723484e+01 
6.859800e+00 2.693264e+01 
6.894470e+00 2.664564e+01 
6.929140e+00 2.636304e+01 
6.963800e+00 2.608450e+01 
6.999070e+00 2.580503e+01 
7.033730e+00 2.553377e+01 
7.068400e+00 2.526620e+01 
7.103660e+00 2.499788e+01 
7.138330e+00 2.473822e+01 
7.173600e+00 2.447877e+01 
7.208260e+00 2.422732e+01 
7.243530e+00 2.397494e+01 
7.277600e+00 2.373405e+01 
7.312860e+00 2.348773e+01 
7.348120e+00 2.324479e+01 
7.382790e+00 2.300913e+01 
7.417460e+00 2.277748e+01 
7.452720e+00 2.254549e+01 
7.487390e+00 2.232041e+01 
7.522650e+00 2.209453e+01 
7.557320e+00 2.187580e+01 
7.591990e+00 2.166008e+01 
7.627250e+00 2.144356e+01 
7.662510e+00 2.122988e+01 
7.697180e+00 2.102190e+01 
7.731850e+00 2.081636e+01 
7.766510e+00 2.061351e+01 
7.801180e+00 2.041318e+01 
7.836440e+00 2.021291e+01 
7.871110e+00 2.001901e+01 
7.906380e+00 1.982427e+01 
7.941040e+00 1.963530e+01 
7.976310e+00 1.944545e+01 
8.011570e+00 1.925808e+01 
8.046240e+00 1.907613e+01 
8.080900e+00 1.889649e+01 
8.115570e+00 1.871899e+01 
8.150830e+00 1.854065e+01 
8.185500e+00 1.836746e+01 
8.220770e+00 1.819343e+01 
8.255430e+00 1.802450e+01 
8.290100e+00 1.785811e+01 
8.324770e+00 1.769378e+01 
8.359430e+00 1.753147e+01 
8.394700e+00 1.736829e+01 
8.429960e+00 1.720714e+01 
8.464630e+00 1.705060e+01 
8.499890e+00 1.689328e+01 
8.534560e+00 1.674044e+01 
8.569200e+00 1.658952e+01 
