# Parameters:
# omega_b = 0.023122, omega_m = 0.134882, n_s = 1.040551, h = 64.921260, w = -1.000000, sigma_8 = 0.885827
# z = 0.300000
#
# k[1/Mpc] # P(k):
8.694000e-04 1.158817e+04 
2.077466e-03 2.632917e+04 
3.285532e-03 3.842379e+04 
4.493598e-03 4.805657e+04 
5.701664e-03 5.540968e+04 
6.909730e-03 6.078351e+04 
8.117797e-03 6.457525e+04 
9.325863e-03 6.698260e+04 
1.053393e-02 6.821084e+04 
1.174199e-02 6.845485e+04 
1.295006e-02 6.784545e+04 
1.415813e-02 6.656878e+04 
1.536619e-02 6.478538e+04 
1.657426e-02 6.259446e+04 
1.778233e-02 6.005459e+04 
1.899039e-02 5.738982e+04 
2.019846e-02 5.478858e+04 
2.140652e-02 5.228229e+04 
2.261459e-02 4.985360e+04 
2.382266e-02 4.753658e+04 
2.503072e-02 4.536683e+04 
2.623879e-02 4.335681e+04 
2.744685e-02 4.151288e+04 
2.865492e-02 3.983935e+04 
2.986299e-02 3.832994e+04 
3.100100e-02 3.705346e+04 
3.220400e-02 3.584535e+04 
3.288100e-02 3.522718e+04 
3.424300e-02 3.409970e+04 
3.555100e-02 3.314057e+04 
3.686000e-02 3.228451e+04 
3.795000e-02 3.163459e+04 
3.929100e-02 3.089886e+04 
4.039800e-02 3.032721e+04 
4.164000e-02 2.971239e+04 
4.294400e-02 2.907401e+04 
4.415000e-02 2.849032e+04 
4.542900e-02 2.785289e+04 
4.660900e-02 2.726071e+04 
4.782300e-02 2.661704e+04 
4.892900e-02 2.601740e+04 
5.031200e-02 2.524431e+04 
5.155900e-02 2.452415e+04 
5.238100e-02 2.404077e+04 
5.378200e-02 2.321139e+04 
5.513400e-02 2.240391e+04 
5.627600e-02 2.172286e+04 
5.735300e-02 2.109044e+04 
5.870100e-02 2.031927e+04 
5.988700e-02 1.966330e+04 
6.113500e-02 1.900061e+04 
6.225900e-02 1.842959e+04 
6.340100e-02 1.788269e+04 
6.480200e-02 1.725422e+04 
6.601100e-02 1.675235e+04 
6.725500e-02 1.627507e+04 
6.829100e-02 1.591126e+04 
6.958600e-02 1.549264e+04 
7.071100e-02 1.516332e+04 
7.192300e-02 1.483915e+04 
7.307400e-02 1.455836e+04 
7.412300e-02 1.432384e+04 
7.550400e-02 1.404555e+04 
7.663100e-02 1.383650e+04 
7.791200e-02 1.361961e+04 
7.912700e-02 1.342662e+04 
8.027600e-02 1.325369e+04 
8.138400e-02 1.309204e+04 
8.272200e-02 1.289964e+04 
8.406100e-02 1.270757e+04 
8.534100e-02 1.251823e+04 
8.653800e-02 1.233583e+04 
8.759800e-02 1.217004e+04 
8.900300e-02 1.194153e+04 
9.009000e-02 1.175628e+04 
9.113300e-02 1.157243e+04 
9.239600e-02 1.134689e+04 
9.358000e-02 1.113049e+04 
9.496100e-02 1.087200e+04 
9.608400e-02 1.066251e+04 
9.727500e-02 1.044266e+04 
9.852600e-02 1.021271e+04 
9.973800e-02 9.996327e+03 
1.009000e-01 9.794671e+03 
1.020900e-01 9.597417e+03 
1.034000e-01 9.389787e+03 
1.046000e-01 9.208479e+03 
1.057200e-01 9.050348e+03 
1.069100e-01 8.889878e+03 
1.082500e-01 8.724214e+03 
1.093900e-01 8.592686e+03 
1.105400e-01 8.466555e+03 
1.116900e-01 8.351768e+03 
1.129600e-01 8.230897e+03 
1.142000e-01 8.122078e+03 
1.153300e-01 8.027483e+03 
1.166400e-01 7.923847e+03 
1.177800e-01 7.837485e+03 
1.190000e-01 7.748026e+03 
1.201200e-01 7.667272e+03 
1.213400e-01 7.581284e+03 
1.227100e-01 7.484721e+03 
1.238900e-01 7.402703e+03 
1.250700e-01 7.319346e+03 
1.263200e-01 7.231517e+03 
1.275500e-01 7.143579e+03 
1.287500e-01 7.058249e+03 
1.299900e-01 6.969696e+03 
1.311300e-01 6.888388e+03 
1.323500e-01 6.800706e+03 
1.335900e-01 6.712559e+03 
1.347100e-01 6.633278e+03 
1.359800e-01 6.544825e+03 
1.372100e-01 6.460073e+03 
1.384300e-01 6.377661e+03 
1.395700e-01 6.301808e+03 
1.407700e-01 6.223640e+03 
1.420300e-01 6.143645e+03 
1.432800e-01 6.066009e+03 
1.444500e-01 5.995569e+03 
1.456300e-01 5.925946e+03 
1.468900e-01 5.854422e+03 
1.480500e-01 5.790288e+03 
1.491700e-01 5.730089e+03 
1.503800e-01 5.667007e+03 
1.516400e-01 5.602942e+03 
1.528200e-01 5.545474e+03 
1.540200e-01 5.488139e+03 
1.551900e-01 5.434103e+03 
1.564300e-01 5.378114e+03 
1.576600e-01 5.324202e+03 
1.588700e-01 5.272839e+03 
1.600900e-01 5.222020e+03 
1.612700e-01 5.173887e+03 
1.625400e-01 5.123038e+03 
1.637600e-01 5.075215e+03 
1.649500e-01 5.029468e+03 
1.662200e-01 4.981449e+03 
1.674000e-01 4.937183e+03 
1.685000e-01 4.896601e+03 
1.697500e-01 4.850891e+03 
1.710300e-01 4.804555e+03 
1.722200e-01 4.762234e+03 
1.734400e-01 4.718818e+03 
1.746400e-01 4.676807e+03 
1.758700e-01 4.634349e+03 
1.770900e-01 4.592694e+03 
1.782700e-01 4.553069e+03 
1.794600e-01 4.513422e+03 
1.807000e-01 4.472566e+03 
1.819100e-01 4.433357e+03 
1.830100e-01 4.398048e+03 
1.842200e-01 4.359769e+03 
1.855000e-01 4.319962e+03 
1.867000e-01 4.283690e+03 
1.879200e-01 4.247395e+03 
1.890900e-01 4.213186e+03 
1.902800e-01 4.179226e+03 
1.915200e-01 4.144390e+03 
1.926900e-01 4.112135e+03 
1.939000e-01 4.079643e+03 
1.951700e-01 4.046071e+03 
1.963100e-01 4.016490e+03 
1.975100e-01 3.986080e+03 
1.987800e-01 3.954385e+03 
2.000100e-01 3.924254e+03 
2.012500e-01 3.894557e+03 
2.023400e-01 3.868821e+03 
2.036100e-01 3.839264e+03 
2.048900e-01 3.809950e+03 
2.060400e-01 3.783992e+03 
2.072200e-01 3.757722e+03 
2.084200e-01 3.731359e+03 
2.096900e-01 3.703861e+03 
2.109200e-01 3.677614e+03 
2.121100e-01 3.652327e+03 
2.132700e-01 3.627997e+03 
2.145200e-01 3.602140e+03 
2.157200e-01 3.577477e+03 
2.168800e-01 3.553868e+03 
2.180700e-01 3.529969e+03 
2.193400e-01 3.504687e+03 
2.206000e-01 3.479724e+03 
2.217500e-01 3.457244e+03 
2.229500e-01 3.434089e+03 
2.241400e-01 3.411092e+03 
2.253500e-01 3.388005e+03 
2.264900e-01 3.366530e+03 
2.277100e-01 3.343712e+03 
2.289900e-01 3.319951e+03 
2.301500e-01 3.298696e+03 
2.313600e-01 3.276800e+03 
2.325600e-01 3.254981e+03 
2.337700e-01 3.233257e+03 
2.350000e-01 3.211455e+03 
2.362000e-01 3.190365e+03 
2.374100e-01 3.169259e+03 
2.386500e-01 3.147902e+03 
2.399100e-01 3.126478e+03 
2.410400e-01 3.107287e+03 
2.422500e-01 3.086954e+03 
2.435000e-01 3.066210e+03 
2.447300e-01 3.046080e+03 
2.458700e-01 3.027763e+03 
2.470600e-01 3.008864e+03 
2.483300e-01 2.988939e+03 
2.495600e-01 2.969950e+03 
2.507600e-01 2.951744e+03 
2.519600e-01 2.933751e+03 
2.532200e-01 2.915082e+03 
2.543700e-01 2.898394e+03 
2.555500e-01 2.881565e+03 
2.568000e-01 2.863944e+03 
2.580100e-01 2.847087e+03 
2.592400e-01 2.830395e+03 
2.604100e-01 2.814806e+03 
2.616100e-01 2.798993e+03 
2.628400e-01 2.782969e+03 
2.640600e-01 2.767435e+03 
2.652200e-01 2.752897e+03 
2.664300e-01 2.737898e+03 
2.676500e-01 2.722943e+03 
2.688400e-01 2.708669e+03 
2.700700e-01 2.694172e+03 
2.712400e-01 2.680532e+03 
2.724800e-01 2.666233e+03 
2.736700e-01 2.652793e+03 
2.748800e-01 2.639412e+03 
2.761000e-01 2.626066e+03 
2.773200e-01 2.612864e+03 
2.785400e-01 2.599812e+03 
2.797000e-01 2.587549e+03 
2.808900e-01 2.575099e+03 
2.821400e-01 2.562159e+03 
2.833900e-01 2.549367e+03 
2.845500e-01 2.537774e+03 
2.857800e-01 2.525608e+03 
2.870300e-01 2.513375e+03 
2.882100e-01 2.501947e+03 
2.893900e-01 2.490592e+03 
2.906300e-01 2.478760e+03 
2.918900e-01 2.466864e+03 
2.930500e-01 2.456024e+03 
2.942500e-01 2.444938e+03 
2.954200e-01 2.434296e+03 
2.966500e-01 2.423219e+03 
2.978900e-01 2.412165e+03 
2.990400e-01 2.402016e+03 
3.002700e-01 2.391252e+03 
3.015100e-01 2.380503e+03 
3.026800e-01 2.370461e+03 
3.038500e-01 2.360513e+03 
3.050300e-01 2.350575e+03 
3.062600e-01 2.340204e+03 
3.075000e-01 2.329852e+03 
3.087000e-01 2.319932e+03 
3.099100e-01 2.310025e+03 
3.111200e-01 2.300257e+03 
3.123100e-01 2.290820e+03 
3.135300e-01 2.281236e+03 
3.147300e-01 2.271898e+03 
3.159900e-01 2.262188e+03 
3.171800e-01 2.253080e+03 
3.183700e-01 2.244040e+03 
3.196300e-01 2.234559e+03 
3.208400e-01 2.225540e+03 
3.220300e-01 2.216752e+03 
3.232000e-01 2.208160e+03 
3.244300e-01 2.199198e+03 
3.256700e-01 2.190247e+03 
3.269200e-01 2.181310e+03 
3.280800e-01 2.173091e+03 
3.292500e-01 2.164949e+03 
3.304800e-01 2.156490e+03 
3.317100e-01 2.148109e+03 
3.328900e-01 2.140141e+03 
3.340700e-01 2.132242e+03 
3.353600e-01 2.123650e+03 
3.365300e-01 2.115913e+03 
3.377100e-01 2.108178e+03 
3.389200e-01 2.100316e+03 
3.401600e-01 2.092330e+03 
3.413700e-01 2.084618e+03 
3.425300e-01 2.077297e+03 
3.437700e-01 2.069538e+03 
3.449800e-01 2.062034e+03 
3.461800e-01 2.054656e+03 
3.473600e-01 2.047478e+03 
3.485800e-01 2.040159e+03 
3.498100e-01 2.032844e+03 
3.510200e-01 2.025710e+03 
3.522000e-01 2.018812e+03 
3.533900e-01 2.011913e+03 
3.546400e-01 2.004681e+03 
3.558400e-01 1.997796e+03 
3.570600e-01 1.990854e+03 
3.582700e-01 1.984028e+03 
3.595000e-01 1.977148e+03 
3.607100e-01 1.970440e+03 
3.618900e-01 1.963956e+03 
3.631200e-01 1.957254e+03 
3.643200e-01 1.950769e+03 
3.655500e-01 1.944177e+03 
3.667300e-01 1.937905e+03 
3.679500e-01 1.931514e+03 
3.691900e-01 1.925071e+03 
3.703600e-01 1.919042e+03 
3.715700e-01 1.912857e+03 
3.727700e-01 1.906773e+03 
3.739900e-01 1.900623e+03 
3.752000e-01 1.894546e+03 
3.763900e-01 1.888617e+03 
3.775800e-01 1.882736e+03 
3.788200e-01 1.876656e+03 
3.800300e-01 1.870771e+03 
3.812100e-01 1.865051e+03 
3.824200e-01 1.859214e+03 
3.836100e-01 1.853519e+03 
3.848600e-01 1.847584e+03 
3.860400e-01 1.842025e+03 
3.872400e-01 1.836415e+03 
3.884600e-01 1.830726e+03 
3.896500e-01 1.825208e+03 
3.908700e-01 1.819595e+03 
3.920600e-01 1.814161e+03 
3.933100e-01 1.808499e+03 
3.945300e-01 1.803015e+03 
3.957200e-01 1.797702e+03 
3.969300e-01 1.792340e+03 
3.981700e-01 1.786886e+03 
3.993500e-01 1.781737e+03 
4.094840e-01 1.738849e+03 
4.272360e-01 1.668758e+03 
4.454600e-01 1.602824e+03 
4.630560e-01 1.543926e+03 
4.804610e-01 1.489871e+03 
4.980690e-01 1.439092e+03 
5.159230e-01 1.391016e+03 
5.317440e-01 1.351300e+03 
5.489640e-01 1.310473e+03 
5.671990e-01 1.270101e+03 
5.838690e-01 1.235303e+03 
6.018840e-01 1.199903e+03 
6.202330e-01 1.165831e+03 
6.379250e-01 1.134671e+03 
6.545410e-01 1.106901e+03 
6.714560e-01 1.079903e+03 
6.892080e-01 1.052756e+03 
7.066010e-01 1.027274e+03 
7.240540e-01 1.002832e+03 
7.420450e-01 9.784984e+02 
7.593780e-01 9.559526e+02 
7.764720e-01 9.345642e+02 
7.942840e-01 9.130408e+02 
8.116170e-01 8.926717e+02 
8.288310e-01 8.730320e+02 
8.462240e-01 8.538447e+02 
8.631980e-01 8.357319e+02 
8.810700e-01 8.172314e+02 
8.989410e-01 7.992313e+02 
9.166330e-01 7.819376e+02 
9.345640e-01 7.648741e+02 
9.515980e-01 7.491611e+02 
9.688720e-01 7.336655e+02 
9.865640e-01 7.181771e+02 
1.031870e+00 6.804113e+02 
1.063490e+00 6.554984e+02 
1.097920e+00 6.297711e+02 
1.134370e+00 6.039890e+02 
1.167730e+00 5.815691e+02 
1.203830e+00 5.584878e+02 
1.240470e+00 5.363897e+02 
1.275790e+00 5.160602e+02 
1.309140e+00 4.978717e+02 
1.342970e+00 4.802578e+02 
1.378420e+00 4.627411e+02 
1.413200e+00 4.463548e+02 
1.448110e+00 4.306902e+02 
1.484090e+00 4.153408e+02 
1.518820e+00 4.012807e+02 
1.552880e+00 3.880313e+02 
1.588630e+00 3.748235e+02 
1.623230e+00 3.626125e+02 
1.657720e+00 3.510000e+02 
1.692450e+00 3.398602e+02 
1.726400e+00 3.293528e+02 
1.762200e+00 3.188066e+02 
1.797880e+00 3.087632e+02 
1.833270e+00 2.992439e+02 
1.869070e+00 2.900356e+02 
1.903200e+00 2.816009e+02 
1.937740e+00 2.734173e+02 
1.973190e+00 2.653883e+02 
2.007440e+00 2.579366e+02 
2.042160e+00 2.506741e+02 
2.077900e+00 2.434901e+02 
2.112390e+00 2.368382e+02 
2.146220e+00 2.305726e+02 
2.181600e+00 2.242457e+02 
2.216930e+00 2.181851e+02 
2.250760e+00 2.125999e+02 
2.286500e+00 2.069122e+02 
2.321770e+00 2.015043e+02 
2.355950e+00 1.964465e+02 
2.391280e+00 1.914242e+02 
2.426240e+00 1.866366e+02 
2.460670e+00 1.820820e+02 
2.495640e+00 1.776075e+02 
2.531080e+00 1.732332e+02 
2.566220e+00 1.690406e+02 
2.600830e+00 1.650479e+02 
2.635080e+00 1.612252e+02 
2.670340e+00 1.574329e+02 
2.705970e+00 1.537306e+02 
2.740040e+00 1.503045e+02 
2.774520e+00 1.469361e+02 
2.809730e+00 1.436195e+02 
2.844390e+00 1.404621e+02 
2.879960e+00 1.373193e+02 
2.914860e+00 1.343297e+02 
2.949410e+00 1.314602e+02 
2.984440e+00 1.286391e+02 
3.019760e+00 1.258750e+02 
3.054730e+00 1.232182e+02 
3.089030e+00 1.207023e+02 
3.124060e+00 1.182064e+02 
3.159560e+00 1.157492e+02 
3.194710e+00 1.133959e+02 
3.229010e+00 1.111663e+02 
3.263320e+00 1.089811e+02 
3.297930e+00 1.068417e+02 
3.332830e+00 1.047516e+02 
3.368040e+00 1.027051e+02 
3.403300e+00 1.007150e+02 
3.438450e+00 9.878263e+01 
3.473060e+00 9.693045e+01 
3.508440e+00 9.508823e+01 
3.543110e+00 9.333049e+01 
3.577470e+00 9.163192e+01 
3.613040e+00 8.992124e+01 
3.648120e+00 8.828375e+01 
3.682910e+00 8.669939e+01 
3.718050e+00 8.513622e+01 
3.753320e+00 8.361104e+01 
3.787980e+00 8.215555e+01 
3.822290e+00 8.074808e+01 
3.857020e+00 7.935520e+01 
3.891920e+00 7.799157e+01 
3.926650e+00 7.667124e+01 
3.961970e+00 7.536004e+01 
3.997360e+00 7.407650e+01 
4.031670e+00 7.286236e+01 
4.066330e+00 7.166903e+01 
4.101420e+00 7.048857e+01 
4.136200e+00 6.934363e+01 
4.170810e+00 6.822992e+01 
4.206250e+00 6.711592e+01 
4.241580e+00 6.603061e+01 
4.276300e+00 6.499288e+01 
4.310970e+00 6.398209e+01 
4.346120e+00 6.297808e+01 
4.380600e+00 6.201193e+01 
4.414730e+00 6.107597e+01 
4.450350e+00 6.012737e+01 
4.485320e+00 5.921595e+01 
4.519810e+00 5.833335e+01 
4.555430e+00 5.743981e+01 
4.590870e+00 5.657201e+01 
4.625480e+00 5.574713e+01 
4.659910e+00 5.494305e+01 
4.695230e+00 5.413413e+01 
4.729960e+00 5.335465e+01 
4.764450e+00 5.259671e+01 
4.799530e+00 5.184243e+01 
4.834910e+00 5.109680e+01 
4.869700e+00 5.037926e+01 
4.904370e+00 4.967820e+01 
4.939450e+00 4.898312e+01 
4.973940e+00 4.831433e+01 
5.008430e+00 4.765811e+01 
5.043810e+00 4.699882e+01 
5.078840e+00 4.635907e+01 
5.113500e+00 4.573787e+01 
5.148890e+00 4.511652e+01 
5.184210e+00 4.450801e+01 
5.219060e+00 4.391883e+01 
5.253660e+00 4.334503e+01 
5.288570e+00 4.277649e+01 
5.323420e+00 4.222073e+01 
5.358440e+00 4.167400e+01 
5.393590e+00 4.113501e+01 
5.428310e+00 4.061148e+01 
5.462800e+00 4.010018e+01 
5.497640e+00 3.959263e+01 
5.532670e+00 3.909344e+01 
5.567280e+00 3.860942e+01 
5.602000e+00 3.813210e+01 
5.637270e+00 3.765579e+01 
5.672410e+00 3.718939e+01 
5.707020e+00 3.673774e+01 
5.742040e+00 3.628902e+01 
5.777430e+00 3.584329e+01 
5.812210e+00 3.541252e+01 
5.846820e+00 3.499161e+01 
5.881610e+00 3.457559e+01 
5.916510e+00 3.416501e+01 
5.951600e+00 3.376012e+01 
5.986560e+00 3.336379e+01 
6.021830e+00 3.297036e+01 
6.056490e+00 3.258981e+01 
6.091160e+00 3.221506e+01 
6.125830e+00 3.184617e+01 
6.161090e+00 3.147713e+01 
6.195760e+00 3.112044e+01 
6.230420e+00 3.076935e+01 
6.265690e+00 3.041764e+01 
6.300950e+00 3.007293e+01 
6.335620e+00 2.973917e+01 
6.370880e+00 2.940487e+01 
6.405550e+00 2.908096e+01 
6.440220e+00 2.876180e+01 
6.475480e+00 2.844207e+01 
6.510150e+00 2.813276e+01 
6.544810e+00 2.782896e+01 
6.580080e+00 2.752436e+01 
6.614750e+00 2.722934e+01 
6.649410e+00 2.693926e+01 
6.684080e+00 2.665338e+01 
6.719340e+00 2.636684e+01 
6.754010e+00 2.608908e+01 
6.788680e+00 2.581509e+01 
6.823940e+00 2.554042e+01 
6.859800e+00 2.526511e+01 
6.894470e+00 2.500351e+01 
6.929140e+00 2.474584e+01 
6.963800e+00 2.449183e+01 
6.999070e+00 2.423690e+01 
7.033730e+00 2.398928e+01 
7.068400e+00 2.374499e+01 
7.103660e+00 2.349995e+01 
7.138330e+00 2.326276e+01 
7.173600e+00 2.302564e+01 
7.208260e+00 2.279579e+01 
7.243530e+00 2.256505e+01 
7.277600e+00 2.234469e+01 
7.312860e+00 2.211925e+01 
7.348120e+00 2.189685e+01 
7.382790e+00 2.168109e+01 
7.417460e+00 2.146890e+01 
7.452720e+00 2.125632e+01 
7.487390e+00 2.105005e+01 
7.522650e+00 2.084300e+01 
7.557320e+00 2.064239e+01 
7.591990e+00 2.044448e+01 
7.627250e+00 2.024580e+01 
7.662510e+00 2.004968e+01 
7.697180e+00 1.985867e+01 
7.731850e+00 1.966982e+01 
7.766510e+00 1.948340e+01 
7.801180e+00 1.929928e+01 
7.836440e+00 1.911512e+01 
7.871110e+00 1.893676e+01 
7.906380e+00 1.875759e+01 
7.941040e+00 1.858371e+01 
7.976310e+00 1.840893e+01 
8.011570e+00 1.823633e+01 
8.046240e+00 1.806871e+01 
8.080900e+00 1.790318e+01 
8.115570e+00 1.773958e+01 
8.150830e+00 1.757508e+01 
8.185500e+00 1.741530e+01 
8.220770e+00 1.725473e+01 
8.255430e+00 1.709883e+01 
8.290100e+00 1.694517e+01 
8.324770e+00 1.679338e+01 
8.359430e+00 1.664343e+01 
8.394700e+00 1.649265e+01 
8.429960e+00 1.634366e+01 
8.464630e+00 1.619885e+01 
8.499890e+00 1.605331e+01 
8.534560e+00 1.591188e+01 
8.569200e+00 1.577221e+01 
