# Parameters:
# omega_b = 0.022870, omega_m = 0.137913, n_s = 0.990157, h = 62.322835, w = -1.000000, sigma_8 = 0.829134
# z = 0.300000
#
# k[1/Mpc] # P(k):
8.694000e-04 1.262587e+04 
2.077466e-03 2.751953e+04 
3.285532e-03 3.931847e+04 
4.493598e-03 4.848648e+04 
5.701664e-03 5.534465e+04 
6.909730e-03 6.024656e+04 
8.117797e-03 6.360904e+04 
9.325863e-03 6.564374e+04 
1.053393e-02 6.656453e+04 
1.174199e-02 6.657043e+04 
1.295006e-02 6.579148e+04 
1.415813e-02 6.440600e+04 
1.536619e-02 6.256715e+04 
1.657426e-02 6.036658e+04 
1.778233e-02 5.786496e+04 
1.899039e-02 5.528948e+04 
2.019846e-02 5.279999e+04 
2.140652e-02 5.039953e+04 
2.261459e-02 4.806874e+04 
2.382266e-02 4.584183e+04 
2.503072e-02 4.375214e+04 
2.623879e-02 4.181057e+04 
2.744685e-02 4.002125e+04 
2.865492e-02 3.838921e+04 
2.986299e-02 3.690851e+04 
3.100100e-02 3.564715e+04 
3.220400e-02 3.444402e+04 
3.288100e-02 3.382349e+04 
3.424300e-02 3.268306e+04 
3.555100e-02 3.170380e+04 
3.686000e-02 3.082194e+04 
3.795000e-02 3.014818e+04 
3.929100e-02 2.938193e+04 
4.039800e-02 2.878664e+04 
4.164000e-02 2.814854e+04 
4.294400e-02 2.749276e+04 
4.415000e-02 2.689910e+04 
4.542900e-02 2.626139e+04 
4.660900e-02 2.567600e+04 
4.782300e-02 2.505094e+04 
4.892900e-02 2.447494e+04 
5.031200e-02 2.374102e+04 
5.155900e-02 2.306463e+04 
5.238100e-02 2.261339e+04 
5.378200e-02 2.184300e+04 
5.513400e-02 2.109612e+04 
5.627600e-02 2.046728e+04 
5.735300e-02 1.988331e+04 
5.870100e-02 1.917029e+04 
5.988700e-02 1.856213e+04 
6.113500e-02 1.794555e+04 
6.225900e-02 1.741172e+04 
6.340100e-02 1.689782e+04 
6.480200e-02 1.630404e+04 
6.601100e-02 1.582626e+04 
6.725500e-02 1.536873e+04 
6.829100e-02 1.501719e+04 
6.958600e-02 1.461042e+04 
7.071100e-02 1.428799e+04 
7.192300e-02 1.396864e+04 
7.307400e-02 1.369043e+04 
7.412300e-02 1.345690e+04 
7.550400e-02 1.317832e+04 
7.663100e-02 1.296841e+04 
7.791200e-02 1.275014e+04 
7.912700e-02 1.255612e+04 
8.027600e-02 1.238266e+04 
8.138400e-02 1.222113e+04 
8.272200e-02 1.203003e+04 
8.406100e-02 1.184073e+04 
8.534100e-02 1.165601e+04 
8.653800e-02 1.147962e+04 
8.759800e-02 1.132030e+04 
8.900300e-02 1.110226e+04 
9.009000e-02 1.092676e+04 
9.113300e-02 1.075359e+04 
9.239600e-02 1.054197e+04 
9.358000e-02 1.033989e+04 
9.496100e-02 1.009968e+04 
9.608400e-02 9.905564e+03 
9.727500e-02 9.702260e+03 
9.852600e-02 9.490381e+03 
9.973800e-02 9.291147e+03 
1.009000e-01 9.105585e+03 
1.020900e-01 8.924042e+03 
1.034000e-01 8.732729e+03 
1.046000e-01 8.565417e+03 
1.057200e-01 8.418764e+03 
1.069100e-01 8.269594e+03 
1.082500e-01 8.114436e+03 
1.093900e-01 7.990388e+03 
1.105400e-01 7.870913e+03 
1.116900e-01 7.760848e+03 
1.129600e-01 7.644478e+03 
1.142000e-01 7.538503e+03 
1.153300e-01 7.445990e+03 
1.166400e-01 7.344014e+03 
1.177800e-01 7.258755e+03 
1.190000e-01 7.170300e+03 
1.201200e-01 7.090688e+03 
1.213400e-01 7.005951e+03 
1.227100e-01 6.911676e+03 
1.238900e-01 6.831859e+03 
1.250700e-01 6.751603e+03 
1.263200e-01 6.667410e+03 
1.275500e-01 6.583917e+03 
1.287500e-01 6.503276e+03 
1.299900e-01 6.420172e+03 
1.311300e-01 6.344140e+03 
1.323500e-01 6.262550e+03 
1.335900e-01 6.180671e+03 
1.347100e-01 6.107216e+03 
1.359800e-01 6.025277e+03 
1.372100e-01 5.946793e+03 
1.384300e-01 5.870431e+03 
1.395700e-01 5.800037e+03 
1.407700e-01 5.727471e+03 
1.420300e-01 5.652927e+03 
1.432800e-01 5.580586e+03 
1.444500e-01 5.514594e+03 
1.456300e-01 5.449372e+03 
1.468900e-01 5.382109e+03 
1.480500e-01 5.321718e+03 
1.491700e-01 5.264919e+03 
1.503800e-01 5.205250e+03 
1.516400e-01 5.144622e+03 
1.528200e-01 5.090093e+03 
1.540200e-01 5.035695e+03 
1.551900e-01 4.984346e+03 
1.564300e-01 4.931124e+03 
1.576600e-01 4.879874e+03 
1.588700e-01 4.831044e+03 
1.600900e-01 4.782736e+03 
1.612700e-01 4.737046e+03 
1.625400e-01 4.688779e+03 
1.637600e-01 4.643459e+03 
1.649500e-01 4.600150e+03 
1.662200e-01 4.554713e+03 
1.674000e-01 4.512946e+03 
1.685000e-01 4.474656e+03 
1.697500e-01 4.431602e+03 
1.710300e-01 4.388034e+03 
1.722200e-01 4.348241e+03 
1.734400e-01 4.307536e+03 
1.746400e-01 4.268154e+03 
1.758700e-01 4.228376e+03 
1.770900e-01 4.189395e+03 
1.782700e-01 4.152316e+03 
1.794600e-01 4.115238e+03 
1.807000e-01 4.077045e+03 
1.819100e-01 4.040393e+03 
1.830100e-01 4.007385e+03 
1.842200e-01 3.971600e+03 
1.855000e-01 3.934387e+03 
1.867000e-01 3.900434e+03 
1.879200e-01 3.866461e+03 
1.890900e-01 3.834432e+03 
1.902800e-01 3.802595e+03 
1.915200e-01 3.769936e+03 
1.926900e-01 3.739688e+03 
1.939000e-01 3.709185e+03 
1.951700e-01 3.677668e+03 
1.963100e-01 3.649893e+03 
1.975100e-01 3.621321e+03 
1.987800e-01 3.591543e+03 
2.000100e-01 3.563232e+03 
2.012500e-01 3.535324e+03 
2.023400e-01 3.511138e+03 
2.036100e-01 3.483367e+03 
2.048900e-01 3.455838e+03 
2.060400e-01 3.431462e+03 
2.072200e-01 3.406795e+03 
2.084200e-01 3.382063e+03 
2.096900e-01 3.356266e+03 
2.109200e-01 3.331644e+03 
2.121100e-01 3.307953e+03 
2.132700e-01 3.285160e+03 
2.145200e-01 3.260937e+03 
2.157200e-01 3.237838e+03 
2.168800e-01 3.215728e+03 
2.180700e-01 3.193347e+03 
2.193400e-01 3.169668e+03 
2.206000e-01 3.146283e+03 
2.217500e-01 3.125224e+03 
2.229500e-01 3.103533e+03 
2.241400e-01 3.081959e+03 
2.253500e-01 3.060300e+03 
2.264900e-01 3.040154e+03 
2.277100e-01 3.018726e+03 
2.289900e-01 2.996386e+03 
2.301500e-01 2.976404e+03 
2.313600e-01 2.955819e+03 
2.325600e-01 2.935253e+03 
2.337700e-01 2.914778e+03 
2.350000e-01 2.894230e+03 
2.362000e-01 2.874334e+03 
2.374100e-01 2.854400e+03 
2.386500e-01 2.834230e+03 
2.399100e-01 2.813997e+03 
2.410400e-01 2.795864e+03 
2.422500e-01 2.776651e+03 
2.435000e-01 2.757050e+03 
2.447300e-01 2.738030e+03 
2.458700e-01 2.720716e+03 
2.470600e-01 2.702853e+03 
2.483300e-01 2.684021e+03 
2.495600e-01 2.666082e+03 
2.507600e-01 2.648894e+03 
2.519600e-01 2.631906e+03 
2.532200e-01 2.614283e+03 
2.543700e-01 2.598547e+03 
2.555500e-01 2.582693e+03 
2.568000e-01 2.566093e+03 
2.580100e-01 2.550213e+03 
2.592400e-01 2.534511e+03 
2.604100e-01 2.519857e+03 
2.616100e-01 2.504994e+03 
2.628400e-01 2.489931e+03 
2.640600e-01 2.475354e+03 
2.652200e-01 2.461723e+03 
2.664300e-01 2.447660e+03 
2.676500e-01 2.433637e+03 
2.688400e-01 2.420268e+03 
2.700700e-01 2.406700e+03 
2.712400e-01 2.393934e+03 
2.724800e-01 2.380550e+03 
2.736700e-01 2.367980e+03 
2.748800e-01 2.355472e+03 
2.761000e-01 2.342998e+03 
2.773200e-01 2.330657e+03 
2.785400e-01 2.318461e+03 
2.797000e-01 2.307010e+03 
2.808900e-01 2.295383e+03 
2.821400e-01 2.283300e+03 
2.833900e-01 2.271353e+03 
2.845500e-01 2.260526e+03 
2.857800e-01 2.249163e+03 
2.870300e-01 2.237738e+03 
2.882100e-01 2.227064e+03 
2.893900e-01 2.216460e+03 
2.906300e-01 2.205410e+03 
2.918900e-01 2.194300e+03 
2.930500e-01 2.184174e+03 
2.942500e-01 2.173820e+03 
2.954200e-01 2.163877e+03 
2.966500e-01 2.153528e+03 
2.978900e-01 2.143200e+03 
2.990400e-01 2.133716e+03 
3.002700e-01 2.123659e+03 
3.015100e-01 2.113615e+03 
3.026800e-01 2.104231e+03 
3.038500e-01 2.094936e+03 
3.050300e-01 2.085648e+03 
3.062600e-01 2.075961e+03 
3.075000e-01 2.066291e+03 
3.087000e-01 2.057024e+03 
3.099100e-01 2.047769e+03 
3.111200e-01 2.038643e+03 
3.123100e-01 2.029825e+03 
3.135300e-01 2.020869e+03 
3.147300e-01 2.012143e+03 
3.159900e-01 2.003069e+03 
3.171800e-01 1.994562e+03 
3.183700e-01 1.986121e+03 
3.196300e-01 1.977269e+03 
3.208400e-01 1.968847e+03 
3.220300e-01 1.960641e+03 
3.232000e-01 1.952625e+03 
3.244300e-01 1.944266e+03 
3.256700e-01 1.935918e+03 
3.269200e-01 1.927581e+03 
3.280800e-01 1.919914e+03 
3.292500e-01 1.912324e+03 
3.304800e-01 1.904439e+03 
3.317100e-01 1.896626e+03 
3.328900e-01 1.889198e+03 
3.340700e-01 1.881834e+03 
3.353600e-01 1.873833e+03 
3.365300e-01 1.866633e+03 
3.377100e-01 1.859434e+03 
3.389200e-01 1.852116e+03 
3.401600e-01 1.844683e+03 
3.413700e-01 1.837510e+03 
3.425300e-01 1.830704e+03 
3.437700e-01 1.823491e+03 
3.449800e-01 1.816515e+03 
3.461800e-01 1.809655e+03 
3.473600e-01 1.802986e+03 
3.485800e-01 1.796197e+03 
3.498100e-01 1.789412e+03 
3.510200e-01 1.782794e+03 
3.522000e-01 1.776394e+03 
3.533900e-01 1.769994e+03 
3.546400e-01 1.763299e+03 
3.558400e-01 1.756925e+03 
3.570600e-01 1.750499e+03 
3.582700e-01 1.744179e+03 
3.595000e-01 1.737809e+03 
3.607100e-01 1.731605e+03 
3.618900e-01 1.725612e+03 
3.631200e-01 1.719416e+03 
3.643200e-01 1.713422e+03 
3.655500e-01 1.707328e+03 
3.667300e-01 1.701529e+03 
3.679500e-01 1.695635e+03 
3.691900e-01 1.689694e+03 
3.703600e-01 1.684134e+03 
3.715700e-01 1.678429e+03 
3.727700e-01 1.672817e+03 
3.739900e-01 1.667147e+03 
3.752000e-01 1.661549e+03 
3.763900e-01 1.656087e+03 
3.775800e-01 1.650669e+03 
3.788200e-01 1.645067e+03 
3.800300e-01 1.639645e+03 
3.812100e-01 1.634384e+03 
3.824200e-01 1.629022e+03 
3.836100e-01 1.623789e+03 
3.848600e-01 1.618336e+03 
3.860400e-01 1.613228e+03 
3.872400e-01 1.608074e+03 
3.884600e-01 1.602855e+03 
3.896500e-01 1.597796e+03 
3.908700e-01 1.592649e+03 
3.920600e-01 1.587667e+03 
3.933100e-01 1.582475e+03 
3.945300e-01 1.577446e+03 
3.957200e-01 1.572578e+03 
3.969300e-01 1.567664e+03 
3.981700e-01 1.562668e+03 
3.993500e-01 1.557949e+03 
4.094840e-01 1.518703e+03 
4.272360e-01 1.454693e+03 
4.454600e-01 1.394603e+03 
4.630560e-01 1.340999e+03 
4.804610e-01 1.291870e+03 
4.980690e-01 1.245758e+03 
5.159230e-01 1.202173e+03 
5.317440e-01 1.166213e+03 
5.489640e-01 1.129332e+03 
5.671990e-01 1.092940e+03 
5.838690e-01 1.061655e+03 
6.018840e-01 1.029912e+03 
6.202330e-01 9.994742e+02 
6.379250e-01 9.717075e+02 
6.545410e-01 9.470548e+02 
6.714560e-01 9.231497e+02 
6.892080e-01 8.991951e+02 
7.066010e-01 8.767841e+02 
7.240540e-01 8.553373e+02 
7.420450e-01 8.340617e+02 
7.593780e-01 8.143975e+02 
7.764720e-01 7.957840e+02 
7.942840e-01 7.770976e+02 
8.116170e-01 7.594592e+02 
8.288310e-01 7.424840e+02 
8.462240e-01 7.259230e+02 
8.631980e-01 7.103209e+02 
8.810700e-01 6.944084e+02 
8.989410e-01 6.789465e+02 
9.166330e-01 6.641090e+02 
9.345640e-01 6.494832e+02 
9.515980e-01 6.360299e+02 
9.688720e-01 6.227738e+02 
9.865640e-01 6.095340e+02 
1.031870e+00 5.772909e+02 
1.063490e+00 5.560489e+02 
1.097920e+00 5.341316e+02 
1.134370e+00 5.121770e+02 
1.167730e+00 4.930951e+02 
1.203830e+00 4.734605e+02 
1.240470e+00 4.546655e+02 
1.275790e+00 4.373833e+02 
1.309140e+00 4.219191e+02 
1.342970e+00 4.069470e+02 
1.378420e+00 3.920577e+02 
1.413200e+00 3.781308e+02 
1.448110e+00 3.648196e+02 
1.484090e+00 3.517738e+02 
1.518820e+00 3.398267e+02 
1.552880e+00 3.285681e+02 
1.588630e+00 3.173436e+02 
1.623230e+00 3.069681e+02 
1.657720e+00 2.971016e+02 
1.692450e+00 2.876352e+02 
1.726400e+00 2.787076e+02 
1.762200e+00 2.697463e+02 
1.797880e+00 2.612113e+02 
1.833270e+00 2.531236e+02 
1.869070e+00 2.452998e+02 
1.903200e+00 2.381330e+02 
1.937740e+00 2.311801e+02 
1.973190e+00 2.243577e+02 
2.007440e+00 2.180265e+02 
2.042160e+00 2.118564e+02 
2.077900e+00 2.057536e+02 
2.112390e+00 2.001023e+02 
2.146220e+00 1.947795e+02 
2.181600e+00 1.894047e+02 
2.216930e+00 1.842565e+02 
2.250760e+00 1.795123e+02 
2.286500e+00 1.746812e+02 
2.321770e+00 1.700880e+02 
2.355950e+00 1.657923e+02 
2.391280e+00 1.615268e+02 
2.426240e+00 1.574609e+02 
2.460670e+00 1.535931e+02 
2.495640e+00 1.497937e+02 
2.531080e+00 1.460793e+02 
2.566220e+00 1.425196e+02 
2.600830e+00 1.391297e+02 
2.635080e+00 1.358846e+02 
2.670340e+00 1.326652e+02 
2.705970e+00 1.295225e+02 
2.740040e+00 1.266144e+02 
2.774520e+00 1.237555e+02 
2.809730e+00 1.209406e+02 
2.844390e+00 1.182611e+02 
2.879960e+00 1.155942e+02 
2.914860e+00 1.130574e+02 
2.949410e+00 1.106228e+02 
2.984440e+00 1.082294e+02 
3.019760e+00 1.058846e+02 
3.054730e+00 1.036311e+02 
3.089030e+00 1.014970e+02 
3.124060e+00 9.938023e+01 
3.159560e+00 9.729642e+01 
3.194710e+00 9.530077e+01 
3.229010e+00 9.341013e+01 
3.263320e+00 9.155754e+01 
3.297930e+00 8.974390e+01 
3.332830e+00 8.797204e+01 
3.368040e+00 8.623739e+01 
3.403300e+00 8.455071e+01 
3.438450e+00 8.291313e+01 
3.473060e+00 8.134362e+01 
3.508440e+00 7.978270e+01 
3.543110e+00 7.829352e+01 
3.577470e+00 7.685465e+01 
3.613040e+00 7.540563e+01 
3.648120e+00 7.401870e+01 
3.682910e+00 7.267696e+01 
3.718050e+00 7.135339e+01 
3.753320e+00 7.006207e+01 
3.787980e+00 6.882979e+01 
3.822290e+00 6.763835e+01 
3.857020e+00 6.645945e+01 
3.891920e+00 6.530542e+01 
3.926650e+00 6.418811e+01 
3.961970e+00 6.307865e+01 
3.997360e+00 6.199279e+01 
4.031670e+00 6.096574e+01 
4.066330e+00 5.995641e+01 
4.101420e+00 5.895806e+01 
4.136200e+00 5.798988e+01 
4.170810e+00 5.704821e+01 
4.206250e+00 5.610648e+01 
4.241580e+00 5.518912e+01 
4.276300e+00 5.431206e+01 
4.310970e+00 5.345784e+01 
4.346120e+00 5.260949e+01 
4.380600e+00 5.179331e+01 
4.414730e+00 5.100271e+01 
4.450350e+00 5.020150e+01 
4.485320e+00 4.943177e+01 
4.519810e+00 4.868656e+01 
4.555430e+00 4.793223e+01 
4.590870e+00 4.719971e+01 
4.625480e+00 4.650351e+01 
4.659910e+00 4.582494e+01 
4.695230e+00 4.514244e+01 
4.729960e+00 4.448485e+01 
4.764450e+00 4.384554e+01 
4.799530e+00 4.320945e+01 
4.834910e+00 4.258072e+01 
4.869700e+00 4.197581e+01 
4.904370e+00 4.138486e+01 
4.939450e+00 4.079903e+01 
4.973940e+00 4.023546e+01 
5.008430e+00 3.968254e+01 
5.043810e+00 3.912718e+01 
5.078840e+00 3.858838e+01 
5.113500e+00 3.806525e+01 
5.148890e+00 3.754213e+01 
5.184210e+00 3.702988e+01 
5.219060e+00 3.653398e+01 
5.253660e+00 3.605113e+01 
5.288570e+00 3.557276e+01 
5.323420e+00 3.510523e+01 
5.358440e+00 3.464542e+01 
5.393590e+00 3.419216e+01 
5.428310e+00 3.375202e+01 
5.462800e+00 3.332226e+01 
5.497640e+00 3.289568e+01 
5.532670e+00 3.247623e+01 
5.567280e+00 3.206959e+01 
5.602000e+00 3.166862e+01 
5.637270e+00 3.126865e+01 
5.672410e+00 3.087706e+01 
5.707020e+00 3.049788e+01 
5.742040e+00 3.012130e+01 
5.777430e+00 2.974728e+01 
5.812210e+00 2.938585e+01 
5.846820e+00 2.903283e+01 
5.881610e+00 2.868395e+01 
5.916510e+00 2.833968e+01 
5.951600e+00 2.800029e+01 
5.986560e+00 2.766813e+01 
6.021830e+00 2.733843e+01 
6.056490e+00 2.701962e+01 
6.091160e+00 2.670576e+01 
6.125830e+00 2.639682e+01 
6.161090e+00 2.608783e+01 
6.195760e+00 2.578929e+01 
6.230420e+00 2.549546e+01 
6.265690e+00 2.520114e+01 
6.300950e+00 2.491283e+01 
6.335620e+00 2.463369e+01 
6.370880e+00 2.435413e+01 
6.405550e+00 2.408337e+01 
6.440220e+00 2.381663e+01 
6.475480e+00 2.354944e+01 
6.510150e+00 2.329101e+01 
6.544810e+00 2.303730e+01 
6.580080e+00 2.278293e+01 
6.614750e+00 2.253658e+01 
6.649410e+00 2.229446e+01 
6.684080e+00 2.205590e+01 
6.719340e+00 2.181679e+01 
6.754010e+00 2.158506e+01 
6.788680e+00 2.135660e+01 
6.823940e+00 2.112759e+01 
6.859800e+00 2.089805e+01 
6.894470e+00 2.068004e+01 
6.929140e+00 2.046536e+01 
6.963800e+00 2.025372e+01 
6.999070e+00 2.004135e+01 
7.033730e+00 1.983521e+01 
7.068400e+00 1.963184e+01 
7.103660e+00 1.942787e+01 
7.138330e+00 1.923047e+01 
7.173600e+00 1.903324e+01 
7.208260e+00 1.884205e+01 
7.243530e+00 1.865014e+01 
7.277600e+00 1.846693e+01 
7.312860e+00 1.827956e+01 
7.348120e+00 1.809473e+01 
7.382790e+00 1.791541e+01 
7.417460e+00 1.773916e+01 
7.452720e+00 1.756264e+01 
7.487390e+00 1.739135e+01 
7.522650e+00 1.721943e+01 
7.557320e+00 1.705294e+01 
7.591990e+00 1.688873e+01 
7.627250e+00 1.672388e+01 
7.662510e+00 1.656117e+01 
7.697180e+00 1.640278e+01 
7.731850e+00 1.624623e+01 
7.766510e+00 1.609170e+01 
7.801180e+00 1.593907e+01 
7.836440e+00 1.578648e+01 
7.871110e+00 1.563875e+01 
7.906380e+00 1.549034e+01 
7.941040e+00 1.534632e+01 
7.976310e+00 1.520161e+01 
8.011570e+00 1.505877e+01 
8.046240e+00 1.492005e+01 
8.080900e+00 1.478305e+01 
8.115570e+00 1.464768e+01 
8.150830e+00 1.451166e+01 
8.185500e+00 1.437953e+01 
8.220770e+00 1.424675e+01 
8.255430e+00 1.411784e+01 
8.290100e+00 1.399088e+01 
8.324770e+00 1.386547e+01 
8.359430e+00 1.374158e+01 
8.394700e+00 1.361700e+01 
8.429960e+00 1.349396e+01 
8.464630e+00 1.337441e+01 
8.499890e+00 1.325425e+01 
8.534560e+00 1.313749e+01 
8.569200e+00 1.302218e+01 
