# Parameters:
# omega_b = 0.022508, omega_m = 0.144803, n_s = 0.974409, h = 73.425197, w = -1.000000, sigma_8 = 0.788189
# z = 0.500000
#
# k[1/Mpc] # P(k):
8.694000e-04 7.254147e+03 
2.077466e-03 1.568241e+04 
3.285532e-03 2.237589e+04 
4.493598e-03 2.760561e+04 
5.701664e-03 3.155820e+04 
6.909730e-03 3.442607e+04 
8.117797e-03 3.643548e+04 
9.325863e-03 3.770288e+04 
1.053393e-02 3.834664e+04 
1.174199e-02 3.847756e+04 
1.295006e-02 3.816647e+04 
1.415813e-02 3.751163e+04 
1.536619e-02 3.659486e+04 
1.657426e-02 3.547192e+04 
1.778233e-02 3.417305e+04 
1.899039e-02 3.273721e+04 
2.019846e-02 3.124429e+04 
2.140652e-02 2.978358e+04 
2.261459e-02 2.837316e+04 
2.382266e-02 2.702871e+04 
2.503072e-02 2.576671e+04 
2.623879e-02 2.459497e+04 
2.744685e-02 2.351667e+04 
2.865492e-02 2.253535e+04 
2.986299e-02 2.164825e+04 
3.100100e-02 2.089746e+04 
3.220400e-02 2.018728e+04 
3.288100e-02 1.982466e+04 
3.424300e-02 1.916681e+04 
3.555100e-02 1.861269e+04 
3.686000e-02 1.812503e+04 
3.795000e-02 1.776033e+04 
3.929100e-02 1.735673e+04 
4.039800e-02 1.704908e+04 
4.164000e-02 1.672292e+04 
4.294400e-02 1.638943e+04 
4.415000e-02 1.608506e+04 
4.542900e-02 1.575167e+04 
4.660900e-02 1.543782e+04 
4.782300e-02 1.509056e+04 
4.892900e-02 1.476249e+04 
5.031200e-02 1.433005e+04 
5.155900e-02 1.391786e+04 
5.238100e-02 1.363747e+04 
5.378200e-02 1.314816e+04 
5.513400e-02 1.266443e+04 
5.627600e-02 1.225229e+04 
5.735300e-02 1.186618e+04 
5.870100e-02 1.139165e+04 
5.988700e-02 1.098779e+04 
6.113500e-02 1.057991e+04 
6.225900e-02 1.023080e+04 
6.340100e-02 9.896498e+03 
6.480200e-02 9.514898e+03 
6.601100e-02 9.214190e+03 
6.725500e-02 8.931980e+03 
6.829100e-02 8.719733e+03 
6.958600e-02 8.477772e+03 
7.071100e-02 8.290263e+03 
7.192300e-02 8.108630e+03 
7.307400e-02 7.953867e+03 
7.412300e-02 7.826108e+03 
7.550400e-02 7.676065e+03 
7.663100e-02 7.564512e+03 
7.791200e-02 7.449680e+03 
7.912700e-02 7.348387e+03 
8.027600e-02 7.256652e+03 
8.138400e-02 7.170511e+03 
8.272200e-02 7.067740e+03 
8.406100e-02 6.964326e+03 
8.534100e-02 6.861761e+03 
8.653800e-02 6.761525e+03 
8.759800e-02 6.670156e+03 
8.900300e-02 6.544185e+03 
9.009000e-02 6.442126e+03 
9.113300e-02 6.339897e+03 
9.239600e-02 6.213787e+03 
9.358000e-02 6.092084e+03 
9.496100e-02 5.945579e+03 
9.608400e-02 5.825800e+03 
9.727500e-02 5.699200e+03 
9.852600e-02 5.564432e+03 
9.973800e-02 5.436636e+03 
1.009000e-01 5.316751e+03 
1.020900e-01 5.197159e+03 
1.034000e-01 5.070580e+03 
1.046000e-01 4.959317e+03 
1.057200e-01 4.861843e+03 
1.069100e-01 4.762764e+03 
1.082500e-01 4.659603e+03 
1.093900e-01 4.578189e+03 
1.105400e-01 4.500420e+03 
1.116900e-01 4.430413e+03 
1.129600e-01 4.357171e+03 
1.142000e-01 4.292807e+03 
1.153300e-01 4.237547e+03 
1.166400e-01 4.178089e+03 
1.177800e-01 4.129882e+03 
1.190000e-01 4.080582e+03 
1.201200e-01 4.037532e+03 
1.213400e-01 3.991950e+03 
1.227100e-01 3.941805e+03 
1.238900e-01 3.899346e+03 
1.250700e-01 3.856576e+03 
1.263200e-01 3.811507e+03 
1.275500e-01 3.766370e+03 
1.287500e-01 3.722114e+03 
1.299900e-01 3.675475e+03 
1.311300e-01 3.632235e+03 
1.323500e-01 3.584992e+03 
1.335900e-01 3.536784e+03 
1.347100e-01 3.492496e+03 
1.359800e-01 3.442463e+03 
1.372100e-01 3.393278e+03 
1.384300e-01 3.345025e+03 
1.395700e-01 3.299567e+03 
1.407700e-01 3.252626e+03 
1.420300e-01 3.203306e+03 
1.432800e-01 3.155486e+03 
1.444500e-01 3.111483e+03 
1.456300e-01 3.068031e+03 
1.468900e-01 3.023171e+03 
1.480500e-01 2.982903e+03 
1.491700e-01 2.945358e+03 
1.503800e-01 2.906330e+03 
1.516400e-01 2.866874e+03 
1.528200e-01 2.832157e+03 
1.540200e-01 2.797538e+03 
1.551900e-01 2.765952e+03 
1.564300e-01 2.733488e+03 
1.576600e-01 2.702653e+03 
1.588700e-01 2.673789e+03 
1.600900e-01 2.645291e+03 
1.612700e-01 2.619350e+03 
1.625400e-01 2.591947e+03 
1.637600e-01 2.566417e+03 
1.649500e-01 2.542139e+03 
1.662200e-01 2.516683e+03 
1.674000e-01 2.493360e+03 
1.685000e-01 2.471979e+03 
1.697500e-01 2.447758e+03 
1.710300e-01 2.423071e+03 
1.722200e-01 2.400524e+03 
1.734400e-01 2.376887e+03 
1.746400e-01 2.353997e+03 
1.758700e-01 2.330621e+03 
1.770900e-01 2.307194e+03 
1.782700e-01 2.284914e+03 
1.794600e-01 2.262359e+03 
1.807000e-01 2.238943e+03 
1.819100e-01 2.216479e+03 
1.830100e-01 2.196015e+03 
1.842200e-01 2.173796e+03 
1.855000e-01 2.150683e+03 
1.867000e-01 2.129250e+03 
1.879200e-01 2.107813e+03 
1.890900e-01 2.087607e+03 
1.902800e-01 2.067508e+03 
1.915200e-01 2.046898e+03 
1.926900e-01 2.027832e+03 
1.939000e-01 2.008660e+03 
1.951700e-01 1.988857e+03 
1.963100e-01 1.971462e+03 
1.975100e-01 1.953708e+03 
1.987800e-01 1.935210e+03 
2.000100e-01 1.917684e+03 
2.012500e-01 1.900542e+03 
2.023400e-01 1.885690e+03 
2.036100e-01 1.868695e+03 
2.048900e-01 1.852068e+03 
2.060400e-01 1.837348e+03 
2.072200e-01 1.822468e+03 
2.084200e-01 1.807718e+03 
2.096900e-01 1.792336e+03 
2.109200e-01 1.777656e+03 
2.121100e-01 1.763734e+03 
2.132700e-01 1.750352e+03 
2.145200e-01 1.736132e+03 
2.157200e-01 1.722708e+03 
2.168800e-01 1.709923e+03 
2.180700e-01 1.696981e+03 
2.193400e-01 1.683377e+03 
2.206000e-01 1.670102e+03 
2.217500e-01 1.658149e+03 
2.229500e-01 1.645837e+03 
2.241400e-01 1.633872e+03 
2.253500e-01 1.621867e+03 
2.264900e-01 1.610701e+03 
2.277100e-01 1.598960e+03 
2.289900e-01 1.586869e+03 
2.301500e-01 1.576055e+03 
2.313600e-01 1.564918e+03 
2.325600e-01 1.554179e+03 
2.337700e-01 1.543487e+03 
2.350000e-01 1.532757e+03 
2.362000e-01 1.522503e+03 
2.374100e-01 1.512389e+03 
2.386500e-01 1.502154e+03 
2.399100e-01 1.491887e+03 
2.410400e-01 1.482924e+03 
2.422500e-01 1.473455e+03 
2.435000e-01 1.463795e+03 
2.447300e-01 1.454428e+03 
2.458700e-01 1.445929e+03 
2.470600e-01 1.437159e+03 
2.483300e-01 1.427914e+03 
2.495600e-01 1.419091e+03 
2.507600e-01 1.410614e+03 
2.519600e-01 1.402236e+03 
2.532200e-01 1.393544e+03 
2.543700e-01 1.385688e+03 
2.555500e-01 1.377707e+03 
2.568000e-01 1.369351e+03 
2.580100e-01 1.361356e+03 
2.592400e-01 1.353273e+03 
2.604100e-01 1.345650e+03 
2.616100e-01 1.337918e+03 
2.628400e-01 1.330082e+03 
2.640600e-01 1.322326e+03 
2.652200e-01 1.315005e+03 
2.664300e-01 1.307451e+03 
2.676500e-01 1.299919e+03 
2.688400e-01 1.292591e+03 
2.700700e-01 1.285061e+03 
2.712400e-01 1.277976e+03 
2.724800e-01 1.270549e+03 
2.736700e-01 1.263445e+03 
2.748800e-01 1.256244e+03 
2.761000e-01 1.249062e+03 
2.773200e-01 1.241957e+03 
2.785400e-01 1.234905e+03 
2.797000e-01 1.228219e+03 
2.808900e-01 1.221430e+03 
2.821400e-01 1.214375e+03 
2.833900e-01 1.207394e+03 
2.845500e-01 1.200927e+03 
2.857800e-01 1.194141e+03 
2.870300e-01 1.187317e+03 
2.882100e-01 1.180942e+03 
2.893900e-01 1.174604e+03 
2.906300e-01 1.167997e+03 
2.918900e-01 1.161355e+03 
2.930500e-01 1.155301e+03 
2.942500e-01 1.149095e+03 
2.954200e-01 1.143084e+03 
2.966500e-01 1.136827e+03 
2.978900e-01 1.130584e+03 
2.990400e-01 1.124851e+03 
3.002700e-01 1.118770e+03 
3.015100e-01 1.112697e+03 
3.026800e-01 1.107022e+03 
3.038500e-01 1.101401e+03 
3.050300e-01 1.095786e+03 
3.062600e-01 1.089983e+03 
3.075000e-01 1.084191e+03 
3.087000e-01 1.078640e+03 
3.099100e-01 1.073096e+03 
3.111200e-01 1.067606e+03 
3.123100e-01 1.062261e+03 
3.135300e-01 1.056833e+03 
3.147300e-01 1.051543e+03 
3.159900e-01 1.046043e+03 
3.171800e-01 1.040902e+03 
3.183700e-01 1.035810e+03 
3.196300e-01 1.030470e+03 
3.208400e-01 1.025391e+03 
3.220300e-01 1.020441e+03 
3.232000e-01 1.015629e+03 
3.244300e-01 1.010621e+03 
3.256700e-01 1.005620e+03 
3.269200e-01 1.000625e+03 
3.280800e-01 9.960313e+02 
3.292500e-01 9.914506e+02 
3.304800e-01 9.866817e+02 
3.317100e-01 9.819561e+02 
3.328900e-01 9.774628e+02 
3.340700e-01 9.730084e+02 
3.353600e-01 9.681990e+02 
3.365300e-01 9.638821e+02 
3.377100e-01 9.595655e+02 
3.389200e-01 9.551774e+02 
3.401600e-01 9.507201e+02 
3.413700e-01 9.464205e+02 
3.425300e-01 9.423415e+02 
3.437700e-01 9.380185e+02 
3.449800e-01 9.338368e+02 
3.461800e-01 9.297250e+02 
3.473600e-01 9.257222e+02 
3.485800e-01 9.216345e+02 
3.498100e-01 9.175487e+02 
3.510200e-01 9.135635e+02 
3.522000e-01 9.097095e+02 
3.533900e-01 9.058546e+02 
3.546400e-01 9.018614e+02 
3.558400e-01 8.980614e+02 
3.570600e-01 8.942301e+02 
3.582700e-01 8.904618e+02 
3.595000e-01 8.866630e+02 
3.607100e-01 8.829675e+02 
3.618900e-01 8.794010e+02 
3.631200e-01 8.757136e+02 
3.643200e-01 8.721454e+02 
3.655500e-01 8.685179e+02 
3.667300e-01 8.650658e+02 
3.679500e-01 8.615517e+02 
3.691900e-01 8.580092e+02 
3.703600e-01 8.546933e+02 
3.715700e-01 8.512909e+02 
3.727700e-01 8.479433e+02 
3.739900e-01 8.445702e+02 
3.752000e-01 8.412573e+02 
3.763900e-01 8.380246e+02 
3.775800e-01 8.348168e+02 
3.788200e-01 8.315005e+02 
3.800300e-01 8.282900e+02 
3.812100e-01 8.251772e+02 
3.824200e-01 8.220058e+02 
3.836100e-01 8.189106e+02 
3.848600e-01 8.156846e+02 
3.860400e-01 8.126628e+02 
3.872400e-01 8.096128e+02 
3.884600e-01 8.065638e+02 
3.896500e-01 8.036229e+02 
3.908700e-01 8.006306e+02 
3.920600e-01 7.977338e+02 
3.933100e-01 7.947141e+02 
3.945300e-01 7.917895e+02 
3.957200e-01 7.889522e+02 
3.969300e-01 7.860869e+02 
3.981700e-01 7.831727e+02 
3.993500e-01 7.804200e+02 
4.094840e-01 7.575162e+02 
4.272360e-01 7.207797e+02 
4.454600e-01 6.865665e+02 
4.630560e-01 6.564269e+02 
4.804610e-01 6.290312e+02 
4.980690e-01 6.035395e+02 
5.159230e-01 5.796735e+02 
5.317440e-01 5.600926e+02 
5.489640e-01 5.401729e+02 
5.671990e-01 5.205733e+02 
5.838690e-01 5.039209e+02 
6.018840e-01 4.871701e+02 
6.202330e-01 4.713095e+02 
6.379250e-01 4.569725e+02 
6.545410e-01 4.443655e+02 
6.714560e-01 4.322849e+02 
6.892080e-01 4.203385e+02 
7.066010e-01 4.092568e+02 
7.240540e-01 3.987683e+02 
7.420450e-01 3.885989e+02 
7.593780e-01 3.792224e+02 
7.764720e-01 3.704497e+02 
7.942840e-01 3.617653e+02 
8.116170e-01 3.536336e+02 
8.288310e-01 3.459475e+02 
8.462240e-01 3.384619e+02 
8.631980e-01 3.314553e+02 
8.810700e-01 3.243775e+02 
8.989410e-01 3.175881e+02 
9.166330e-01 3.110945e+02 
9.345640e-01 3.047131e+02 
9.515980e-01 2.988614e+02 
9.688720e-01 2.931398e+02 
9.865640e-01 2.874555e+02 
1.031870e+00 2.736665e+02 
1.063490e+00 2.646517e+02 
1.097920e+00 2.553329e+02 
1.134370e+00 2.460267e+02 
1.167730e+00 2.379010e+02 
1.203830e+00 2.295676e+02 
1.240470e+00 2.215376e+02 
1.275790e+00 2.141415e+02 
1.309140e+00 2.075057e+02 
1.342970e+00 2.010272e+02 
1.378420e+00 1.945813e+02 
1.413200e+00 1.885131e+02 
1.448110e+00 1.826877e+02 
1.484090e+00 1.769554e+02 
1.518820e+00 1.716542e+02 
1.552880e+00 1.666470e+02 
1.588630e+00 1.616257e+02 
1.623230e+00 1.569687e+02 
1.657720e+00 1.525086e+02 
1.692450e+00 1.482237e+02 
1.726400e+00 1.441580e+02 
1.762200e+00 1.400347e+02 
1.797880e+00 1.360963e+02 
1.833270e+00 1.323440e+02 
1.869070e+00 1.286893e+02 
1.903200e+00 1.253452e+02 
1.937740e+00 1.220807e+02 
1.973190e+00 1.188495e+02 
2.007440e+00 1.158398e+02 
2.042160e+00 1.128978e+02 
2.077900e+00 1.099717e+02 
2.112390e+00 1.072650e+02 
2.146220e+00 1.046747e+02 
2.181600e+00 1.020743e+02 
2.216930e+00 9.956776e+01 
2.250760e+00 9.724271e+01 
2.286500e+00 9.486583e+01 
2.321770e+00 9.260209e+01 
2.355950e+00 9.048150e+01 
2.391280e+00 8.835211e+01 
2.426240e+00 8.631925e+01 
2.460670e+00 8.437915e+01 
2.495640e+00 8.246434e+01 
2.531080e+00 8.059497e+01 
2.566220e+00 7.879455e+01 
2.600830e+00 7.707580e+01 
2.635080e+00 7.542781e+01 
2.670340e+00 7.377470e+01 
2.705970e+00 7.216227e+01 
2.740040e+00 7.066869e+01 
2.774520e+00 6.919187e+01 
2.809730e+00 6.773190e+01 
2.844390e+00 6.633839e+01 
2.879960e+00 6.494754e+01 
2.914860e+00 6.362078e+01 
2.949410e+00 6.234570e+01 
2.984440e+00 6.109184e+01 
3.019760e+00 5.985966e+01 
3.054730e+00 5.867261e+01 
3.089030e+00 5.754066e+01 
3.124060e+00 5.641691e+01 
3.159560e+00 5.530961e+01 
3.194710e+00 5.424346e+01 
3.229010e+00 5.323137e+01 
3.263320e+00 5.224029e+01 
3.297930e+00 5.126813e+01 
3.332830e+00 5.031515e+01 
3.368040e+00 4.937785e+01 
3.403300e+00 4.846322e+01 
3.438450e+00 4.757317e+01 
3.473060e+00 4.671929e+01 
3.508440e+00 4.587203e+01 
3.543110e+00 4.506276e+01 
3.577470e+00 4.427757e+01 
3.613040e+00 4.348607e+01 
3.648120e+00 4.272712e+01 
3.682910e+00 4.199130e+01 
3.718050e+00 4.126273e+01 
3.753320e+00 4.055136e+01 
3.787980e+00 3.987191e+01 
3.822290e+00 3.921394e+01 
3.857020e+00 3.856151e+01 
3.891920e+00 3.792132e+01 
3.926650e+00 3.729900e+01 
3.961970e+00 3.668088e+01 
3.997360e+00 3.607580e+01 
4.031670e+00 3.550292e+01 
4.066330e+00 3.493816e+01 
4.101420e+00 3.437934e+01 
4.136200e+00 3.383732e+01 
4.170810e+00 3.330994e+01 
4.206250e+00 3.278276e+01 
4.241580e+00 3.226910e+01 
4.276300e+00 3.177479e+01 
4.310970e+00 3.129151e+01 
4.346120e+00 3.081260e+01 
4.380600e+00 3.035369e+01 
4.414730e+00 2.990888e+01 
4.450350e+00 2.945357e+01 
4.485320e+00 2.901603e+01 
4.519810e+00 2.859436e+01 
4.555430e+00 2.816829e+01 
4.590870e+00 2.775357e+01 
4.625480e+00 2.735754e+01 
4.659910e+00 2.697142e+01 
4.695230e+00 2.658285e+01 
4.729960e+00 2.620833e+01 
4.764450e+00 2.584351e+01 
4.799530e+00 2.547942e+01 
4.834910e+00 2.511945e+01 
4.869700e+00 2.477466e+01 
4.904370e+00 2.443801e+01 
4.939450e+00 2.410376e+01 
4.973940e+00 2.378109e+01 
5.008430e+00 2.346443e+01 
5.043810e+00 2.314549e+01 
5.078840e+00 2.283552e+01 
5.113500e+00 2.253449e+01 
5.148890e+00 2.223504e+01 
5.184210e+00 2.194179e+01 
5.219060e+00 2.165733e+01 
5.253660e+00 2.137888e+01 
5.288570e+00 2.110296e+01 
5.323420e+00 2.083344e+01 
5.358440e+00 2.056855e+01 
5.393590e+00 2.030738e+01 
5.428310e+00 2.005378e+01 
5.462800e+00 1.980614e+01 
5.497640e+00 1.956028e+01 
5.532670e+00 1.931880e+01 
5.567280e+00 1.908474e+01 
5.602000e+00 1.885389e+01 
5.637270e+00 1.862235e+01 
5.672410e+00 1.839533e+01 
5.707020e+00 1.817547e+01 
5.742040e+00 1.795820e+01 
5.777430e+00 1.774258e+01 
5.812210e+00 1.753416e+01 
5.846820e+00 1.732996e+01 
5.881610e+00 1.712798e+01 
5.916510e+00 1.692861e+01 
5.951600e+00 1.673194e+01 
5.986560e+00 1.653938e+01 
6.021830e+00 1.634821e+01 
6.056490e+00 1.616368e+01 
6.091160e+00 1.598227e+01 
6.125830e+00 1.580366e+01 
6.161090e+00 1.562479e+01 
6.195760e+00 1.545154e+01 
6.230420e+00 1.528097e+01 
6.265690e+00 1.511008e+01 
6.300950e+00 1.494257e+01 
6.335620e+00 1.478036e+01 
6.370880e+00 1.461787e+01 
6.405550e+00 1.446085e+01 
6.440220e+00 1.430631e+01 
6.475480e+00 1.415146e+01 
6.510150e+00 1.400163e+01 
6.544810e+00 1.385446e+01 
6.580080e+00 1.370687e+01 
6.614750e+00 1.356390e+01 
6.649410e+00 1.342296e+01 
6.684080e+00 1.328397e+01 
6.719340e+00 1.314464e+01 
6.754010e+00 1.300974e+01 
6.788680e+00 1.287709e+01 
6.823940e+00 1.274408e+01 
6.859800e+00 1.261073e+01 
6.894470e+00 1.248398e+01 
6.929140e+00 1.235911e+01 
6.963800e+00 1.223597e+01 
6.999070e+00 1.211239e+01 
7.033730e+00 1.199257e+01 
7.068400e+00 1.187432e+01 
7.103660e+00 1.175570e+01 
7.138330e+00 1.164094e+01 
7.173600e+00 1.152641e+01 
7.208260e+00 1.141537e+01 
7.243530e+00 1.130386e+01 
7.277600e+00 1.119730e+01 
7.312860e+00 1.108820e+01 
7.348120e+00 1.098056e+01 
7.382790e+00 1.087609e+01 
7.417460e+00 1.077353e+01 
7.452720e+00 1.067087e+01 
7.487390e+00 1.057122e+01 
7.522650e+00 1.047117e+01 
7.557320e+00 1.037403e+01 
7.591990e+00 1.027812e+01 
7.627250e+00 1.018181e+01 
7.662510e+00 1.008672e+01 
7.697180e+00 9.994656e+00 
7.731850e+00 9.903834e+00 
7.766510e+00 9.814158e+00 
7.801180e+00 9.725559e+00 
7.836440e+00 9.636543e+00 
7.871110e+00 9.550080e+00 
7.906380e+00 9.463199e+00 
7.941040e+00 9.378863e+00 
7.976310e+00 9.294245e+00 
8.011570e+00 9.210873e+00 
8.046240e+00 9.129883e+00 
8.080900e+00 9.049881e+00 
8.115570e+00 8.970839e+00 
8.150830e+00 8.891541e+00 
8.185500e+00 8.814495e+00 
8.220770e+00 8.737042e+00 
8.255430e+00 8.661824e+00 
8.290100e+00 8.587590e+00 
8.324770e+00 8.514230e+00 
8.359430e+00 8.441738e+00 
8.394700e+00 8.368825e+00 
8.429960e+00 8.296866e+00 
8.464630e+00 8.227011e+00 
8.499890e+00 8.156781e+00 
8.534560e+00 8.088515e+00 
8.569200e+00 8.021076e+00 
