# Parameters:
# omega_b = 0.022539, omega_m = 0.135433, n_s = 0.947638, h = 78.149606, w = -1.000000, sigma_8 = 0.751969
# z = 0.500000
#
# k[1/Mpc] # P(k):
8.694000e-04 8.858211e+03 
2.077466e-03 1.855116e+04 
3.285532e-03 2.595518e+04 
4.493598e-03 3.152450e+04 
5.701664e-03 3.555295e+04 
6.909730e-03 3.831665e+04 
8.117797e-03 4.010882e+04 
9.325863e-03 4.108047e+04 
1.053393e-02 4.137689e+04 
1.174199e-02 4.112914e+04 
1.295006e-02 4.042270e+04 
1.415813e-02 3.937192e+04 
1.536619e-02 3.806995e+04 
1.657426e-02 3.657983e+04 
1.778233e-02 3.493090e+04 
1.899039e-02 3.316315e+04 
2.019846e-02 3.137481e+04 
2.140652e-02 2.966615e+04 
2.261459e-02 2.805157e+04 
2.382266e-02 2.654139e+04 
2.503072e-02 2.514774e+04 
2.623879e-02 2.387464e+04 
2.744685e-02 2.272344e+04 
2.865492e-02 2.169165e+04 
2.986299e-02 2.077237e+04 
3.100100e-02 2.000604e+04 
3.220400e-02 1.929094e+04 
3.288100e-02 1.893008e+04 
3.424300e-02 1.828187e+04 
3.555100e-02 1.774159e+04 
3.686000e-02 1.726986e+04 
3.795000e-02 1.691828e+04 
3.929100e-02 1.652862e+04 
4.039800e-02 1.622942e+04 
4.164000e-02 1.590911e+04 
4.294400e-02 1.557517e+04 
4.415000e-02 1.526615e+04 
4.542900e-02 1.492152e+04 
4.660900e-02 1.459380e+04 
4.782300e-02 1.422739e+04 
4.892900e-02 1.388013e+04 
5.031200e-02 1.342198e+04 
5.155900e-02 1.298640e+04 
5.238100e-02 1.269133e+04 
5.378200e-02 1.217928e+04 
5.513400e-02 1.167784e+04 
5.627600e-02 1.125490e+04 
5.735300e-02 1.086244e+04 
5.870100e-02 1.038549e+04 
5.988700e-02 9.984388e+03 
6.113500e-02 9.584178e+03 
6.225900e-02 9.246086e+03 
6.340100e-02 8.926472e+03 
6.480200e-02 8.566248e+03 
6.601100e-02 8.287163e+03 
6.725500e-02 8.029152e+03 
6.829100e-02 7.838335e+03 
6.958600e-02 7.623477e+03 
7.071100e-02 7.459661e+03 
7.192300e-02 7.303079e+03 
7.307400e-02 7.171270e+03 
7.412300e-02 7.063438e+03 
7.550400e-02 6.937692e+03 
7.663100e-02 6.844299e+03 
7.791200e-02 6.747444e+03 
7.912700e-02 6.660376e+03 
8.027600e-02 6.579790e+03 
8.138400e-02 6.502401e+03 
8.272200e-02 6.407480e+03 
8.406100e-02 6.309225e+03 
8.534100e-02 6.208919e+03 
8.653800e-02 6.109027e+03 
8.759800e-02 6.017121e+03 
8.900300e-02 5.889448e+03 
9.009000e-02 5.785625e+03 
9.113300e-02 5.681731e+03 
9.239600e-02 5.553899e+03 
9.358000e-02 5.431176e+03 
9.496100e-02 5.284837e+03 
9.608400e-02 5.166214e+03 
9.727500e-02 5.041708e+03 
9.852600e-02 4.911350e+03 
9.973800e-02 4.788867e+03 
1.009000e-01 4.674903e+03 
1.020900e-01 4.563427e+03 
1.034000e-01 4.446520e+03 
1.046000e-01 4.344864e+03 
1.057200e-01 4.257540e+03 
1.069100e-01 4.169405e+03 
1.082500e-01 4.079353e+03 
1.093900e-01 4.009250e+03 
1.105400e-01 3.942862e+03 
1.116900e-01 3.884233e+03 
1.129600e-01 3.823227e+03 
1.142000e-01 3.770321e+03 
1.153300e-01 3.724972e+03 
1.166400e-01 3.676302e+03 
1.177800e-01 3.636528e+03 
1.190000e-01 3.595704e+03 
1.201200e-01 3.559111e+03 
1.213400e-01 3.520194e+03 
1.227100e-01 3.475549e+03 
1.238900e-01 3.437351e+03 
1.250700e-01 3.397596e+03 
1.263200e-01 3.355264e+03 
1.275500e-01 3.311908e+03 
1.287500e-01 3.269063e+03 
1.299900e-01 3.223397e+03 
1.311300e-01 3.180981e+03 
1.323500e-01 3.134527e+03 
1.335900e-01 3.087284e+03 
1.347100e-01 3.044081e+03 
1.359800e-01 2.995552e+03 
1.372100e-01 2.948362e+03 
1.384300e-01 2.902366e+03 
1.395700e-01 2.859697e+03 
1.407700e-01 2.815752e+03 
1.420300e-01 2.770544e+03 
1.432800e-01 2.726731e+03 
1.444500e-01 2.687297e+03 
1.456300e-01 2.648368e+03 
1.468900e-01 2.608715e+03 
1.480500e-01 2.573285e+03 
1.491700e-01 2.540445e+03 
1.503800e-01 2.506555e+03 
1.516400e-01 2.472335e+03 
1.528200e-01 2.442407e+03 
1.540200e-01 2.412564e+03 
1.551900e-01 2.385349e+03 
1.564300e-01 2.357381e+03 
1.576600e-01 2.330755e+03 
1.588700e-01 2.305754e+03 
1.600900e-01 2.281057e+03 
1.612700e-01 2.258335e+03 
1.625400e-01 2.234333e+03 
1.637600e-01 2.211792e+03 
1.649500e-01 2.190249e+03 
1.662200e-01 2.167618e+03 
1.674000e-01 2.146643e+03 
1.685000e-01 2.127416e+03 
1.697500e-01 2.105531e+03 
1.710300e-01 2.083123e+03 
1.722200e-01 2.062659e+03 
1.734400e-01 2.041088e+03 
1.746400e-01 2.020197e+03 
1.758700e-01 1.998861e+03 
1.770900e-01 1.977471e+03 
1.782700e-01 1.957132e+03 
1.794600e-01 1.936575e+03 
1.807000e-01 1.915258e+03 
1.819100e-01 1.894811e+03 
1.830100e-01 1.876274e+03 
1.842200e-01 1.856167e+03 
1.855000e-01 1.835260e+03 
1.867000e-01 1.816003e+03 
1.879200e-01 1.796747e+03 
1.890900e-01 1.778620e+03 
1.902800e-01 1.760700e+03 
1.915200e-01 1.742327e+03 
1.926900e-01 1.725361e+03 
1.939000e-01 1.708390e+03 
1.951700e-01 1.690863e+03 
1.963100e-01 1.675490e+03 
1.975100e-01 1.659859e+03 
1.987800e-01 1.643574e+03 
2.000100e-01 1.628158e+03 
2.012500e-01 1.613109e+03 
2.023400e-01 1.600070e+03 
2.036100e-01 1.585151e+03 
2.048900e-01 1.570558e+03 
2.060400e-01 1.557639e+03 
2.072200e-01 1.544579e+03 
2.084200e-01 1.531611e+03 
2.096900e-01 1.518088e+03 
2.109200e-01 1.505183e+03 
2.121100e-01 1.492909e+03 
2.132700e-01 1.481110e+03 
2.145200e-01 1.468573e+03 
2.157200e-01 1.456712e+03 
2.168800e-01 1.445403e+03 
2.180700e-01 1.433957e+03 
2.193400e-01 1.421918e+03 
2.206000e-01 1.410156e+03 
2.217500e-01 1.399566e+03 
2.229500e-01 1.388660e+03 
2.241400e-01 1.378049e+03 
2.253500e-01 1.367404e+03 
2.264900e-01 1.357503e+03 
2.277100e-01 1.347099e+03 
2.289900e-01 1.336393e+03 
2.301500e-01 1.326817e+03 
2.313600e-01 1.316956e+03 
2.325600e-01 1.307471e+03 
2.337700e-01 1.298028e+03 
2.350000e-01 1.288553e+03 
2.362000e-01 1.279512e+03 
2.374100e-01 1.270611e+03 
2.386500e-01 1.261606e+03 
2.399100e-01 1.252572e+03 
2.410400e-01 1.244713e+03 
2.422500e-01 1.236416e+03 
2.435000e-01 1.227951e+03 
2.447300e-01 1.219748e+03 
2.458700e-01 1.212329e+03 
2.470600e-01 1.204674e+03 
2.483300e-01 1.196603e+03 
2.495600e-01 1.188910e+03 
2.507600e-01 1.181530e+03 
2.519600e-01 1.174236e+03 
2.532200e-01 1.166669e+03 
2.543700e-01 1.159836e+03 
2.555500e-01 1.152898e+03 
2.568000e-01 1.145634e+03 
2.580100e-01 1.138684e+03 
2.592400e-01 1.131658e+03 
2.604100e-01 1.125030e+03 
2.616100e-01 1.118308e+03 
2.628400e-01 1.111497e+03 
2.640600e-01 1.104751e+03 
2.652200e-01 1.098381e+03 
2.664300e-01 1.091810e+03 
2.676500e-01 1.085258e+03 
2.688400e-01 1.078876e+03 
2.700700e-01 1.072314e+03 
2.712400e-01 1.066141e+03 
2.724800e-01 1.059668e+03 
2.736700e-01 1.053474e+03 
2.748800e-01 1.047189e+03 
2.761000e-01 1.040922e+03 
2.773200e-01 1.034722e+03 
2.785400e-01 1.028565e+03 
2.797000e-01 1.022721e+03 
2.808900e-01 1.016788e+03 
2.821400e-01 1.010622e+03 
2.833900e-01 1.004521e+03 
2.845500e-01 9.988630e+02 
2.857800e-01 9.929253e+02 
2.870300e-01 9.869553e+02 
2.882100e-01 9.813781e+02 
2.893900e-01 9.758302e+02 
2.906300e-01 9.700456e+02 
2.918900e-01 9.642298e+02 
2.930500e-01 9.589301e+02 
2.942500e-01 9.534963e+02 
2.954200e-01 9.482328e+02 
2.966500e-01 9.427546e+02 
2.978900e-01 9.372884e+02 
2.990400e-01 9.322689e+02 
3.002700e-01 9.269443e+02 
3.015100e-01 9.216267e+02 
3.026800e-01 9.166586e+02 
3.038500e-01 9.117376e+02 
3.050300e-01 9.068218e+02 
3.062600e-01 9.017435e+02 
3.075000e-01 8.966747e+02 
3.087000e-01 8.918173e+02 
3.099100e-01 8.869664e+02 
3.111200e-01 8.821644e+02 
3.123100e-01 8.774907e+02 
3.135300e-01 8.727446e+02 
3.147300e-01 8.681206e+02 
3.159900e-01 8.633120e+02 
3.171800e-01 8.588198e+02 
3.183700e-01 8.543730e+02 
3.196300e-01 8.497091e+02 
3.208400e-01 8.452728e+02 
3.220300e-01 8.409499e+02 
3.232000e-01 8.367510e+02 
3.244300e-01 8.323822e+02 
3.256700e-01 8.280191e+02 
3.269200e-01 8.236620e+02 
3.280800e-01 8.196553e+02 
3.292500e-01 8.156629e+02 
3.304800e-01 8.115075e+02 
3.317100e-01 8.073902e+02 
3.328900e-01 8.034754e+02 
3.340700e-01 7.995946e+02 
3.353600e-01 7.954083e+02 
3.365300e-01 7.916522e+02 
3.377100e-01 7.878964e+02 
3.389200e-01 7.840786e+02 
3.401600e-01 7.802008e+02 
3.413700e-01 7.764629e+02 
3.425300e-01 7.729189e+02 
3.437700e-01 7.691630e+02 
3.449800e-01 7.655300e+02 
3.461800e-01 7.619578e+02 
3.473600e-01 7.584816e+02 
3.485800e-01 7.549345e+02 
3.498100e-01 7.513892e+02 
3.510200e-01 7.479313e+02 
3.522000e-01 7.445872e+02 
3.533900e-01 7.412426e+02 
3.546400e-01 7.377824e+02 
3.558400e-01 7.344900e+02 
3.570600e-01 7.311706e+02 
3.582700e-01 7.279058e+02 
3.595000e-01 7.246147e+02 
3.607100e-01 7.214149e+02 
3.618900e-01 7.183283e+02 
3.631200e-01 7.151371e+02 
3.643200e-01 7.120493e+02 
3.655500e-01 7.089100e+02 
3.667300e-01 7.059227e+02 
3.679500e-01 7.028870e+02 
3.691900e-01 6.998267e+02 
3.703600e-01 6.969622e+02 
3.715700e-01 6.940230e+02 
3.727700e-01 6.911312e+02 
3.739900e-01 6.882182e+02 
3.752000e-01 6.853585e+02 
3.763900e-01 6.825681e+02 
3.775800e-01 6.797992e+02 
3.788200e-01 6.769366e+02 
3.800300e-01 6.741654e+02 
3.812100e-01 6.714823e+02 
3.824200e-01 6.687511e+02 
3.836100e-01 6.660857e+02 
3.848600e-01 6.633076e+02 
3.860400e-01 6.607053e+02 
3.872400e-01 6.580788e+02 
3.884600e-01 6.554545e+02 
3.896500e-01 6.529236e+02 
3.908700e-01 6.503486e+02 
3.920600e-01 6.478558e+02 
3.933100e-01 6.452572e+02 
3.945300e-01 6.427404e+02 
3.957200e-01 6.403022e+02 
3.969300e-01 6.378409e+02 
3.981700e-01 6.353377e+02 
3.993500e-01 6.329732e+02 
4.094840e-01 6.133221e+02 
4.272360e-01 5.818844e+02 
4.454600e-01 5.527034e+02 
4.630560e-01 5.270804e+02 
4.804610e-01 5.038578e+02 
4.980690e-01 4.823031e+02 
5.159230e-01 4.621670e+02 
5.317440e-01 4.456754e+02 
5.489640e-01 4.289344e+02 
5.671990e-01 4.124936e+02 
5.838690e-01 3.985530e+02 
6.018840e-01 3.845535e+02 
6.202330e-01 3.713351e+02 
6.379250e-01 3.594095e+02 
6.545410e-01 3.489570e+02 
6.714560e-01 3.389630e+02 
6.892080e-01 3.291114e+02 
7.066010e-01 3.200071e+02 
7.240540e-01 3.114144e+02 
7.420450e-01 3.031144e+02 
7.593780e-01 2.954937e+02 
7.764720e-01 2.883877e+02 
7.942840e-01 2.813757e+02 
8.116170e-01 2.748415e+02 
8.288310e-01 2.686903e+02 
8.462240e-01 2.627197e+02 
8.631980e-01 2.571520e+02 
8.810700e-01 2.515472e+02 
8.989410e-01 2.461889e+02 
9.166330e-01 2.410829e+02 
9.345640e-01 2.360816e+02 
9.515980e-01 2.315101e+02 
9.688720e-01 2.270532e+02 
9.865640e-01 2.226385e+02 
1.031870e+00 2.119722e+02 
1.063490e+00 2.050359e+02 
1.097920e+00 1.978906e+02 
1.134370e+00 1.907761e+02 
1.167730e+00 1.845799e+02 
1.203830e+00 1.782420e+02 
1.240470e+00 1.721431e+02 
1.275790e+00 1.665348e+02 
1.309140e+00 1.615068e+02 
1.342970e+00 1.566011e+02 
1.378420e+00 1.517222e+02 
1.413200e+00 1.471308e+02 
1.448110e+00 1.427231e+02 
1.484090e+00 1.383853e+02 
1.518820e+00 1.343711e+02 
1.552880e+00 1.305794e+02 
1.588630e+00 1.267735e+02 
1.623230e+00 1.232421e+02 
1.657720e+00 1.198573e+02 
1.692450e+00 1.166044e+02 
1.726400e+00 1.135146e+02 
1.762200e+00 1.103772e+02 
1.797880e+00 1.073782e+02 
1.833270e+00 1.045188e+02 
1.869070e+00 1.017303e+02 
1.903200e+00 9.917672e+01 
1.937740e+00 9.668134e+01 
1.973190e+00 9.420853e+01 
2.007440e+00 9.190265e+01 
2.042160e+00 8.964670e+01 
2.077900e+00 8.740060e+01 
2.112390e+00 8.532079e+01 
2.146220e+00 8.332768e+01 
2.181600e+00 8.132511e+01 
2.216930e+00 7.939261e+01 
2.250760e+00 7.759823e+01 
2.286500e+00 7.576197e+01 
2.321770e+00 7.401106e+01 
2.355950e+00 7.236927e+01 
2.391280e+00 7.071889e+01 
2.426240e+00 6.914166e+01 
2.460670e+00 6.763482e+01 
2.495640e+00 6.614608e+01 
2.531080e+00 6.469117e+01 
2.566220e+00 6.328831e+01 
2.600830e+00 6.194789e+01 
2.635080e+00 6.066164e+01 
2.670340e+00 5.936959e+01 
2.705970e+00 5.810827e+01 
2.740040e+00 5.693899e+01 
2.774520e+00 5.578160e+01 
2.809730e+00 5.463626e+01 
2.844390e+00 5.354219e+01 
2.879960e+00 5.244906e+01 
2.914860e+00 5.140519e+01 
2.949410e+00 5.040127e+01 
2.984440e+00 4.941307e+01 
3.019760e+00 4.844112e+01 
3.054730e+00 4.750414e+01 
3.089030e+00 4.660943e+01 
3.124060e+00 4.572067e+01 
3.159560e+00 4.484425e+01 
3.194710e+00 4.399954e+01 
3.229010e+00 4.319724e+01 
3.263320e+00 4.241063e+01 
3.297930e+00 4.163863e+01 
3.332830e+00 4.088117e+01 
3.368040e+00 4.013562e+01 
3.403300e+00 3.940763e+01 
3.438450e+00 3.869844e+01 
3.473060e+00 3.801780e+01 
3.508440e+00 3.734173e+01 
3.543110e+00 3.669575e+01 
3.577470e+00 3.606824e+01 
3.613040e+00 3.543544e+01 
3.648120e+00 3.482819e+01 
3.682910e+00 3.423911e+01 
3.718050e+00 3.365535e+01 
3.753320e+00 3.308507e+01 
3.787980e+00 3.254000e+01 
3.822290e+00 3.201187e+01 
3.857020e+00 3.148780e+01 
3.891920e+00 3.097331e+01 
3.926650e+00 3.047283e+01 
3.961970e+00 2.997550e+01 
3.997360e+00 2.948827e+01 
4.031670e+00 2.902682e+01 
4.066330e+00 2.857154e+01 
4.101420e+00 2.812097e+01 
4.136200e+00 2.768352e+01 
4.170810e+00 2.725783e+01 
4.206250e+00 2.683198e+01 
4.241580e+00 2.641696e+01 
4.276300e+00 2.601728e+01 
4.310970e+00 2.562635e+01 
4.346120e+00 2.523880e+01 
4.380600e+00 2.486722e+01 
4.414730e+00 2.450702e+01 
4.450350e+00 2.413800e+01 
4.485320e+00 2.378334e+01 
4.519810e+00 2.344131e+01 
4.555430e+00 2.309561e+01 
4.590870e+00 2.275901e+01 
4.625480e+00 2.243744e+01 
4.659910e+00 2.212389e+01 
4.695230e+00 2.180810e+01 
4.729960e+00 2.150368e+01 
4.764450e+00 2.120705e+01 
4.799530e+00 2.091087e+01 
4.834910e+00 2.061803e+01 
4.869700e+00 2.033737e+01 
4.904370e+00 2.006329e+01 
4.939450e+00 1.979111e+01 
4.973940e+00 1.952821e+01 
5.008430e+00 1.927019e+01 
5.043810e+00 1.901022e+01 
5.078840e+00 1.875750e+01 
5.113500e+00 1.851206e+01 
5.148890e+00 1.826776e+01 
5.184210e+00 1.802851e+01 
5.219060e+00 1.779639e+01 
5.253660e+00 1.756908e+01 
5.288570e+00 1.734382e+01 
5.323420e+00 1.712373e+01 
5.358440e+00 1.690736e+01 
5.393590e+00 1.669401e+01 
5.428310e+00 1.648679e+01 
5.462800e+00 1.628441e+01 
5.497640e+00 1.608348e+01 
5.532670e+00 1.588606e+01 
5.567280e+00 1.569470e+01 
5.602000e+00 1.550594e+01 
5.637270e+00 1.531656e+01 
5.672410e+00 1.513087e+01 
5.707020e+00 1.495102e+01 
5.742040e+00 1.477325e+01 
5.777430e+00 1.459683e+01 
5.812210e+00 1.442629e+01 
5.846820e+00 1.425916e+01 
5.881610e+00 1.409382e+01 
5.916510e+00 1.393062e+01 
5.951600e+00 1.376961e+01 
5.986560e+00 1.361195e+01 
6.021830e+00 1.345543e+01 
6.056490e+00 1.330432e+01 
6.091160e+00 1.315575e+01 
6.125830e+00 1.300948e+01 
6.161090e+00 1.286298e+01 
6.195760e+00 1.272107e+01 
6.230420e+00 1.258136e+01 
6.265690e+00 1.244138e+01 
6.300950e+00 1.230415e+01 
6.335620e+00 1.217125e+01 
6.370880e+00 1.203812e+01 
6.405550e+00 1.190949e+01 
6.440220e+00 1.178288e+01 
6.475480e+00 1.165602e+01 
6.510150e+00 1.153326e+01 
6.544810e+00 1.141268e+01 
6.580080e+00 1.129175e+01 
6.614750e+00 1.117460e+01 
6.649410e+00 1.105911e+01 
6.684080e+00 1.094523e+01 
6.719340e+00 1.083105e+01 
6.754010e+00 1.072051e+01 
6.788680e+00 1.061182e+01 
6.823940e+00 1.050283e+01 
6.859800e+00 1.039356e+01 
6.894470e+00 1.028971e+01 
6.929140e+00 1.018740e+01 
6.963800e+00 1.008651e+01 
6.999070e+00 9.985251e+00 
7.033730e+00 9.887087e+00 
7.068400e+00 9.790217e+00 
7.103660e+00 9.693030e+00 
7.138330e+00 9.599016e+00 
7.173600e+00 9.505195e+00 
7.208260e+00 9.414223e+00 
7.243530e+00 9.322875e+00 
7.277600e+00 9.235576e+00 
7.312860e+00 9.146210e+00 
7.348120e+00 9.058025e+00 
7.382790e+00 8.972447e+00 
7.417460e+00 8.888446e+00 
7.452720e+00 8.804366e+00 
7.487390e+00 8.722754e+00 
7.522650e+00 8.640813e+00 
7.557320e+00 8.561269e+00 
7.591990e+00 8.482725e+00 
7.627250e+00 8.403853e+00 
7.662510e+00 8.325981e+00 
7.697180e+00 8.250602e+00 
7.731850e+00 8.176243e+00 
7.766510e+00 8.102820e+00 
7.801180e+00 8.030275e+00 
7.836440e+00 7.957399e+00 
7.871110e+00 7.886617e+00 
7.906380e+00 7.815490e+00 
7.941040e+00 7.746444e+00 
7.976310e+00 7.677177e+00 
8.011570e+00 7.608944e+00 
8.046240e+00 7.542658e+00 
8.080900e+00 7.477177e+00 
8.115570e+00 7.412483e+00 
8.150830e+00 7.347593e+00 
8.185500e+00 7.284542e+00 
8.220770e+00 7.221154e+00 
8.255430e+00 7.159593e+00 
8.290100e+00 7.098861e+00 
8.324770e+00 7.038845e+00 
8.359430e+00 6.979534e+00 
8.394700e+00 6.919876e+00 
8.429960e+00 6.861005e+00 
8.464630e+00 6.803860e+00 
8.499890e+00 6.746405e+00 
8.534560e+00 6.690553e+00 
8.569200e+00 6.635375e+00 
