# Parameters:
# omega_b = 0.022429, omega_m = 0.148386, n_s = 0.949213, h = 76.023622, w = -1.000000, sigma_8 = 0.774016
# z = 0.500000
#
# k[1/Mpc] # P(k):
8.694000e-04 7.050416e+03 
2.077466e-03 1.494039e+04 
3.285532e-03 2.113373e+04 
4.493598e-03 2.594161e+04 
5.701664e-03 2.956096e+04 
6.909730e-03 3.217921e+04 
8.117797e-03 3.400912e+04 
9.325863e-03 3.516058e+04 
1.053393e-02 3.574389e+04 
1.174199e-02 3.586134e+04 
1.295006e-02 3.557815e+04 
1.415813e-02 3.498371e+04 
1.536619e-02 3.415137e+04 
1.657426e-02 3.313033e+04 
1.778233e-02 3.193669e+04 
1.899039e-02 3.058540e+04 
2.019846e-02 2.916600e+04 
2.140652e-02 2.778485e+04 
2.261459e-02 2.645707e+04 
2.382266e-02 2.519177e+04 
2.503072e-02 2.400298e+04 
2.623879e-02 2.289791e+04 
2.744685e-02 2.187945e+04 
2.865492e-02 2.095147e+04 
2.986299e-02 2.011170e+04 
3.100100e-02 1.940038e+04 
3.220400e-02 1.872738e+04 
3.288100e-02 1.838389e+04 
3.424300e-02 1.776149e+04 
3.555100e-02 1.723867e+04 
3.686000e-02 1.678053e+04 
3.795000e-02 1.643962e+04 
3.929100e-02 1.606524e+04 
4.039800e-02 1.578200e+04 
4.164000e-02 1.548358e+04 
4.294400e-02 1.518066e+04 
4.415000e-02 1.490494e+04 
4.542900e-02 1.460314e+04 
4.660900e-02 1.431854e+04 
4.782300e-02 1.400207e+04 
4.892900e-02 1.370173e+04 
5.031200e-02 1.330355e+04 
5.155900e-02 1.292154e+04 
5.238100e-02 1.266050e+04 
5.378200e-02 1.220311e+04 
5.513400e-02 1.174881e+04 
5.627600e-02 1.136046e+04 
5.735300e-02 1.099589e+04 
5.870100e-02 1.054716e+04 
5.988700e-02 1.016497e+04 
6.113500e-02 9.778912e+03 
6.225900e-02 9.448599e+03 
6.340100e-02 9.132570e+03 
6.480200e-02 8.772272e+03 
6.601100e-02 8.488881e+03 
6.725500e-02 8.223416e+03 
6.829100e-02 8.024182e+03 
6.958600e-02 7.797428e+03 
7.071100e-02 7.622065e+03 
7.192300e-02 7.452472e+03 
7.307400e-02 7.308184e+03 
7.412300e-02 7.189215e+03 
7.550400e-02 7.049673e+03 
7.663100e-02 6.946027e+03 
7.791200e-02 6.839477e+03 
7.912700e-02 6.745640e+03 
8.027600e-02 6.660822e+03 
8.138400e-02 6.581346e+03 
8.272200e-02 6.486804e+03 
8.406100e-02 6.392015e+03 
8.534100e-02 6.298428e+03 
8.653800e-02 6.207303e+03 
8.759800e-02 6.124416e+03 
8.900300e-02 6.010358e+03 
9.009000e-02 5.918059e+03 
9.113300e-02 5.825571e+03 
9.239600e-02 5.711380e+03 
9.358000e-02 5.600970e+03 
9.496100e-02 5.467521e+03 
9.608400e-02 5.358018e+03 
9.727500e-02 5.241951e+03 
9.852600e-02 5.117416e+03 
9.973800e-02 4.998866e+03 
1.009000e-01 4.887289e+03 
1.020900e-01 4.775067e+03 
1.034000e-01 4.655937e+03 
1.046000e-01 4.550852e+03 
1.057200e-01 4.458295e+03 
1.069100e-01 4.364098e+03 
1.082500e-01 4.265699e+03 
1.093900e-01 4.187983e+03 
1.105400e-01 4.113716e+03 
1.116900e-01 4.046942e+03 
1.129600e-01 3.977167e+03 
1.142000e-01 3.916124e+03 
1.153300e-01 3.863914e+03 
1.166400e-01 3.808047e+03 
1.177800e-01 3.763144e+03 
1.190000e-01 3.717415e+03 
1.201200e-01 3.677997e+03 
1.213400e-01 3.636356e+03 
1.227100e-01 3.591182e+03 
1.238900e-01 3.553028e+03 
1.250700e-01 3.514881e+03 
1.263200e-01 3.474728e+03 
1.275500e-01 3.434610e+03 
1.287500e-01 3.395231e+03 
1.299900e-01 3.353664e+03 
1.311300e-01 3.314992e+03 
1.323500e-01 3.272545e+03 
1.335900e-01 3.229025e+03 
1.347100e-01 3.188782e+03 
1.359800e-01 3.143126e+03 
1.372100e-01 3.097871e+03 
1.384300e-01 3.053324e+03 
1.395700e-01 3.011000e+03 
1.407700e-01 2.967260e+03 
1.420300e-01 2.920886e+03 
1.432800e-01 2.875933e+03 
1.444500e-01 2.834275e+03 
1.456300e-01 2.793150e+03 
1.468900e-01 2.750614e+03 
1.480500e-01 2.712415e+03 
1.491700e-01 2.676826e+03 
1.503800e-01 2.639859e+03 
1.516400e-01 2.602530e+03 
1.528200e-01 2.569841e+03 
1.540200e-01 2.537252e+03 
1.551900e-01 2.507737e+03 
1.564300e-01 2.477459e+03 
1.576600e-01 2.448839e+03 
1.588700e-01 2.422213e+03 
1.600900e-01 2.395941e+03 
1.612700e-01 2.372278e+03 
1.625400e-01 2.347282e+03 
1.637600e-01 2.324102e+03 
1.649500e-01 2.302120e+03 
1.662200e-01 2.279079e+03 
1.674000e-01 2.258015e+03 
1.685000e-01 2.238704e+03 
1.697500e-01 2.216799e+03 
1.710300e-01 2.194444e+03 
1.722200e-01 2.174027e+03 
1.734400e-01 2.152498e+03 
1.746400e-01 2.131645e+03 
1.758700e-01 2.110300e+03 
1.770900e-01 2.088810e+03 
1.782700e-01 2.068373e+03 
1.794600e-01 2.047602e+03 
1.807000e-01 2.025988e+03 
1.819100e-01 2.005253e+03 
1.830100e-01 1.986288e+03 
1.842200e-01 1.965685e+03 
1.855000e-01 1.944252e+03 
1.867000e-01 1.924326e+03 
1.879200e-01 1.904398e+03 
1.890900e-01 1.885613e+03 
1.902800e-01 1.866916e+03 
1.915200e-01 1.847747e+03 
1.926900e-01 1.830018e+03 
1.939000e-01 1.812204e+03 
1.951700e-01 1.793805e+03 
1.963100e-01 1.777653e+03 
1.975100e-01 1.761192e+03 
1.987800e-01 1.744042e+03 
2.000100e-01 1.727807e+03 
2.012500e-01 1.711956e+03 
2.023400e-01 1.698223e+03 
2.036100e-01 1.682518e+03 
2.048900e-01 1.667187e+03 
2.060400e-01 1.653615e+03 
2.072200e-01 1.639899e+03 
2.084200e-01 1.626341e+03 
2.096900e-01 1.612200e+03 
2.109200e-01 1.598706e+03 
2.121100e-01 1.585948e+03 
2.132700e-01 1.573686e+03 
2.145200e-01 1.560657e+03 
2.157200e-01 1.548390e+03 
2.168800e-01 1.536721e+03 
2.180700e-01 1.524909e+03 
2.193400e-01 1.512517e+03 
2.206000e-01 1.500467e+03 
2.217500e-01 1.489616e+03 
2.229500e-01 1.478442e+03 
2.241400e-01 1.467658e+03 
2.253500e-01 1.456840e+03 
2.264900e-01 1.446779e+03 
2.277100e-01 1.436247e+03 
2.289900e-01 1.425456e+03 
2.301500e-01 1.415803e+03 
2.313600e-01 1.405863e+03 
2.325600e-01 1.396382e+03 
2.337700e-01 1.386944e+03 
2.350000e-01 1.377472e+03 
2.362000e-01 1.368464e+03 
2.374100e-01 1.359634e+03 
2.386500e-01 1.350699e+03 
2.399100e-01 1.341735e+03 
2.410400e-01 1.333972e+03 
2.422500e-01 1.325779e+03 
2.435000e-01 1.317421e+03 
2.447300e-01 1.309322e+03 
2.458700e-01 1.302002e+03 
2.470600e-01 1.294450e+03 
2.483300e-01 1.286487e+03 
2.495600e-01 1.278885e+03 
2.507600e-01 1.271576e+03 
2.519600e-01 1.264353e+03 
2.532200e-01 1.256858e+03 
2.543700e-01 1.250056e+03 
2.555500e-01 1.243126e+03 
2.568000e-01 1.235870e+03 
2.580100e-01 1.228929e+03 
2.592400e-01 1.221858e+03 
2.604100e-01 1.215165e+03 
2.616100e-01 1.208377e+03 
2.628400e-01 1.201498e+03 
2.640600e-01 1.194628e+03 
2.652200e-01 1.188118e+03 
2.664300e-01 1.181402e+03 
2.676500e-01 1.174706e+03 
2.688400e-01 1.168142e+03 
2.700700e-01 1.161367e+03 
2.712400e-01 1.154992e+03 
2.724800e-01 1.148309e+03 
2.736700e-01 1.141885e+03 
2.748800e-01 1.135342e+03 
2.761000e-01 1.128815e+03 
2.773200e-01 1.122359e+03 
2.785400e-01 1.115935e+03 
2.797000e-01 1.109815e+03 
2.808900e-01 1.103600e+03 
2.821400e-01 1.097141e+03 
2.833900e-01 1.090749e+03 
2.845500e-01 1.084800e+03 
2.857800e-01 1.078557e+03 
2.870300e-01 1.072279e+03 
2.882100e-01 1.066415e+03 
2.893900e-01 1.060572e+03 
2.906300e-01 1.054476e+03 
2.918900e-01 1.048347e+03 
2.930500e-01 1.042761e+03 
2.942500e-01 1.037032e+03 
2.954200e-01 1.031477e+03 
2.966500e-01 1.025695e+03 
2.978900e-01 1.019925e+03 
2.990400e-01 1.014626e+03 
3.002700e-01 1.009003e+03 
3.015100e-01 1.003385e+03 
3.026800e-01 9.981369e+02 
3.038500e-01 9.929381e+02 
3.050300e-01 9.877443e+02 
3.062600e-01 9.823755e+02 
3.075000e-01 9.770164e+02 
3.087000e-01 9.718807e+02 
3.099100e-01 9.667517e+02 
3.111200e-01 9.616729e+02 
3.123100e-01 9.567272e+02 
3.135300e-01 9.517048e+02 
3.147300e-01 9.468113e+02 
3.159900e-01 9.417225e+02 
3.171800e-01 9.369663e+02 
3.183700e-01 9.322568e+02 
3.196300e-01 9.273172e+02 
3.208400e-01 9.226185e+02 
3.220300e-01 9.180397e+02 
3.232000e-01 9.135900e+02 
3.244300e-01 9.089591e+02 
3.256700e-01 9.043340e+02 
3.269200e-01 8.997153e+02 
3.280800e-01 8.954678e+02 
3.292500e-01 8.912329e+02 
3.304800e-01 8.868244e+02 
3.317100e-01 8.824559e+02 
3.328900e-01 8.783023e+02 
3.340700e-01 8.741848e+02 
3.353600e-01 8.697405e+02 
3.365300e-01 8.657520e+02 
3.377100e-01 8.617638e+02 
3.389200e-01 8.577096e+02 
3.401600e-01 8.535916e+02 
3.413700e-01 8.496204e+02 
3.425300e-01 8.458539e+02 
3.437700e-01 8.418622e+02 
3.449800e-01 8.380009e+02 
3.461800e-01 8.342042e+02 
3.473600e-01 8.305089e+02 
3.485800e-01 8.267368e+02 
3.498100e-01 8.229664e+02 
3.510200e-01 8.192890e+02 
3.522000e-01 8.157326e+02 
3.533900e-01 8.121755e+02 
3.546400e-01 8.084933e+02 
3.558400e-01 8.049895e+02 
3.570600e-01 8.014569e+02 
3.582700e-01 7.979824e+02 
3.595000e-01 7.944798e+02 
3.607100e-01 7.910736e+02 
3.618900e-01 7.877871e+02 
3.631200e-01 7.843893e+02 
3.643200e-01 7.811014e+02 
3.655500e-01 7.777587e+02 
3.667300e-01 7.745777e+02 
3.679500e-01 7.713432e+02 
3.691900e-01 7.680824e+02 
3.703600e-01 7.650302e+02 
3.715700e-01 7.618985e+02 
3.727700e-01 7.588172e+02 
3.739900e-01 7.557129e+02 
3.752000e-01 7.526651e+02 
3.763900e-01 7.496910e+02 
3.775800e-01 7.467398e+02 
3.788200e-01 7.436888e+02 
3.800300e-01 7.407351e+02 
3.812100e-01 7.378738e+02 
3.824200e-01 7.349602e+02 
3.836100e-01 7.321167e+02 
3.848600e-01 7.291531e+02 
3.860400e-01 7.263769e+02 
3.872400e-01 7.235749e+02 
3.884600e-01 7.207749e+02 
3.896500e-01 7.180746e+02 
3.908700e-01 7.153270e+02 
3.920600e-01 7.126672e+02 
3.933100e-01 7.098945e+02 
3.945300e-01 7.072091e+02 
3.957200e-01 7.046061e+02 
3.969300e-01 7.019782e+02 
3.981700e-01 6.993054e+02 
3.993500e-01 6.967808e+02 
4.094840e-01 6.757879e+02 
4.272360e-01 6.421673e+02 
4.454600e-01 6.109076e+02 
4.630560e-01 5.834132e+02 
4.804610e-01 5.584540e+02 
4.980690e-01 5.352547e+02 
5.159230e-01 5.135551e+02 
5.317440e-01 4.957659e+02 
5.489640e-01 4.776893e+02 
5.671990e-01 4.599203e+02 
5.838690e-01 4.448417e+02 
6.018840e-01 4.296891e+02 
6.202330e-01 4.153680e+02 
6.379250e-01 4.024359e+02 
6.545410e-01 3.910879e+02 
6.714560e-01 3.802281e+02 
6.892080e-01 3.695085e+02 
7.066010e-01 3.595861e+02 
7.240540e-01 3.502100e+02 
7.420450e-01 3.411375e+02 
7.593780e-01 3.327914e+02 
7.764720e-01 3.249966e+02 
7.942840e-01 3.172927e+02 
8.116170e-01 3.100963e+02 
8.288310e-01 3.033086e+02 
8.462240e-01 2.967077e+02 
8.631980e-01 2.905405e+02 
8.810700e-01 2.843203e+02 
8.989410e-01 2.783628e+02 
9.166330e-01 2.726746e+02 
9.345640e-01 2.670920e+02 
9.515980e-01 2.619798e+02 
9.688720e-01 2.569875e+02 
9.865640e-01 2.520334e+02 
1.031870e+00 2.400347e+02 
1.063490e+00 2.322063e+02 
1.097920e+00 2.241232e+02 
1.134370e+00 2.160587e+02 
1.167730e+00 2.090219e+02 
1.203830e+00 2.018109e+02 
1.240470e+00 1.948634e+02 
1.275790e+00 1.884663e+02 
1.309140e+00 1.827265e+02 
1.342970e+00 1.771217e+02 
1.378420e+00 1.715442e+02 
1.413200e+00 1.662928e+02 
1.448110e+00 1.612494e+02 
1.484090e+00 1.562851e+02 
1.518820e+00 1.516905e+02 
1.552880e+00 1.473497e+02 
1.588630e+00 1.429932e+02 
1.623230e+00 1.389513e+02 
1.657720e+00 1.350775e+02 
1.692450e+00 1.313548e+02 
1.726400e+00 1.278199e+02 
1.762200e+00 1.242317e+02 
1.797880e+00 1.208024e+02 
1.833270e+00 1.175338e+02 
1.869070e+00 1.143475e+02 
1.903200e+00 1.114305e+02 
1.937740e+00 1.085809e+02 
1.973190e+00 1.057584e+02 
2.007440e+00 1.031277e+02 
2.042160e+00 1.005548e+02 
2.077900e+00 9.799424e+01 
2.112390e+00 9.562408e+01 
2.146220e+00 9.335410e+01 
2.181600e+00 9.107422e+01 
2.216930e+00 8.887517e+01 
2.250760e+00 8.683413e+01 
2.286500e+00 8.474640e+01 
2.321770e+00 8.275673e+01 
2.355950e+00 8.089189e+01 
2.391280e+00 7.901818e+01 
2.426240e+00 7.722836e+01 
2.460670e+00 7.551925e+01 
2.495640e+00 7.383150e+01 
2.531080e+00 7.218289e+01 
2.566220e+00 7.059408e+01 
2.600830e+00 6.907659e+01 
2.635080e+00 6.762097e+01 
2.670340e+00 6.615976e+01 
2.705970e+00 6.473386e+01 
2.740040e+00 6.341249e+01 
2.774520e+00 6.210527e+01 
2.809730e+00 6.081227e+01 
2.844390e+00 5.957763e+01 
2.879960e+00 5.834466e+01 
2.914860e+00 5.716789e+01 
2.949410e+00 5.603654e+01 
2.984440e+00 5.492343e+01 
3.019760e+00 5.382908e+01 
3.054730e+00 5.277444e+01 
3.089030e+00 5.176812e+01 
3.124060e+00 5.076876e+01 
3.159560e+00 4.978362e+01 
3.194710e+00 4.883463e+01 
3.229010e+00 4.793351e+01 
3.263320e+00 4.705057e+01 
3.297930e+00 4.618425e+01 
3.332830e+00 4.533464e+01 
3.368040e+00 4.449871e+01 
3.403300e+00 4.368273e+01 
3.438450e+00 4.288827e+01 
3.473060e+00 4.212593e+01 
3.508440e+00 4.136911e+01 
3.543110e+00 4.064611e+01 
3.577470e+00 3.994423e+01 
3.613040e+00 3.923658e+01 
3.648120e+00 3.855775e+01 
3.682910e+00 3.789943e+01 
3.718050e+00 3.724734e+01 
3.753320e+00 3.661049e+01 
3.787980e+00 3.600200e+01 
3.822290e+00 3.541260e+01 
3.857020e+00 3.482795e+01 
3.891920e+00 3.425414e+01 
3.926650e+00 3.369614e+01 
3.961970e+00 3.314179e+01 
3.997360e+00 3.259895e+01 
4.031670e+00 3.208491e+01 
4.066330e+00 3.157797e+01 
4.101420e+00 3.107632e+01 
4.136200e+00 3.058953e+01 
4.170810e+00 3.011585e+01 
4.206250e+00 2.964219e+01 
4.241580e+00 2.918061e+01 
4.276300e+00 2.873628e+01 
4.310970e+00 2.830177e+01 
4.346120e+00 2.787112e+01 
4.380600e+00 2.745834e+01 
4.414730e+00 2.705823e+01 
4.450350e+00 2.664850e+01 
4.485320e+00 2.625474e+01 
4.519810e+00 2.587515e+01 
4.555430e+00 2.549155e+01 
4.590870e+00 2.511811e+01 
4.625480e+00 2.476142e+01 
4.659910e+00 2.441365e+01 
4.695230e+00 2.406354e+01 
4.729960e+00 2.372607e+01 
4.764450e+00 2.339730e+01 
4.799530e+00 2.306910e+01 
4.834910e+00 2.274461e+01 
4.869700e+00 2.243372e+01 
4.904370e+00 2.213016e+01 
4.939450e+00 2.182873e+01 
4.973940e+00 2.153767e+01 
5.008430e+00 2.125203e+01 
5.043810e+00 2.096427e+01 
5.078840e+00 2.068458e+01 
5.113500e+00 2.041294e+01 
5.148890e+00 2.014267e+01 
5.184210e+00 1.987798e+01 
5.219060e+00 1.962121e+01 
5.253660e+00 1.936982e+01 
5.288570e+00 1.912070e+01 
5.323420e+00 1.887734e+01 
5.358440e+00 1.863813e+01 
5.393590e+00 1.840227e+01 
5.428310e+00 1.817322e+01 
5.462800e+00 1.794954e+01 
5.497640e+00 1.772745e+01 
5.532670e+00 1.750930e+01 
5.567280e+00 1.729785e+01 
5.602000e+00 1.708928e+01 
5.637270e+00 1.688006e+01 
5.672410e+00 1.667493e+01 
5.707020e+00 1.647625e+01 
5.742040e+00 1.627989e+01 
5.777430e+00 1.608502e+01 
5.812210e+00 1.589666e+01 
5.846820e+00 1.571210e+01 
5.881610e+00 1.552952e+01 
5.916510e+00 1.534931e+01 
5.951600e+00 1.517153e+01 
5.986560e+00 1.499746e+01 
6.021830e+00 1.482464e+01 
6.056490e+00 1.465781e+01 
6.091160e+00 1.449381e+01 
6.125830e+00 1.433233e+01 
6.161090e+00 1.417061e+01 
6.195760e+00 1.401396e+01 
6.230420e+00 1.385974e+01 
6.265690e+00 1.370522e+01 
6.300950e+00 1.355376e+01 
6.335620e+00 1.340709e+01 
6.370880e+00 1.326015e+01 
6.405550e+00 1.311817e+01 
6.440220e+00 1.297843e+01 
6.475480e+00 1.283840e+01 
6.510150e+00 1.270292e+01 
6.544810e+00 1.256983e+01 
6.580080e+00 1.243637e+01 
6.614750e+00 1.230708e+01 
6.649410e+00 1.217963e+01 
6.684080e+00 1.205394e+01 
6.719340e+00 1.192794e+01 
6.754010e+00 1.180595e+01 
6.788680e+00 1.168599e+01 
6.823940e+00 1.156571e+01 
6.859800e+00 1.144512e+01 
6.894470e+00 1.133051e+01 
6.929140e+00 1.121759e+01 
6.963800e+00 1.110624e+01 
6.999070e+00 1.099449e+01 
7.033730e+00 1.088613e+01 
7.068400e+00 1.077921e+01 
7.103660e+00 1.067194e+01 
7.138330e+00 1.056817e+01 
7.173600e+00 1.046461e+01 
7.208260e+00 1.036420e+01 
7.243530e+00 1.026337e+01 
7.277600e+00 1.016701e+01 
7.312860e+00 1.006837e+01 
7.348120e+00 9.971034e+00 
7.382790e+00 9.876575e+00 
7.417460e+00 9.783843e+00 
7.452720e+00 9.691016e+00 
7.487390e+00 9.600916e+00 
7.522650e+00 9.510455e+00 
7.557320e+00 9.422635e+00 
7.591990e+00 9.335919e+00 
7.627250e+00 9.248842e+00 
7.662510e+00 9.162871e+00 
7.697180e+00 9.079640e+00 
7.731850e+00 8.997532e+00 
7.766510e+00 8.916459e+00 
7.801180e+00 8.836357e+00 
7.836440e+00 8.755883e+00 
7.871110e+00 8.677720e+00 
7.906380e+00 8.599178e+00 
7.941040e+00 8.522933e+00 
7.976310e+00 8.446439e+00 
8.011570e+00 8.371077e+00 
8.046240e+00 8.297866e+00 
8.080900e+00 8.225546e+00 
8.115570e+00 8.154094e+00 
8.150830e+00 8.082417e+00 
8.185500e+00 8.012774e+00 
8.220770e+00 7.942760e+00 
8.255430e+00 7.874766e+00 
8.290100e+00 7.807670e+00 
8.324770e+00 7.741364e+00 
8.359430e+00 7.675839e+00 
8.394700e+00 7.609933e+00 
8.429960e+00 7.544892e+00 
8.464630e+00 7.481757e+00 
8.499890e+00 7.418281e+00 
8.534560e+00 7.356578e+00 
8.569200e+00 7.295621e+00 
