# Parameters:
# omega_b = 0.022177, omega_m = 0.139567, n_s = 0.887795, h = 77.204724, w = -1.000000, sigma_8 = 0.786614
# z = 0.500000
#
# k[1/Mpc] # P(k):
8.694000e-04 1.173721e+04 
2.077466e-03 2.338632e+04 
3.285532e-03 3.194085e+04 
4.493598e-03 3.820362e+04 
5.701664e-03 4.262470e+04 
6.909730e-03 4.557228e+04 
8.117797e-03 4.740861e+04 
9.325863e-03 4.832020e+04 
1.053393e-02 4.848136e+04 
1.174199e-02 4.804566e+04 
1.295006e-02 4.711183e+04 
1.415813e-02 4.580857e+04 
1.536619e-02 4.423947e+04 
1.657426e-02 4.247362e+04 
1.778233e-02 4.053979e+04 
1.899039e-02 3.847089e+04 
2.019846e-02 3.637669e+04 
2.140652e-02 3.437801e+04 
2.261459e-02 3.249129e+04 
2.382266e-02 3.072578e+04 
2.503072e-02 2.909417e+04 
2.623879e-02 2.760045e+04 
2.744685e-02 2.624503e+04 
2.865492e-02 2.502571e+04 
2.986299e-02 2.393474e+04 
3.100100e-02 2.302030e+04 
3.220400e-02 2.216217e+04 
3.288100e-02 2.172660e+04 
3.424300e-02 2.093987e+04 
3.555100e-02 2.027971e+04 
3.686000e-02 1.969963e+04 
3.795000e-02 1.926547e+04 
3.929100e-02 1.878317e+04 
4.039800e-02 1.841358e+04 
4.164000e-02 1.801983e+04 
4.294400e-02 1.761429e+04 
4.415000e-02 1.724300e+04 
4.542900e-02 1.683569e+04 
4.660900e-02 1.645275e+04 
4.782300e-02 1.603113e+04 
4.892900e-02 1.563504e+04 
5.031200e-02 1.511721e+04 
5.155900e-02 1.462869e+04 
5.238100e-02 1.429918e+04 
5.378200e-02 1.372925e+04 
5.513400e-02 1.317272e+04 
5.627600e-02 1.270385e+04 
5.735300e-02 1.226875e+04 
5.870100e-02 1.173945e+04 
5.988700e-02 1.129347e+04 
6.113500e-02 1.084728e+04 
6.225900e-02 1.046893e+04 
6.340100e-02 1.010964e+04 
6.480200e-02 9.702649e+03 
6.601100e-02 9.384818e+03 
6.725500e-02 9.088565e+03 
6.829100e-02 8.867196e+03 
6.958600e-02 8.615844e+03 
7.071100e-02 8.421838e+03 
7.192300e-02 8.234315e+03 
7.307400e-02 8.074637e+03 
7.412300e-02 7.942689e+03 
7.550400e-02 7.787176e+03 
7.663100e-02 7.670993e+03 
7.791200e-02 7.550219e+03 
7.912700e-02 7.442402e+03 
8.027600e-02 7.343735e+03 
8.138400e-02 7.250229e+03 
8.272200e-02 7.137573e+03 
8.406100e-02 7.023265e+03 
8.534100e-02 6.909159e+03 
8.653800e-02 6.797407e+03 
8.759800e-02 6.695569e+03 
8.900300e-02 6.555406e+03 
9.009000e-02 6.442262e+03 
9.113300e-02 6.329509e+03 
9.239600e-02 6.191036e+03 
9.358000e-02 6.058256e+03 
9.496100e-02 5.899844e+03 
9.608400e-02 5.771248e+03 
9.727500e-02 5.636087e+03 
9.852600e-02 5.493969e+03 
9.973800e-02 5.360067e+03 
1.009000e-01 5.235168e+03 
1.020900e-01 5.112150e+03 
1.034000e-01 4.982676e+03 
1.046000e-01 4.869609e+03 
1.057200e-01 4.771631e+03 
1.069100e-01 4.672414e+03 
1.082500e-01 4.570053e+03 
1.093900e-01 4.489753e+03 
1.105400e-01 4.413340e+03 
1.116900e-01 4.345006e+03 
1.129600e-01 4.273625e+03 
1.142000e-01 4.211058e+03 
1.153300e-01 4.157267e+03 
1.166400e-01 4.099269e+03 
1.177800e-01 4.051884e+03 
1.190000e-01 4.003248e+03 
1.201200e-01 3.960094e+03 
1.213400e-01 3.914274e+03 
1.227100e-01 3.862740e+03 
1.238900e-01 3.818885e+03 
1.250700e-01 3.774023e+03 
1.263200e-01 3.726549e+03 
1.275500e-01 3.678570e+03 
1.287500e-01 3.631432e+03 
1.299900e-01 3.581610e+03 
1.311300e-01 3.535494e+03 
1.323500e-01 3.485218e+03 
1.335900e-01 3.434139e+03 
1.347100e-01 3.387492e+03 
1.359800e-01 3.335054e+03 
1.372100e-01 3.283993e+03 
1.384300e-01 3.234145e+03 
1.395700e-01 3.187726e+03 
1.407700e-01 3.139879e+03 
1.420300e-01 3.090332e+03 
1.432800e-01 3.042305e+03 
1.444500e-01 2.998715e+03 
1.456300e-01 2.955679e+03 
1.468900e-01 2.911570e+03 
1.480500e-01 2.872074e+03 
1.491700e-01 2.835340e+03 
1.503800e-01 2.797266e+03 
1.516400e-01 2.758780e+03 
1.528200e-01 2.724931e+03 
1.540200e-01 2.691182e+03 
1.551900e-01 2.660284e+03 
1.564300e-01 2.628502e+03 
1.576600e-01 2.598219e+03 
1.588700e-01 2.569750e+03 
1.600900e-01 2.541632e+03 
1.612700e-01 2.515795e+03 
1.625400e-01 2.488504e+03 
1.637600e-01 2.462950e+03 
1.649500e-01 2.438574e+03 
1.662200e-01 2.412993e+03 
1.674000e-01 2.389433e+03 
1.685000e-01 2.367837e+03 
1.697500e-01 2.343357e+03 
1.710300e-01 2.318390e+03 
1.722200e-01 2.295590e+03 
1.734400e-01 2.271732e+03 
1.746400e-01 2.248633e+03 
1.758700e-01 2.225084e+03 
1.770900e-01 2.201562e+03 
1.782700e-01 2.179195e+03 
1.794600e-01 2.156632e+03 
1.807000e-01 2.133263e+03 
1.819100e-01 2.110848e+03 
1.830100e-01 2.090542e+03 
1.842200e-01 2.068517e+03 
1.855000e-01 2.045613e+03 
1.867000e-01 2.024494e+03 
1.879200e-01 2.003374e+03 
1.890900e-01 1.983482e+03 
1.902800e-01 1.963770e+03 
1.915200e-01 1.943560e+03 
1.926900e-01 1.924879e+03 
1.939000e-01 1.906140e+03 
1.951700e-01 1.886788e+03 
1.963100e-01 1.869795e+03 
1.975100e-01 1.852468e+03 
1.987800e-01 1.834417e+03 
2.000100e-01 1.817312e+03 
2.012500e-01 1.800574e+03 
2.023400e-01 1.786072e+03 
2.036100e-01 1.769473e+03 
2.048900e-01 1.753208e+03 
2.060400e-01 1.738810e+03 
2.072200e-01 1.724253e+03 
2.084200e-01 1.709789e+03 
2.096900e-01 1.694705e+03 
2.109200e-01 1.680311e+03 
2.121100e-01 1.666629e+03 
2.132700e-01 1.653477e+03 
2.145200e-01 1.639502e+03 
2.157200e-01 1.626293e+03 
2.168800e-01 1.613705e+03 
2.180700e-01 1.600964e+03 
2.193400e-01 1.587571e+03 
2.206000e-01 1.574499e+03 
2.217500e-01 1.562729e+03 
2.229500e-01 1.550608e+03 
2.241400e-01 1.538833e+03 
2.253500e-01 1.527021e+03 
2.264900e-01 1.516034e+03 
2.277100e-01 1.504494e+03 
2.289900e-01 1.492622e+03 
2.301500e-01 1.482005e+03 
2.313600e-01 1.471072e+03 
2.325600e-01 1.460556e+03 
2.337700e-01 1.450088e+03 
2.350000e-01 1.439582e+03 
2.362000e-01 1.429557e+03 
2.374100e-01 1.419685e+03 
2.386500e-01 1.409696e+03 
2.399100e-01 1.399677e+03 
2.410400e-01 1.390953e+03 
2.422500e-01 1.381743e+03 
2.435000e-01 1.372346e+03 
2.447300e-01 1.363238e+03 
2.458700e-01 1.354994e+03 
2.470600e-01 1.346487e+03 
2.483300e-01 1.337519e+03 
2.495600e-01 1.328968e+03 
2.507600e-01 1.320762e+03 
2.519600e-01 1.312652e+03 
2.532200e-01 1.304238e+03 
2.543700e-01 1.296639e+03 
2.555500e-01 1.288922e+03 
2.568000e-01 1.280842e+03 
2.580100e-01 1.273112e+03 
2.592400e-01 1.265299e+03 
2.604100e-01 1.257931e+03 
2.616100e-01 1.250457e+03 
2.628400e-01 1.242884e+03 
2.640600e-01 1.235388e+03 
2.652200e-01 1.228312e+03 
2.664300e-01 1.221011e+03 
2.676500e-01 1.213732e+03 
2.688400e-01 1.206647e+03 
2.700700e-01 1.199364e+03 
2.712400e-01 1.192511e+03 
2.724800e-01 1.185328e+03 
2.736700e-01 1.178455e+03 
2.748800e-01 1.171485e+03 
2.761000e-01 1.164535e+03 
2.773200e-01 1.157659e+03 
2.785400e-01 1.150832e+03 
2.797000e-01 1.144356e+03 
2.808900e-01 1.137780e+03 
2.821400e-01 1.130947e+03 
2.833900e-01 1.124185e+03 
2.845500e-01 1.117916e+03 
2.857800e-01 1.111338e+03 
2.870300e-01 1.104724e+03 
2.882100e-01 1.098545e+03 
2.893900e-01 1.092399e+03 
2.906300e-01 1.085992e+03 
2.918900e-01 1.079551e+03 
2.930500e-01 1.073681e+03 
2.942500e-01 1.067662e+03 
2.954200e-01 1.061833e+03 
2.966500e-01 1.055766e+03 
2.978900e-01 1.049712e+03 
2.990400e-01 1.044153e+03 
3.002700e-01 1.038257e+03 
3.015100e-01 1.032368e+03 
3.026800e-01 1.026867e+03 
3.038500e-01 1.021418e+03 
3.050300e-01 1.015974e+03 
3.062600e-01 1.010352e+03 
3.075000e-01 1.004740e+03 
3.087000e-01 9.993625e+02 
3.099100e-01 9.939918e+02 
3.111200e-01 9.886759e+02 
3.123100e-01 9.835029e+02 
3.135300e-01 9.782497e+02 
3.147300e-01 9.731316e+02 
3.159900e-01 9.678090e+02 
3.171800e-01 9.628374e+02 
3.183700e-01 9.579162e+02 
3.196300e-01 9.527547e+02 
3.208400e-01 9.478451e+02 
3.220300e-01 9.430609e+02 
3.232000e-01 9.384148e+02 
3.244300e-01 9.335811e+02 
3.256700e-01 9.287535e+02 
3.269200e-01 9.239326e+02 
3.280800e-01 9.194992e+02 
3.292500e-01 9.150828e+02 
3.304800e-01 9.104866e+02 
3.317100e-01 9.059322e+02 
3.328900e-01 9.016019e+02 
3.340700e-01 8.973092e+02 
3.353600e-01 8.926788e+02 
3.365300e-01 8.885243e+02 
3.377100e-01 8.843701e+02 
3.389200e-01 8.801472e+02 
3.401600e-01 8.758579e+02 
3.413700e-01 8.717237e+02 
3.425300e-01 8.678039e+02 
3.437700e-01 8.636497e+02 
3.449800e-01 8.596313e+02 
3.461800e-01 8.556802e+02 
3.473600e-01 8.518351e+02 
3.485800e-01 8.479112e+02 
3.498100e-01 8.439892e+02 
3.510200e-01 8.401639e+02 
3.522000e-01 8.364645e+02 
3.533900e-01 8.327644e+02 
3.546400e-01 8.289359e+02 
3.558400e-01 8.252931e+02 
3.570600e-01 8.216203e+02 
3.582700e-01 8.180080e+02 
3.595000e-01 8.143665e+02 
3.607100e-01 8.108257e+02 
3.618900e-01 8.074100e+02 
3.631200e-01 8.038784e+02 
3.643200e-01 8.004612e+02 
3.655500e-01 7.969871e+02 
3.667300e-01 7.936810e+02 
3.679500e-01 7.903189e+02 
3.691900e-01 7.869296e+02 
3.703600e-01 7.837571e+02 
3.715700e-01 7.805019e+02 
3.727700e-01 7.772992e+02 
3.739900e-01 7.740727e+02 
3.752000e-01 7.709049e+02 
3.763900e-01 7.678137e+02 
3.775800e-01 7.647465e+02 
3.788200e-01 7.615754e+02 
3.800300e-01 7.585055e+02 
3.812100e-01 7.555314e+02 
3.824200e-01 7.525028e+02 
3.836100e-01 7.495471e+02 
3.848600e-01 7.464664e+02 
3.860400e-01 7.435807e+02 
3.872400e-01 7.406681e+02 
3.884600e-01 7.377566e+02 
3.896500e-01 7.349484e+02 
3.908700e-01 7.320910e+02 
3.920600e-01 7.293249e+02 
3.933100e-01 7.264414e+02 
3.945300e-01 7.236487e+02 
3.957200e-01 7.209411e+02 
3.969300e-01 7.182072e+02 
3.981700e-01 7.154266e+02 
3.993500e-01 7.128003e+02 
4.094840e-01 6.909600e+02 
4.272360e-01 6.559624e+02 
4.454600e-01 6.234228e+02 
4.630560e-01 5.948068e+02 
4.804610e-01 5.688447e+02 
4.980690e-01 5.447291e+02 
5.159230e-01 5.221932e+02 
5.317440e-01 5.037320e+02 
5.489640e-01 4.849853e+02 
5.671990e-01 4.665723e+02 
5.838690e-01 4.509498e+02 
6.018840e-01 4.352561e+02 
6.202330e-01 4.204195e+02 
6.379250e-01 4.070261e+02 
6.545410e-01 3.952674e+02 
6.714560e-01 3.840124e+02 
6.892080e-01 3.728984e+02 
7.066010e-01 3.626060e+02 
7.240540e-01 3.528765e+02 
7.420450e-01 3.434563e+02 
7.593780e-01 3.347877e+02 
7.764720e-01 3.266880e+02 
7.942840e-01 3.186809e+02 
8.116170e-01 3.112006e+02 
8.288310e-01 3.041404e+02 
8.462240e-01 2.972761e+02 
8.631980e-01 2.908622e+02 
8.810700e-01 2.843941e+02 
8.989410e-01 2.781991e+02 
9.166330e-01 2.722849e+02 
9.345640e-01 2.664843e+02 
9.515980e-01 2.611747e+02 
9.688720e-01 2.559908e+02 
9.865640e-01 2.508499e+02 
1.031870e+00 2.384120e+02 
1.063490e+00 2.303098e+02 
1.097920e+00 2.219567e+02 
1.134370e+00 2.136365e+02 
1.167730e+00 2.063907e+02 
1.203830e+00 1.989784e+02 
1.240470e+00 1.918515e+02 
1.275790e+00 1.853025e+02 
1.309140e+00 1.794362e+02 
1.342970e+00 1.737210e+02 
1.378420e+00 1.680424e+02 
1.413200e+00 1.627052e+02 
1.448110e+00 1.575897e+02 
1.484090e+00 1.525618e+02 
1.518820e+00 1.479185e+02 
1.552880e+00 1.435388e+02 
1.588630e+00 1.391507e+02 
1.623230e+00 1.350848e+02 
1.657720e+00 1.311946e+02 
1.692450e+00 1.274603e+02 
1.726400e+00 1.239208e+02 
1.762200e+00 1.203340e+02 
1.797880e+00 1.169105e+02 
1.833270e+00 1.136511e+02 
1.869070e+00 1.104786e+02 
1.903200e+00 1.075775e+02 
1.937740e+00 1.047472e+02 
1.973190e+00 1.019473e+02 
2.007440e+00 9.934054e+01 
2.042160e+00 9.679380e+01 
2.077900e+00 9.426225e+01 
2.112390e+00 9.192115e+01 
2.146220e+00 8.968217e+01 
2.181600e+00 8.743496e+01 
2.216930e+00 8.526977e+01 
2.250760e+00 8.326225e+01 
2.286500e+00 8.121073e+01 
2.321770e+00 7.925729e+01 
2.355950e+00 7.742785e+01 
2.391280e+00 7.559186e+01 
2.426240e+00 7.383937e+01 
2.460670e+00 7.216720e+01 
2.495640e+00 7.051727e+01 
2.531080e+00 6.890682e+01 
2.566220e+00 6.735617e+01 
2.600830e+00 6.587621e+01 
2.635080e+00 6.445754e+01 
2.670340e+00 6.303476e+01 
2.705970e+00 6.164723e+01 
2.740040e+00 6.036218e+01 
2.774520e+00 5.909186e+01 
2.809730e+00 5.783616e+01 
2.844390e+00 5.663777e+01 
2.879960e+00 5.544186e+01 
2.914860e+00 5.430123e+01 
2.949410e+00 5.320514e+01 
2.984440e+00 5.212740e+01 
3.019760e+00 5.106856e+01 
3.054730e+00 5.004866e+01 
3.089030e+00 4.907601e+01 
3.124060e+00 4.811056e+01 
3.159560e+00 4.715945e+01 
3.194710e+00 4.624369e+01 
3.229010e+00 4.537442e+01 
3.263320e+00 4.452336e+01 
3.297930e+00 4.368859e+01 
3.332830e+00 4.287029e+01 
3.368040e+00 4.206556e+01 
3.403300e+00 4.128036e+01 
3.438450e+00 4.051631e+01 
3.473060e+00 3.978335e+01 
3.508440e+00 3.905614e+01 
3.543110e+00 3.836159e+01 
3.577470e+00 3.768766e+01 
3.613040e+00 3.700837e+01 
3.648120e+00 3.635708e+01 
3.682910e+00 3.572568e+01 
3.718050e+00 3.510058e+01 
3.753320e+00 3.449024e+01 
3.787980e+00 3.390726e+01 
3.822290e+00 3.334276e+01 
3.857020e+00 3.278307e+01 
3.891920e+00 3.223392e+01 
3.926650e+00 3.170013e+01 
3.961970e+00 3.116997e+01 
3.997360e+00 3.065098e+01 
4.031670e+00 3.015964e+01 
4.066330e+00 2.967526e+01 
4.101420e+00 2.919601e+01 
4.136200e+00 2.873116e+01 
4.170810e+00 2.827891e+01 
4.206250e+00 2.782690e+01 
4.241580e+00 2.738651e+01 
4.276300e+00 2.696270e+01 
4.310970e+00 2.654835e+01 
4.346120e+00 2.613778e+01 
4.380600e+00 2.574436e+01 
4.414730e+00 2.536306e+01 
4.450350e+00 2.497280e+01 
4.485320e+00 2.459780e+01 
4.519810e+00 2.423638e+01 
4.555430e+00 2.387122e+01 
4.590870e+00 2.351580e+01 
4.625480e+00 2.317643e+01 
4.659910e+00 2.284559e+01 
4.695230e+00 2.251265e+01 
4.729960e+00 2.219179e+01 
4.764450e+00 2.187926e+01 
4.799530e+00 2.156740e+01 
4.834910e+00 2.125910e+01 
4.869700e+00 2.096378e+01 
4.904370e+00 2.067545e+01 
4.939450e+00 2.038921e+01 
4.973940e+00 2.011289e+01 
5.008430e+00 1.984174e+01 
5.043810e+00 1.956869e+01 
5.078840e+00 1.930337e+01 
5.113500e+00 1.904572e+01 
5.148890e+00 1.878941e+01 
5.184210e+00 1.853843e+01 
5.219060e+00 1.829501e+01 
5.253660e+00 1.805677e+01 
5.288570e+00 1.782072e+01 
5.323420e+00 1.759016e+01 
5.358440e+00 1.736357e+01 
5.393590e+00 1.714018e+01 
5.428310e+00 1.692332e+01 
5.462800e+00 1.671158e+01 
5.497640e+00 1.650139e+01 
5.532670e+00 1.629495e+01 
5.567280e+00 1.609488e+01 
5.602000e+00 1.589757e+01 
5.637270e+00 1.569972e+01 
5.672410e+00 1.550578e+01 
5.707020e+00 1.531796e+01 
5.742040e+00 1.513239e+01 
5.777430e+00 1.494826e+01 
5.812210e+00 1.477029e+01 
5.846820e+00 1.459596e+01 
5.881610e+00 1.442354e+01 
5.916510e+00 1.425336e+01 
5.951600e+00 1.408554e+01 
5.986560e+00 1.392124e+01 
6.021830e+00 1.375815e+01 
6.056490e+00 1.360075e+01 
6.091160e+00 1.344604e+01 
6.125830e+00 1.329374e+01 
6.161090e+00 1.314125e+01 
6.195760e+00 1.299359e+01 
6.230420e+00 1.284823e+01 
6.265690e+00 1.270262e+01 
6.300950e+00 1.255993e+01 
6.335620e+00 1.242176e+01 
6.370880e+00 1.228336e+01 
6.405550e+00 1.214969e+01 
6.440220e+00 1.201815e+01 
6.475480e+00 1.188637e+01 
6.510150e+00 1.175888e+01 
6.544810e+00 1.163368e+01 
6.580080e+00 1.150814e+01 
6.614750e+00 1.138654e+01 
6.649410e+00 1.126672e+01 
6.684080e+00 1.114858e+01 
6.719340e+00 1.103015e+01 
6.754010e+00 1.091552e+01 
6.788680e+00 1.080284e+01 
6.823940e+00 1.068987e+01 
6.859800e+00 1.057662e+01 
6.894470e+00 1.046902e+01 
6.929140e+00 1.036304e+01 
6.963800e+00 1.025854e+01 
6.999070e+00 1.015368e+01 
7.033730e+00 1.005208e+01 
7.068400e+00 9.951822e+00 
7.103660e+00 9.851251e+00 
7.138330e+00 9.753981e+00 
7.173600e+00 9.656935e+00 
7.208260e+00 9.562845e+00 
7.243530e+00 9.468377e+00 
7.277600e+00 9.378129e+00 
7.312860e+00 9.285774e+00 
7.348120e+00 9.194649e+00 
7.382790e+00 9.106228e+00 
7.417460e+00 9.019466e+00 
7.452720e+00 8.932641e+00 
7.487390e+00 8.848373e+00 
7.522650e+00 8.763776e+00 
7.557320e+00 8.681682e+00 
7.591990e+00 8.600636e+00 
7.627250e+00 8.519260e+00 
7.662510e+00 8.438925e+00 
7.697180e+00 8.361194e+00 
7.731850e+00 8.284532e+00 
7.766510e+00 8.208842e+00 
7.801180e+00 8.134065e+00 
7.836440e+00 8.058973e+00 
7.871110e+00 7.986059e+00 
7.906380e+00 7.912796e+00 
7.941040e+00 7.841683e+00 
7.976310e+00 7.770363e+00 
8.011570e+00 7.700131e+00 
8.046240e+00 7.631909e+00 
8.080900e+00 7.564521e+00 
8.115570e+00 7.497956e+00 
8.150830e+00 7.431220e+00 
8.185500e+00 7.366381e+00 
8.220770e+00 7.301202e+00 
8.255430e+00 7.237907e+00 
8.290100e+00 7.175499e+00 
8.324770e+00 7.113835e+00 
8.359430e+00 7.052902e+00 
8.394700e+00 6.991617e+00 
8.429960e+00 6.931157e+00 
8.464630e+00 6.872489e+00 
8.499890e+00 6.813507e+00 
8.534560e+00 6.756176e+00 
8.569200e+00 6.699542e+00 
