# Parameters:
# omega_b = 0.023012, omega_m = 0.120551, n_s = 0.898819, h = 76.968504, w = -1.000000, sigma_8 = 0.898425
# z = 0.500000
#
# k[1/Mpc] # P(k):
8.694000e-04 2.397841e+04 
2.077466e-03 4.742569e+04 
3.285532e-03 6.408600e+04 
4.493598e-03 7.571923e+04 
5.701664e-03 8.337916e+04 
6.909730e-03 8.795480e+04 
8.117797e-03 9.028132e+04 
9.325863e-03 9.078246e+04 
1.053393e-02 8.984040e+04 
1.174199e-02 8.778311e+04 
1.295006e-02 8.482716e+04 
1.415813e-02 8.124854e+04 
1.536619e-02 7.727007e+04 
1.657426e-02 7.304149e+04 
1.778233e-02 6.867854e+04 
1.899039e-02 6.435860e+04 
2.019846e-02 6.020878e+04 
2.140652e-02 5.631328e+04 
2.261459e-02 5.269598e+04 
2.382266e-02 4.938597e+04 
2.503072e-02 4.639647e+04 
2.623879e-02 4.372131e+04 
2.744685e-02 4.135388e+04 
2.865492e-02 3.927043e+04 
2.986299e-02 3.744483e+04 
3.100100e-02 3.594658e+04 
3.220400e-02 3.456557e+04 
3.288100e-02 3.387426e+04 
3.424300e-02 3.263725e+04 
3.555100e-02 3.160531e+04 
3.686000e-02 3.069708e+04 
3.795000e-02 3.001092e+04 
3.929100e-02 2.923201e+04 
4.039800e-02 2.861899e+04 
4.164000e-02 2.794946e+04 
4.294400e-02 2.723512e+04 
4.415000e-02 2.656906e+04 
4.542900e-02 2.582607e+04 
4.660900e-02 2.512479e+04 
4.782300e-02 2.435520e+04 
4.892900e-02 2.363881e+04 
5.031200e-02 2.271605e+04 
5.155900e-02 2.186311e+04 
5.238100e-02 2.129765e+04 
5.378200e-02 2.033718e+04 
5.513400e-02 1.942246e+04 
5.627600e-02 1.866887e+04 
5.735300e-02 1.798230e+04 
5.870100e-02 1.716293e+04 
5.988700e-02 1.648483e+04 
6.113500e-02 1.581745e+04 
6.225900e-02 1.526050e+04 
6.340100e-02 1.473877e+04 
6.480200e-02 1.415479e+04 
6.601100e-02 1.370522e+04 
6.725500e-02 1.329075e+04 
6.829100e-02 1.298441e+04 
6.958600e-02 1.263892e+04 
7.071100e-02 1.237434e+04 
7.192300e-02 1.211998e+04 
7.307400e-02 1.190412e+04 
7.412300e-02 1.172586e+04 
7.550400e-02 1.151510e+04 
7.663100e-02 1.135653e+04 
7.791200e-02 1.118883e+04 
7.912700e-02 1.103530e+04 
8.027600e-02 1.089113e+04 
8.138400e-02 1.075107e+04 
8.272200e-02 1.057730e+04 
8.406100e-02 1.039566e+04 
8.534100e-02 1.020873e+04 
8.653800e-02 1.002185e+04 
8.759800e-02 9.849790e+03 
8.900300e-02 9.611000e+03 
9.009000e-02 9.417464e+03 
9.113300e-02 9.225102e+03 
9.239600e-02 8.990004e+03 
9.358000e-02 8.766629e+03 
9.496100e-02 8.504851e+03 
9.608400e-02 8.295821e+03 
9.727500e-02 8.079038e+03 
9.852600e-02 7.859066e+03 
9.973800e-02 7.655793e+03 
1.009000e-01 7.469437e+03 
1.020900e-01 7.293866e+03 
1.034000e-01 7.112626e+03 
1.046000e-01 6.958039e+03 
1.057200e-01 6.829590e+03 
1.069100e-01 6.701254e+03 
1.082500e-01 6.573657e+03 
1.093900e-01 6.475761e+03 
1.105400e-01 6.383927e+03 
1.116900e-01 6.303669e+03 
1.129600e-01 6.220148e+03 
1.142000e-01 6.147014e+03 
1.153300e-01 6.083325e+03 
1.166400e-01 6.013368e+03 
1.177800e-01 5.953618e+03 
1.190000e-01 5.891039e+03 
1.201200e-01 5.831083e+03 
1.213400e-01 5.766625e+03 
1.227100e-01 5.687515e+03 
1.238900e-01 5.619012e+03 
1.250700e-01 5.545268e+03 
1.263200e-01 5.466299e+03 
1.275500e-01 5.384466e+03 
1.287500e-01 5.303807e+03 
1.299900e-01 5.218153e+03 
1.311300e-01 5.139513e+03 
1.323500e-01 5.054698e+03 
1.335900e-01 4.969930e+03 
1.347100e-01 4.894282e+03 
1.359800e-01 4.810740e+03 
1.372100e-01 4.732266e+03 
1.384300e-01 4.656966e+03 
1.395700e-01 4.589880e+03 
1.407700e-01 4.521115e+03 
1.420300e-01 4.453811e+03 
1.432800e-01 4.388543e+03 
1.444500e-01 4.332436e+03 
1.456300e-01 4.277002e+03 
1.468900e-01 4.221554e+03 
1.480500e-01 4.172292e+03 
1.491700e-01 4.126669e+03 
1.503800e-01 4.079646e+03 
1.516400e-01 4.031945e+03 
1.528200e-01 3.989376e+03 
1.540200e-01 3.946908e+03 
1.551900e-01 3.906742e+03 
1.564300e-01 3.865090e+03 
1.576600e-01 3.824483e+03 
1.588700e-01 3.785187e+03 
1.600900e-01 3.746268e+03 
1.612700e-01 3.708618e+03 
1.625400e-01 3.668848e+03 
1.637600e-01 3.630711e+03 
1.649500e-01 3.593804e+03 
1.662200e-01 3.554969e+03 
1.674000e-01 3.518603e+03 
1.685000e-01 3.485272e+03 
1.697500e-01 3.447530e+03 
1.710300e-01 3.409079e+03 
1.722200e-01 3.373970e+03 
1.734400e-01 3.337848e+03 
1.746400e-01 3.302904e+03 
1.758700e-01 3.267585e+03 
1.770900e-01 3.232918e+03 
1.782700e-01 3.199954e+03 
1.794600e-01 3.167262e+03 
1.807000e-01 3.133772e+03 
1.819100e-01 3.101645e+03 
1.830100e-01 3.073178e+03 
1.842200e-01 3.042404e+03 
1.855000e-01 3.010421e+03 
1.867000e-01 2.981485e+03 
1.879200e-01 2.952539e+03 
1.890900e-01 2.925323e+03 
1.902800e-01 2.898619e+03 
1.915200e-01 2.871231e+03 
1.926900e-01 2.845932e+03 
1.939000e-01 2.820626e+03 
1.951700e-01 2.794483e+03 
1.963100e-01 2.771499e+03 
1.975100e-01 2.747999e+03 
1.987800e-01 2.723510e+03 
2.000100e-01 2.700235e+03 
2.012500e-01 2.677304e+03 
2.023400e-01 2.657433e+03 
2.036100e-01 2.634623e+03 
2.048900e-01 2.612034e+03 
2.060400e-01 2.592034e+03 
2.072200e-01 2.571788e+03 
2.084200e-01 2.551388e+03 
2.096900e-01 2.530111e+03 
2.109200e-01 2.509805e+03 
2.121100e-01 2.490215e+03 
2.132700e-01 2.471368e+03 
2.145200e-01 2.451339e+03 
2.157200e-01 2.432203e+03 
2.168800e-01 2.413870e+03 
2.180700e-01 2.395313e+03 
2.193400e-01 2.375687e+03 
2.206000e-01 2.356311e+03 
2.217500e-01 2.338864e+03 
2.229500e-01 2.320897e+03 
2.241400e-01 2.303090e+03 
2.253500e-01 2.285218e+03 
2.264900e-01 2.268596e+03 
2.277100e-01 2.250937e+03 
2.289900e-01 2.232551e+03 
2.301500e-01 2.216109e+03 
2.313600e-01 2.199174e+03 
2.325600e-01 2.182466e+03 
2.337700e-01 2.165835e+03 
2.350000e-01 2.149148e+03 
2.362000e-01 2.133046e+03 
2.374100e-01 2.116980e+03 
2.386500e-01 2.100725e+03 
2.399100e-01 2.084423e+03 
2.410400e-01 2.069992e+03 
2.422500e-01 2.054726e+03 
2.435000e-01 2.039153e+03 
2.447300e-01 2.024040e+03 
2.458700e-01 2.010266e+03 
2.470600e-01 1.996057e+03 
2.483300e-01 1.981080e+03 
2.495600e-01 1.966829e+03 
2.507600e-01 1.953192e+03 
2.519600e-01 1.939717e+03 
2.532200e-01 1.925739e+03 
2.543700e-01 1.913251e+03 
2.555500e-01 1.900664e+03 
2.568000e-01 1.887487e+03 
2.580100e-01 1.874882e+03 
2.592400e-01 1.862382e+03 
2.604100e-01 1.850700e+03 
2.616100e-01 1.838853e+03 
2.628400e-01 1.826848e+03 
2.640600e-01 1.815240e+03 
2.652200e-01 1.804390e+03 
2.664300e-01 1.793196e+03 
2.676500e-01 1.782035e+03 
2.688400e-01 1.771384e+03 
2.700700e-01 1.760568e+03 
2.712400e-01 1.750392e+03 
2.724800e-01 1.739723e+03 
2.736700e-01 1.729654e+03 
2.748800e-01 1.719582e+03 
2.761000e-01 1.709537e+03 
2.773200e-01 1.699601e+03 
2.785400e-01 1.689798e+03 
2.797000e-01 1.680631e+03 
2.808900e-01 1.671324e+03 
2.821400e-01 1.661651e+03 
2.833900e-01 1.652084e+03 
2.845500e-01 1.643334e+03 
2.857800e-01 1.634150e+03 
2.870300e-01 1.624917e+03 
2.882100e-01 1.616290e+03 
2.893900e-01 1.607761e+03 
2.906300e-01 1.598896e+03 
2.918900e-01 1.589983e+03 
2.930500e-01 1.581860e+03 
2.942500e-01 1.573542e+03 
2.954200e-01 1.565516e+03 
2.966500e-01 1.557162e+03 
2.978900e-01 1.548825e+03 
2.990400e-01 1.541169e+03 
3.002700e-01 1.533066e+03 
3.015100e-01 1.524982e+03 
3.026800e-01 1.517428e+03 
3.038500e-01 1.509946e+03 
3.050300e-01 1.502471e+03 
3.062600e-01 1.494766e+03 
3.075000e-01 1.487075e+03 
3.087000e-01 1.479703e+03 
3.099100e-01 1.472342e+03 
3.111200e-01 1.465059e+03 
3.123100e-01 1.457978e+03 
3.135300e-01 1.450788e+03 
3.147300e-01 1.443782e+03 
3.159900e-01 1.436496e+03 
3.171800e-01 1.429693e+03 
3.183700e-01 1.422962e+03 
3.196300e-01 1.415901e+03 
3.208400e-01 1.409185e+03 
3.220300e-01 1.402639e+03 
3.232000e-01 1.396285e+03 
3.244300e-01 1.389674e+03 
3.256700e-01 1.383072e+03 
3.269200e-01 1.376478e+03 
3.280800e-01 1.370414e+03 
3.292500e-01 1.364376e+03 
3.304800e-01 1.358093e+03 
3.317100e-01 1.351866e+03 
3.328900e-01 1.345946e+03 
3.340700e-01 1.340076e+03 
3.353600e-01 1.333742e+03 
3.365300e-01 1.328057e+03 
3.377100e-01 1.322373e+03 
3.389200e-01 1.316594e+03 
3.401600e-01 1.310725e+03 
3.413700e-01 1.305064e+03 
3.425300e-01 1.299694e+03 
3.437700e-01 1.294003e+03 
3.449800e-01 1.288498e+03 
3.461800e-01 1.283086e+03 
3.473600e-01 1.277815e+03 
3.485800e-01 1.272429e+03 
3.498100e-01 1.267045e+03 
3.510200e-01 1.261794e+03 
3.522000e-01 1.256716e+03 
3.533900e-01 1.251637e+03 
3.546400e-01 1.246369e+03 
3.558400e-01 1.241355e+03 
3.570600e-01 1.236300e+03 
3.582700e-01 1.231328e+03 
3.595000e-01 1.226316e+03 
3.607100e-01 1.221437e+03 
3.618900e-01 1.216726e+03 
3.631200e-01 1.211855e+03 
3.643200e-01 1.207141e+03 
3.655500e-01 1.202350e+03 
3.667300e-01 1.197790e+03 
3.679500e-01 1.193131e+03 
3.691900e-01 1.188435e+03 
3.703600e-01 1.184040e+03 
3.715700e-01 1.179530e+03 
3.727700e-01 1.175092e+03 
3.739900e-01 1.170619e+03 
3.752000e-01 1.166221e+03 
3.763900e-01 1.161929e+03 
3.775800e-01 1.157671e+03 
3.788200e-01 1.153268e+03 
3.800300e-01 1.149007e+03 
3.812100e-01 1.144863e+03 
3.824200e-01 1.140634e+03 
3.836100e-01 1.136507e+03 
3.848600e-01 1.132205e+03 
3.860400e-01 1.128175e+03 
3.872400e-01 1.124108e+03 
3.884600e-01 1.120035e+03 
3.896500e-01 1.116103e+03 
3.908700e-01 1.112102e+03 
3.920600e-01 1.108229e+03 
3.933100e-01 1.104192e+03 
3.945300e-01 1.100282e+03 
3.957200e-01 1.096477e+03 
3.969300e-01 1.092630e+03 
3.981700e-01 1.088718e+03 
3.993500e-01 1.085024e+03 
4.094840e-01 1.054220e+03 
4.272360e-01 1.004551e+03 
4.454600e-01 9.581056e+02 
4.630560e-01 9.170439e+02 
4.804610e-01 8.796543e+02 
4.980690e-01 8.448198e+02 
5.159230e-01 8.121906e+02 
5.317440e-01 7.854031e+02 
5.489640e-01 7.580977e+02 
5.671990e-01 7.311975e+02 
5.838690e-01 7.082643e+02 
6.018840e-01 6.851382e+02 
6.202330e-01 6.631047e+02 
6.379250e-01 6.431437e+02 
6.545410e-01 6.254651e+02 
6.714560e-01 6.084543e+02 
6.892080e-01 5.915376e+02 
7.066010e-01 5.757426e+02 
7.240540e-01 5.607176e+02 
7.420450e-01 5.460642e+02 
7.593780e-01 5.324696e+02 
7.764720e-01 5.196860e+02 
7.942840e-01 5.069811e+02 
8.116170e-01 4.950213e+02 
8.288310e-01 4.836495e+02 
8.462240e-01 4.725490e+02 
8.631980e-01 4.621182e+02 
8.810700e-01 4.515524e+02 
8.989410e-01 4.413882e+02 
9.166330e-01 4.316367e+02 
9.345640e-01 4.220442e+02 
9.515980e-01 4.132347e+02 
9.688720e-01 4.046059e+02 
9.865640e-01 3.960289e+02 
1.031870e+00 3.752110e+02 
1.063490e+00 3.615973e+02 
1.097920e+00 3.475446e+02 
1.134370e+00 3.335375e+02 
1.167730e+00 3.213438e+02 
1.203830e+00 3.088674e+02 
1.240470e+00 2.968947e+02 
1.275790e+00 2.859082e+02 
1.309140e+00 2.760869e+02 
1.342970e+00 2.665475e+02 
1.378420e+00 2.570890e+02 
1.413200e+00 2.482184e+02 
1.448110e+00 2.397441e+02 
1.484090e+00 2.314349e+02 
1.518820e+00 2.237958e+02 
1.552880e+00 2.166049e+02 
1.588630e+00 2.094308e+02 
1.623230e+00 2.027987e+02 
1.657720e+00 1.964766e+02 
1.692450e+00 1.904193e+02 
1.726400e+00 1.846995e+02 
1.762200e+00 1.789277e+02 
1.797880e+00 1.734345e+02 
1.833270e+00 1.682164e+02 
1.869070e+00 1.631566e+02 
1.903200e+00 1.585417e+02 
1.937740e+00 1.540537e+02 
1.973190e+00 1.496283e+02 
2.007440e+00 1.455202e+02 
2.042160e+00 1.415156e+02 
2.077900e+00 1.375464e+02 
2.112390e+00 1.338864e+02 
2.146220e+00 1.303977e+02 
2.181600e+00 1.269027e+02 
2.216930e+00 1.235456e+02 
2.250760e+00 1.204407e+02 
2.286500e+00 1.172756e+02 
2.321770e+00 1.142699e+02 
2.355950e+00 1.114613e+02 
2.391280e+00 1.086500e+02 
2.426240e+00 1.059729e+02 
2.460670e+00 1.034244e+02 
2.495640e+00 1.009153e+02 
2.531080e+00 9.847172e+01 
2.566220e+00 9.612510e+01 
2.600830e+00 9.388999e+01 
2.635080e+00 9.175118e+01 
2.670340e+00 8.961220e+01 
2.705970e+00 8.753020e+01 
2.740040e+00 8.560526e+01 
2.774520e+00 8.370630e+01 
2.809730e+00 8.183310e+01 
2.844390e+00 8.004833e+01 
2.879960e+00 7.827107e+01 
2.914860e+00 7.657944e+01 
2.949410e+00 7.495618e+01 
2.984440e+00 7.336338e+01 
3.019760e+00 7.180140e+01 
3.054730e+00 7.029894e+01 
3.089030e+00 6.886930e+01 
3.124060e+00 6.745211e+01 
3.159560e+00 6.605835e+01 
3.194710e+00 6.471886e+01 
3.229010e+00 6.344867e+01 
3.263320e+00 6.220795e+01 
3.297930e+00 6.099222e+01 
3.332830e+00 5.980245e+01 
3.368040e+00 5.863409e+01 
3.403300e+00 5.749545e+01 
3.438450e+00 5.638965e+01 
3.473060e+00 5.532968e+01 
3.508440e+00 5.428010e+01 
3.543110e+00 5.327832e+01 
3.577470e+00 5.230808e+01 
3.613040e+00 5.133092e+01 
3.648120e+00 5.039555e+01 
3.682910e+00 4.948963e+01 
3.718050e+00 4.859409e+01 
3.753320e+00 4.772049e+01 
3.787980e+00 4.688706e+01 
3.822290e+00 4.608084e+01 
3.857020e+00 4.528255e+01 
3.891920e+00 4.449999e+01 
3.926650e+00 4.374039e+01 
3.961970e+00 4.298647e+01 
3.997360e+00 4.224940e+01 
4.031670e+00 4.155195e+01 
4.066330e+00 4.086533e+01 
4.101420e+00 4.018620e+01 
4.136200e+00 3.952856e+01 
4.170810e+00 3.888890e+01 
4.206250e+00 3.825049e+01 
4.241580e+00 3.762880e+01 
4.276300e+00 3.703118e+01 
4.310970e+00 3.644734e+01 
4.346120e+00 3.586917e+01 
4.380600e+00 3.531564e+01 
4.414730e+00 3.477932e+01 
4.450350e+00 3.423125e+01 
4.485320e+00 3.370474e+01 
4.519810e+00 3.319777e+01 
4.555430e+00 3.268582e+01 
4.590870e+00 3.218779e+01 
4.625480e+00 3.171264e+01 
4.659910e+00 3.124953e+01 
4.695230e+00 3.078403e+01 
4.729960e+00 3.033557e+01 
4.764450e+00 2.989903e+01 
4.799530e+00 2.946376e+01 
4.834910e+00 2.903354e+01 
4.869700e+00 2.862177e+01 
4.904370e+00 2.821986e+01 
4.939450e+00 2.782101e+01 
4.973940e+00 2.743626e+01 
5.008430e+00 2.705878e+01 
5.043810e+00 2.667896e+01 
5.078840e+00 2.631007e+01 
5.113500e+00 2.595192e+01 
5.148890e+00 2.559587e+01 
5.184210e+00 2.524730e+01 
5.219060e+00 2.490933e+01 
5.253660e+00 2.457876e+01 
5.288570e+00 2.425128e+01 
5.323420e+00 2.393154e+01 
5.358440e+00 2.361745e+01 
5.393590e+00 2.330783e+01 
5.428310e+00 2.300743e+01 
5.462800e+00 2.271422e+01 
5.497640e+00 2.242320e+01 
5.532670e+00 2.213748e+01 
5.567280e+00 2.186062e+01 
5.602000e+00 2.158762e+01 
5.637270e+00 2.131406e+01 
5.672410e+00 2.104595e+01 
5.707020e+00 2.078635e+01 
5.742040e+00 2.052995e+01 
5.777430e+00 2.027557e+01 
5.812210e+00 2.002976e+01 
5.846820e+00 1.978904e+01 
5.881610e+00 1.955099e+01 
5.916510e+00 1.931608e+01 
5.951600e+00 1.908447e+01 
5.986560e+00 1.885777e+01 
6.021830e+00 1.863276e+01 
6.056490e+00 1.841565e+01 
6.091160e+00 1.820230e+01 
6.125830e+00 1.799230e+01 
6.161090e+00 1.778207e+01 
6.195760e+00 1.757855e+01 
6.230420e+00 1.737825e+01 
6.265690e+00 1.717761e+01 
6.300950e+00 1.698099e+01 
6.335620e+00 1.679063e+01 
6.370880e+00 1.659999e+01 
6.405550e+00 1.641591e+01 
6.440220e+00 1.623479e+01 
6.475480e+00 1.605336e+01 
6.510150e+00 1.587786e+01 
6.544810e+00 1.570550e+01 
6.580080e+00 1.553270e+01 
6.614750e+00 1.536534e+01 
6.649410e+00 1.520046e+01 
6.684080e+00 1.503791e+01 
6.719340e+00 1.487500e+01 
6.754010e+00 1.471731e+01 
6.788680e+00 1.456229e+01 
6.823940e+00 1.440689e+01 
6.859800e+00 1.425113e+01 
6.894470e+00 1.410315e+01 
6.929140e+00 1.395741e+01 
6.963800e+00 1.381373e+01 
6.999070e+00 1.366957e+01 
7.033730e+00 1.352990e+01 
7.068400e+00 1.339210e+01 
7.103660e+00 1.325389e+01 
7.138330e+00 1.312022e+01 
7.173600e+00 1.298682e+01 
7.208260e+00 1.285751e+01 
7.243530e+00 1.272770e+01 
7.277600e+00 1.260368e+01 
7.312860e+00 1.247679e+01 
7.348120e+00 1.235160e+01 
7.382790e+00 1.223014e+01 
7.417460e+00 1.211096e+01 
7.452720e+00 1.199171e+01 
7.487390e+00 1.187599e+01 
7.522650e+00 1.175983e+01 
7.557320e+00 1.164709e+01 
7.591990e+00 1.153578e+01 
7.627250e+00 1.142404e+01 
7.662510e+00 1.131374e+01 
7.697180e+00 1.120702e+01 
7.731850e+00 1.110179e+01 
7.766510e+00 1.099790e+01 
7.801180e+00 1.089528e+01 
7.836440e+00 1.079222e+01 
7.871110e+00 1.069214e+01 
7.906380e+00 1.059161e+01 
7.941040e+00 1.049404e+01 
7.976310e+00 1.039618e+01 
8.011570e+00 1.029982e+01 
8.046240e+00 1.020623e+01 
8.080900e+00 1.011379e+01 
8.115570e+00 1.002250e+01 
8.150830e+00 9.930957e+00 
8.185500e+00 9.842035e+00 
8.220770e+00 9.752660e+00 
8.255430e+00 9.665882e+00 
8.290100e+00 9.580316e+00 
8.324770e+00 9.495781e+00 
8.359430e+00 9.412262e+00 
8.394700e+00 9.328273e+00 
8.429960e+00 9.245408e+00 
8.464630e+00 9.164990e+00 
8.499890e+00 9.084155e+00 
8.534560e+00 9.005594e+00 
8.569200e+00 8.928001e+00 
