# Parameters:
# omega_b = 0.021531, omega_m = 0.133780, n_s = 0.897244, h = 79.330709, w = -1.000000, sigma_8 = 0.748819
# z = 0.500000
#
# k[1/Mpc] # P(k):
8.694000e-04 1.114498e+04 
2.077466e-03 2.224594e+04 
3.285532e-03 3.036767e+04 
4.493598e-03 3.625747e+04 
5.701664e-03 4.037006e+04 
6.909730e-03 4.306461e+04 
8.117797e-03 4.469222e+04 
9.325863e-03 4.543535e+04 
1.053393e-02 4.546542e+04 
1.174199e-02 4.493404e+04 
1.295006e-02 4.393751e+04 
1.415813e-02 4.260064e+04 
1.536619e-02 4.102411e+04 
1.657426e-02 3.927696e+04 
1.778233e-02 3.739671e+04 
1.899039e-02 3.541030e+04 
2.019846e-02 3.340159e+04 
2.140652e-02 3.148369e+04 
2.261459e-02 2.968064e+04 
2.382266e-02 2.800352e+04 
2.503072e-02 2.646302e+04 
2.623879e-02 2.506137e+04 
2.744685e-02 2.379845e+04 
2.865492e-02 2.266959e+04 
2.986299e-02 2.166595e+04 
3.100100e-02 2.083058e+04 
3.220400e-02 2.005173e+04 
3.288100e-02 1.965874e+04 
3.424300e-02 1.895258e+04 
3.555100e-02 1.836340e+04 
3.686000e-02 1.784808e+04 
3.795000e-02 1.746327e+04 
3.929100e-02 1.703573e+04 
4.039800e-02 1.670695e+04 
4.164000e-02 1.635484e+04 
4.294400e-02 1.598823e+04 
4.415000e-02 1.564978e+04 
4.542900e-02 1.527420e+04 
4.660900e-02 1.491857e+04 
4.782300e-02 1.452365e+04 
4.892900e-02 1.415120e+04 
5.031200e-02 1.366266e+04 
5.155900e-02 1.320103e+04 
5.238100e-02 1.288966e+04 
5.378200e-02 1.235159e+04 
5.513400e-02 1.182738e+04 
5.627600e-02 1.138713e+04 
5.735300e-02 1.097994e+04 
5.870100e-02 1.048672e+04 
5.988700e-02 1.007315e+04 
6.113500e-02 9.661539e+03 
6.225900e-02 9.314563e+03 
6.340100e-02 8.987079e+03 
6.480200e-02 8.618445e+03 
6.601100e-02 8.333104e+03 
6.725500e-02 8.069327e+03 
6.829100e-02 7.874119e+03 
6.958600e-02 7.654108e+03 
7.071100e-02 7.486016e+03 
7.192300e-02 7.324950e+03 
7.307400e-02 7.188942e+03 
7.412300e-02 7.077301e+03 
7.550400e-02 6.946522e+03 
7.663100e-02 6.849039e+03 
7.791200e-02 6.747497e+03 
7.912700e-02 6.656001e+03 
8.027600e-02 6.571292e+03 
8.138400e-02 6.490006e+03 
8.272200e-02 6.390512e+03 
8.406100e-02 6.287861e+03 
8.534100e-02 6.183551e+03 
8.653800e-02 6.080121e+03 
8.759800e-02 5.985241e+03 
8.900300e-02 5.853875e+03 
9.009000e-02 5.747408e+03 
9.113300e-02 5.641174e+03 
9.239600e-02 5.510727e+03 
9.358000e-02 5.385802e+03 
9.496100e-02 5.237254e+03 
9.608400e-02 5.117078e+03 
9.727500e-02 4.991133e+03 
9.852600e-02 4.859642e+03 
9.973800e-02 4.736270e+03 
1.009000e-01 4.621621e+03 
1.020900e-01 4.509729e+03 
1.034000e-01 4.392492e+03 
1.046000e-01 4.290649e+03 
1.057200e-01 4.203265e+03 
1.069100e-01 4.115098e+03 
1.082500e-01 4.025040e+03 
1.093900e-01 3.954920e+03 
1.105400e-01 3.888510e+03 
1.116900e-01 3.829785e+03 
1.129600e-01 3.768645e+03 
1.142000e-01 3.715519e+03 
1.153300e-01 3.669928e+03 
1.166400e-01 3.620913e+03 
1.177800e-01 3.580779e+03 
1.190000e-01 3.539544e+03 
1.201200e-01 3.502534e+03 
1.213400e-01 3.463161e+03 
1.227100e-01 3.417986e+03 
1.238900e-01 3.379341e+03 
1.250700e-01 3.339158e+03 
1.263200e-01 3.296393e+03 
1.275500e-01 3.252648e+03 
1.287500e-01 3.209455e+03 
1.299900e-01 3.163474e+03 
1.311300e-01 3.120805e+03 
1.323500e-01 3.074130e+03 
1.335900e-01 3.026702e+03 
1.347100e-01 2.983377e+03 
1.359800e-01 2.934739e+03 
1.372100e-01 2.887495e+03 
1.384300e-01 2.841470e+03 
1.395700e-01 2.798816e+03 
1.407700e-01 2.754900e+03 
1.420300e-01 2.709775e+03 
1.432800e-01 2.666049e+03 
1.444500e-01 2.626737e+03 
1.456300e-01 2.587933e+03 
1.468900e-01 2.548441e+03 
1.480500e-01 2.513167e+03 
1.491700e-01 2.480487e+03 
1.503800e-01 2.446781e+03 
1.516400e-01 2.412754e+03 
1.528200e-01 2.383017e+03 
1.540200e-01 2.353368e+03 
1.551900e-01 2.326343e+03 
1.564300e-01 2.298575e+03 
1.576600e-01 2.272144e+03 
1.588700e-01 2.247329e+03 
1.600900e-01 2.222819e+03 
1.612700e-01 2.200265e+03 
1.625400e-01 2.176442e+03 
1.637600e-01 2.154064e+03 
1.649500e-01 2.132676e+03 
1.662200e-01 2.110204e+03 
1.674000e-01 2.089365e+03 
1.685000e-01 2.070262e+03 
1.697500e-01 2.048515e+03 
1.710300e-01 2.026244e+03 
1.722200e-01 2.005907e+03 
1.734400e-01 1.984466e+03 
1.746400e-01 1.963702e+03 
1.758700e-01 1.942500e+03 
1.770900e-01 1.921252e+03 
1.782700e-01 1.901051e+03 
1.794600e-01 1.880644e+03 
1.807000e-01 1.859490e+03 
1.819100e-01 1.839203e+03 
1.830100e-01 1.820833e+03 
1.842200e-01 1.800913e+03 
1.855000e-01 1.780205e+03 
1.867000e-01 1.761163e+03 
1.879200e-01 1.742123e+03 
1.890900e-01 1.724206e+03 
1.902800e-01 1.706519e+03 
1.915200e-01 1.688387e+03 
1.926900e-01 1.671650e+03 
1.939000e-01 1.654930e+03 
1.951700e-01 1.637664e+03 
1.963100e-01 1.622525e+03 
1.975100e-01 1.607145e+03 
1.987800e-01 1.591122e+03 
2.000100e-01 1.575956e+03 
2.012500e-01 1.561154e+03 
2.023400e-01 1.548329e+03 
2.036100e-01 1.533656e+03 
2.048900e-01 1.519298e+03 
2.060400e-01 1.506588e+03 
2.072200e-01 1.493738e+03 
2.084200e-01 1.480967e+03 
2.096900e-01 1.467648e+03 
2.109200e-01 1.454940e+03 
2.121100e-01 1.442836e+03 
2.132700e-01 1.431199e+03 
2.145200e-01 1.418836e+03 
2.157200e-01 1.407125e+03 
2.168800e-01 1.395954e+03 
2.180700e-01 1.384647e+03 
2.193400e-01 1.372749e+03 
2.206000e-01 1.361114e+03 
2.217500e-01 1.350638e+03 
2.229500e-01 1.339850e+03 
2.241400e-01 1.329338e+03 
2.253500e-01 1.318792e+03 
2.264900e-01 1.308984e+03 
2.277100e-01 1.298672e+03 
2.289900e-01 1.288054e+03 
2.301500e-01 1.278558e+03 
2.313600e-01 1.268780e+03 
2.325600e-01 1.259365e+03 
2.337700e-01 1.249993e+03 
2.350000e-01 1.240588e+03 
2.362000e-01 1.231614e+03 
2.374100e-01 1.222776e+03 
2.386500e-01 1.213834e+03 
2.399100e-01 1.204866e+03 
2.410400e-01 1.197064e+03 
2.422500e-01 1.188827e+03 
2.435000e-01 1.180424e+03 
2.447300e-01 1.172282e+03 
2.458700e-01 1.164922e+03 
2.470600e-01 1.157327e+03 
2.483300e-01 1.149321e+03 
2.495600e-01 1.141693e+03 
2.507600e-01 1.134381e+03 
2.519600e-01 1.127155e+03 
2.532200e-01 1.119657e+03 
2.543700e-01 1.112893e+03 
2.555500e-01 1.106031e+03 
2.568000e-01 1.098846e+03 
2.580100e-01 1.091972e+03 
2.592400e-01 1.085032e+03 
2.604100e-01 1.078490e+03 
2.616100e-01 1.071855e+03 
2.628400e-01 1.065131e+03 
2.640600e-01 1.058483e+03 
2.652200e-01 1.052211e+03 
2.664300e-01 1.045739e+03 
2.676500e-01 1.039287e+03 
2.688400e-01 1.033011e+03 
2.700700e-01 1.026562e+03 
2.712400e-01 1.020495e+03 
2.724800e-01 1.014135e+03 
2.736700e-01 1.008053e+03 
2.748800e-01 1.001889e+03 
2.761000e-01 9.957409e+02 
2.773200e-01 9.896599e+02 
2.785400e-01 9.836231e+02 
2.797000e-01 9.778988e+02 
2.808900e-01 9.720871e+02 
2.821400e-01 9.660475e+02 
2.833900e-01 9.600716e+02 
2.845500e-01 9.545336e+02 
2.857800e-01 9.487222e+02 
2.870300e-01 9.428793e+02 
2.882100e-01 9.374212e+02 
2.893900e-01 9.319933e+02 
2.906300e-01 9.263350e+02 
2.918900e-01 9.206463e+02 
2.930500e-01 9.154626e+02 
2.942500e-01 9.101483e+02 
2.954200e-01 9.050021e+02 
2.966500e-01 8.996461e+02 
2.978900e-01 8.943020e+02 
2.990400e-01 8.893948e+02 
3.002700e-01 8.841902e+02 
3.015100e-01 8.789929e+02 
3.026800e-01 8.741374e+02 
3.038500e-01 8.693282e+02 
3.050300e-01 8.645241e+02 
3.062600e-01 8.595629e+02 
3.075000e-01 8.546112e+02 
3.087000e-01 8.498661e+02 
3.099100e-01 8.451275e+02 
3.111200e-01 8.404376e+02 
3.123100e-01 8.358745e+02 
3.135300e-01 8.312409e+02 
3.147300e-01 8.267266e+02 
3.159900e-01 8.220323e+02 
3.171800e-01 8.176482e+02 
3.183700e-01 8.133093e+02 
3.196300e-01 8.087588e+02 
3.208400e-01 8.044304e+02 
3.220300e-01 8.002129e+02 
3.232000e-01 7.961182e+02 
3.244300e-01 7.918586e+02 
3.256700e-01 7.876047e+02 
3.269200e-01 7.833568e+02 
3.280800e-01 7.794506e+02 
3.292500e-01 7.755604e+02 
3.304800e-01 7.715121e+02 
3.317100e-01 7.675010e+02 
3.328900e-01 7.636873e+02 
3.340700e-01 7.599068e+02 
3.353600e-01 7.558307e+02 
3.365300e-01 7.521744e+02 
3.377100e-01 7.485184e+02 
3.389200e-01 7.448021e+02 
3.401600e-01 7.410275e+02 
3.413700e-01 7.373908e+02 
3.425300e-01 7.339437e+02 
3.437700e-01 7.302906e+02 
3.449800e-01 7.267571e+02 
3.461800e-01 7.232828e+02 
3.473600e-01 7.199025e+02 
3.485800e-01 7.164548e+02 
3.498100e-01 7.130088e+02 
3.510200e-01 7.096478e+02 
3.522000e-01 7.063975e+02 
3.533900e-01 7.031468e+02 
3.546400e-01 6.997861e+02 
3.558400e-01 6.965886e+02 
3.570600e-01 6.933648e+02 
3.582700e-01 6.901942e+02 
3.595000e-01 6.869981e+02 
3.607100e-01 6.838916e+02 
3.618900e-01 6.808957e+02 
3.631200e-01 6.777984e+02 
3.643200e-01 6.748014e+02 
3.655500e-01 6.717546e+02 
3.667300e-01 6.688552e+02 
3.679500e-01 6.659107e+02 
3.691900e-01 6.629425e+02 
3.703600e-01 6.601642e+02 
3.715700e-01 6.573135e+02 
3.727700e-01 6.545088e+02 
3.739900e-01 6.516838e+02 
3.752000e-01 6.489113e+02 
3.763900e-01 6.462059e+02 
3.775800e-01 6.435215e+02 
3.788200e-01 6.407462e+02 
3.800300e-01 6.380596e+02 
3.812100e-01 6.354596e+02 
3.824200e-01 6.328139e+02 
3.836100e-01 6.302319e+02 
3.848600e-01 6.275408e+02 
3.860400e-01 6.250201e+02 
3.872400e-01 6.224760e+02 
3.884600e-01 6.199341e+02 
3.896500e-01 6.174828e+02 
3.908700e-01 6.149888e+02 
3.920600e-01 6.125744e+02 
3.933100e-01 6.100576e+02 
3.945300e-01 6.076200e+02 
3.957200e-01 6.052596e+02 
3.969300e-01 6.028771e+02 
3.981700e-01 6.004539e+02 
3.993500e-01 5.981651e+02 
4.094840e-01 5.791502e+02 
4.272360e-01 5.487498e+02 
4.454600e-01 5.205587e+02 
4.630560e-01 4.958289e+02 
4.804610e-01 4.734386e+02 
4.980690e-01 4.526766e+02 
5.159230e-01 4.333014e+02 
5.317440e-01 4.174473e+02 
5.489640e-01 4.013715e+02 
5.671990e-01 3.856012e+02 
5.838690e-01 3.722417e+02 
6.018840e-01 3.588379e+02 
6.202330e-01 3.461960e+02 
6.379250e-01 3.347997e+02 
6.545410e-01 3.248222e+02 
6.714560e-01 3.152894e+02 
6.892080e-01 3.059007e+02 
7.066010e-01 2.972330e+02 
7.240540e-01 2.890586e+02 
7.420450e-01 2.811686e+02 
7.593780e-01 2.739326e+02 
7.764720e-01 2.671901e+02 
7.942840e-01 2.605417e+02 
8.116170e-01 2.543535e+02 
8.288310e-01 2.485327e+02 
8.462240e-01 2.428871e+02 
8.631980e-01 2.376273e+02 
8.810700e-01 2.323367e+02 
8.989410e-01 2.272826e+02 
9.166330e-01 2.224708e+02 
9.345640e-01 2.177622e+02 
9.515980e-01 2.134619e+02 
9.688720e-01 2.092724e+02 
9.865640e-01 2.051259e+02 
1.031870e+00 1.951206e+02 
1.063490e+00 1.886258e+02 
1.097920e+00 1.819435e+02 
1.134370e+00 1.752986e+02 
1.167730e+00 1.695187e+02 
1.203830e+00 1.636142e+02 
1.240470e+00 1.579382e+02 
1.275790e+00 1.527252e+02 
1.309140e+00 1.480553e+02 
1.342970e+00 1.435038e+02 
1.378420e+00 1.389804e+02 
1.413200e+00 1.347273e+02 
1.448110e+00 1.306477e+02 
1.484090e+00 1.266353e+02 
1.518820e+00 1.229248e+02 
1.552880e+00 1.194228e+02 
1.588630e+00 1.159092e+02 
1.623230e+00 1.126509e+02 
1.657720e+00 1.095293e+02 
1.692450e+00 1.065309e+02 
1.726400e+00 1.036845e+02 
1.762200e+00 1.007956e+02 
1.797880e+00 9.803513e+01 
1.833270e+00 9.540434e+01 
1.869070e+00 9.283982e+01 
1.903200e+00 9.049213e+01 
1.937740e+00 8.819873e+01 
1.973190e+00 8.592683e+01 
2.007440e+00 8.380890e+01 
2.042160e+00 8.173757e+01 
2.077900e+00 7.967595e+01 
2.112390e+00 7.776726e+01 
2.146220e+00 7.593889e+01 
2.181600e+00 7.410213e+01 
2.216930e+00 7.233005e+01 
2.250760e+00 7.068511e+01 
2.286500e+00 6.900218e+01 
2.321770e+00 6.739769e+01 
2.355950e+00 6.589346e+01 
2.391280e+00 6.438192e+01 
2.426240e+00 6.293754e+01 
2.460670e+00 6.155782e+01 
2.495640e+00 6.019493e+01 
2.531080e+00 5.886320e+01 
2.566220e+00 5.757934e+01 
2.600830e+00 5.635281e+01 
2.635080e+00 5.517606e+01 
2.670340e+00 5.399421e+01 
2.705970e+00 5.284059e+01 
2.740040e+00 5.177127e+01 
2.774520e+00 5.071304e+01 
2.809730e+00 4.966591e+01 
2.844390e+00 4.866575e+01 
2.879960e+00 4.766657e+01 
2.914860e+00 4.671255e+01 
2.949410e+00 4.579511e+01 
2.984440e+00 4.489211e+01 
3.019760e+00 4.400412e+01 
3.054730e+00 4.314818e+01 
3.089030e+00 4.233085e+01 
3.124060e+00 4.151906e+01 
3.159560e+00 4.071865e+01 
3.194710e+00 3.994723e+01 
3.229010e+00 3.921458e+01 
3.263320e+00 3.849638e+01 
3.297930e+00 3.779155e+01 
3.332830e+00 3.710003e+01 
3.368040e+00 3.641944e+01 
3.403300e+00 3.575495e+01 
3.438450e+00 3.510766e+01 
3.473060e+00 3.448646e+01 
3.508440e+00 3.386950e+01 
3.543110e+00 3.328002e+01 
3.577470e+00 3.270741e+01 
3.613040e+00 3.213001e+01 
3.648120e+00 3.157596e+01 
3.682910e+00 3.103855e+01 
3.718050e+00 3.050603e+01 
3.753320e+00 2.998582e+01 
3.787980e+00 2.948861e+01 
3.822290e+00 2.900690e+01 
3.857020e+00 2.852893e+01 
3.891920e+00 2.805974e+01 
3.926650e+00 2.760334e+01 
3.961970e+00 2.714985e+01 
3.997360e+00 2.670558e+01 
4.031670e+00 2.628484e+01 
4.066330e+00 2.586973e+01 
4.101420e+00 2.545895e+01 
4.136200e+00 2.506014e+01 
4.170810e+00 2.467208e+01 
4.206250e+00 2.428392e+01 
4.241580e+00 2.390565e+01 
4.276300e+00 2.354137e+01 
4.310970e+00 2.318508e+01 
4.346120e+00 2.283190e+01 
4.380600e+00 2.249328e+01 
4.414730e+00 2.216505e+01 
4.450350e+00 2.182881e+01 
4.485320e+00 2.150568e+01 
4.519810e+00 2.119407e+01 
4.555430e+00 2.087912e+01 
4.590870e+00 2.057249e+01 
4.625480e+00 2.027956e+01 
4.659910e+00 1.999396e+01 
4.695230e+00 1.970634e+01 
4.729960e+00 1.942910e+01 
4.764450e+00 1.915897e+01 
4.799530e+00 1.888928e+01 
4.834910e+00 1.862265e+01 
4.869700e+00 1.836711e+01 
4.904370e+00 1.811757e+01 
4.939450e+00 1.786978e+01 
4.973940e+00 1.763045e+01 
5.008430e+00 1.739558e+01 
5.043810e+00 1.715897e+01 
5.078840e+00 1.692898e+01 
5.113500e+00 1.670563e+01 
5.148890e+00 1.648332e+01 
5.184210e+00 1.626563e+01 
5.219060e+00 1.605443e+01 
5.253660e+00 1.584764e+01 
5.288570e+00 1.564273e+01 
5.323420e+00 1.544254e+01 
5.358440e+00 1.524574e+01 
5.393590e+00 1.505170e+01 
5.428310e+00 1.486327e+01 
5.462800e+00 1.467925e+01 
5.497640e+00 1.449656e+01 
5.532670e+00 1.431709e+01 
5.567280e+00 1.414312e+01 
5.602000e+00 1.397154e+01 
5.637270e+00 1.379943e+01 
5.672410e+00 1.363068e+01 
5.707020e+00 1.346725e+01 
5.742040e+00 1.330574e+01 
5.777430e+00 1.314546e+01 
5.812210e+00 1.299054e+01 
5.846820e+00 1.283874e+01 
5.881610e+00 1.268858e+01 
5.916510e+00 1.254037e+01 
5.951600e+00 1.239417e+01 
5.986560e+00 1.225103e+01 
6.021830e+00 1.210893e+01 
6.056490e+00 1.197176e+01 
6.091160e+00 1.183693e+01 
6.125830e+00 1.170418e+01 
6.161090e+00 1.157124e+01 
6.195760e+00 1.144250e+01 
6.230420e+00 1.131575e+01 
6.265690e+00 1.118877e+01 
6.300950e+00 1.106431e+01 
6.335620e+00 1.094379e+01 
6.370880e+00 1.082307e+01 
6.405550e+00 1.070645e+01 
6.440220e+00 1.059168e+01 
6.475480e+00 1.047669e+01 
6.510150e+00 1.036544e+01 
6.544810e+00 1.025618e+01 
6.580080e+00 1.014661e+01 
6.614750e+00 1.004047e+01 
6.649410e+00 9.935866e+00 
6.684080e+00 9.832724e+00 
6.719340e+00 9.729327e+00 
6.754010e+00 9.629234e+00 
6.788680e+00 9.530841e+00 
6.823940e+00 9.432183e+00 
6.859800e+00 9.333277e+00 
6.894470e+00 9.239303e+00 
6.929140e+00 9.146732e+00 
6.963800e+00 9.055454e+00 
6.999070e+00 8.963849e+00 
7.033730e+00 8.875084e+00 
7.068400e+00 8.787492e+00 
7.103660e+00 8.699619e+00 
7.138330e+00 8.614626e+00 
7.173600e+00 8.529826e+00 
7.208260e+00 8.447604e+00 
7.243530e+00 8.365047e+00 
7.277600e+00 8.286170e+00 
7.312860e+00 8.205446e+00 
7.348120e+00 8.125791e+00 
7.382790e+00 8.048494e+00 
7.417460e+00 7.972648e+00 
7.452720e+00 7.896745e+00 
7.487390e+00 7.823073e+00 
7.522650e+00 7.749107e+00 
7.557320e+00 7.677329e+00 
7.591990e+00 7.606464e+00 
7.627250e+00 7.535305e+00 
7.662510e+00 7.465051e+00 
7.697180e+00 7.397073e+00 
7.731850e+00 7.330027e+00 
7.766510e+00 7.263826e+00 
7.801180e+00 7.198419e+00 
7.836440e+00 7.132735e+00 
7.871110e+00 7.068952e+00 
7.906380e+00 7.004860e+00 
7.941040e+00 6.942644e+00 
7.976310e+00 6.880247e+00 
8.011570e+00 6.818802e+00 
8.046240e+00 6.759111e+00 
8.080900e+00 6.700146e+00 
8.115570e+00 6.641898e+00 
8.150830e+00 6.583498e+00 
8.185500e+00 6.526755e+00 
8.220770e+00 6.469710e+00 
8.255430e+00 6.414310e+00 
8.290100e+00 6.359687e+00 
8.324770e+00 6.305713e+00 
8.359430e+00 6.252375e+00 
8.394700e+00 6.198726e+00 
8.429960e+00 6.145797e+00 
8.464630e+00 6.094434e+00 
8.499890e+00 6.042793e+00 
8.534560e+00 5.992594e+00 
8.569200e+00 5.943002e+00 
