# Parameters:
# omega_b = 0.022161, omega_m = 0.130197, n_s = 0.982283, h = 63.740157, w = -1.000000, sigma_8 = 0.715748
# z = 0.500000
#
# k[1/Mpc] # P(k):
8.694000e-04 9.186433e+03 
2.077466e-03 1.977036e+04 
3.285532e-03 2.797353e+04 
4.493598e-03 3.418519e+04 
5.701664e-03 3.871439e+04 
6.909730e-03 4.184032e+04 
8.117797e-03 4.387262e+04 
9.325863e-03 4.497405e+04 
1.053393e-02 4.530873e+04 
1.174199e-02 4.502955e+04 
1.295006e-02 4.423184e+04 
1.415813e-02 4.304392e+04 
1.536619e-02 4.157602e+04 
1.657426e-02 3.990816e+04 
1.778233e-02 3.814821e+04 
1.899039e-02 3.643658e+04 
2.019846e-02 3.474813e+04 
2.140652e-02 3.305900e+04 
2.261459e-02 3.140882e+04 
2.382266e-02 2.984515e+04 
2.503072e-02 2.839057e+04 
2.623879e-02 2.705161e+04 
2.744685e-02 2.582983e+04 
2.865492e-02 2.472467e+04 
2.986299e-02 2.372998e+04 
3.100100e-02 2.289013e+04 
3.220400e-02 2.209521e+04 
3.288100e-02 2.168778e+04 
3.424300e-02 2.094377e+04 
3.555100e-02 2.030910e+04 
3.686000e-02 1.974059e+04 
3.795000e-02 1.930734e+04 
3.929100e-02 1.881539e+04 
4.039800e-02 1.843227e+04 
4.164000e-02 1.801994e+04 
4.294400e-02 1.759294e+04 
4.415000e-02 1.720323e+04 
4.542900e-02 1.678079e+04 
4.660900e-02 1.638854e+04 
4.782300e-02 1.596616e+04 
4.892900e-02 1.557544e+04 
5.031200e-02 1.507383e+04 
5.155900e-02 1.460905e+04 
5.238100e-02 1.429898e+04 
5.378200e-02 1.376753e+04 
5.513400e-02 1.325302e+04 
5.627600e-02 1.282133e+04 
5.735300e-02 1.242098e+04 
5.870100e-02 1.193301e+04 
5.988700e-02 1.151995e+04 
6.113500e-02 1.110406e+04 
6.225900e-02 1.074842e+04 
6.340100e-02 1.040745e+04 
6.480200e-02 1.001726e+04 
6.601100e-02 9.708264e+03 
6.725500e-02 9.416635e+03 
6.829100e-02 9.195786e+03 
6.958600e-02 8.942623e+03 
7.071100e-02 8.744924e+03 
7.192300e-02 8.552115e+03 
7.307400e-02 8.386683e+03 
7.412300e-02 8.249240e+03 
7.550400e-02 8.086525e+03 
7.663100e-02 7.964758e+03 
7.791200e-02 7.838232e+03 
7.912700e-02 7.725549e+03 
8.027600e-02 7.622656e+03 
8.138400e-02 7.525287e+03 
8.272200e-02 7.408079e+03 
8.406100e-02 7.289102e+03 
8.534100e-02 7.170060e+03 
8.653800e-02 7.053138e+03 
8.759800e-02 6.946396e+03 
8.900300e-02 6.799248e+03 
9.009000e-02 6.680386e+03 
9.113300e-02 6.562112e+03 
9.239600e-02 6.417159e+03 
9.358000e-02 6.278719e+03 
9.496100e-02 6.114860e+03 
9.608400e-02 5.982775e+03 
9.727500e-02 5.844707e+03 
9.852600e-02 5.701776e+03 
9.973800e-02 5.568083e+03 
1.009000e-01 5.444164e+03 
1.020900e-01 5.324008e+03 
1.034000e-01 5.198169e+03 
1.046000e-01 5.088930e+03 
1.057200e-01 4.994987e+03 
1.069100e-01 4.899936e+03 
1.082500e-01 4.802007e+03 
1.093900e-01 4.724885e+03 
1.105400e-01 4.651307e+03 
1.116900e-01 4.584633e+03 
1.129600e-01 4.514562e+03 
1.142000e-01 4.451873e+03 
1.153300e-01 4.397322e+03 
1.166400e-01 4.337461e+03 
1.177800e-01 4.287516e+03 
1.190000e-01 4.235747e+03 
1.201200e-01 4.188801e+03 
1.213400e-01 4.138769e+03 
1.227100e-01 4.081677e+03 
1.238900e-01 4.033047e+03 
1.250700e-01 3.983212e+03 
1.263200e-01 3.930599e+03 
1.275500e-01 3.877690e+03 
1.287500e-01 3.826005e+03 
1.299900e-01 3.771834e+03 
1.311300e-01 3.722083e+03 
1.323500e-01 3.668414e+03 
1.335900e-01 3.614332e+03 
1.347100e-01 3.565511e+03 
1.359800e-01 3.510981e+03 
1.372100e-01 3.458579e+03 
1.384300e-01 3.407664e+03 
1.395700e-01 3.360843e+03 
1.407700e-01 3.312630e+03 
1.420300e-01 3.263337e+03 
1.432800e-01 3.215535e+03 
1.444500e-01 3.172531e+03 
1.456300e-01 3.130054e+03 
1.468900e-01 3.086547e+03 
1.480500e-01 3.047589e+03 
1.491700e-01 3.011254e+03 
1.503800e-01 2.973470e+03 
1.516400e-01 2.935180e+03 
1.528200e-01 2.901127e+03 
1.540200e-01 2.867165e+03 
1.551900e-01 2.835599e+03 
1.564300e-01 2.803008e+03 
1.576600e-01 2.771678e+03 
1.588700e-01 2.741889e+03 
1.600900e-01 2.712440e+03 
1.612700e-01 2.684895e+03 
1.625400e-01 2.655800e+03 
1.637600e-01 2.628367e+03 
1.649500e-01 2.602087e+03 
1.662200e-01 2.574498e+03 
1.674000e-01 2.549031e+03 
1.685000e-01 2.525686e+03 
1.697500e-01 2.499292e+03 
1.710300e-01 2.472440e+03 
1.722200e-01 2.447919e+03 
1.734400e-01 2.422516e+03 
1.746400e-01 2.397931e+03 
1.758700e-01 2.372964e+03 
1.770900e-01 2.348215e+03 
1.782700e-01 2.324681e+03 
1.794600e-01 2.301093e+03 
1.807000e-01 2.276761e+03 
1.819100e-01 2.253420e+03 
1.830100e-01 2.232417e+03 
1.842200e-01 2.209657e+03 
1.855000e-01 2.185990e+03 
1.867000e-01 2.164262e+03 
1.879200e-01 2.142530e+03 
1.890900e-01 2.122063e+03 
1.902800e-01 2.101803e+03 
1.915200e-01 2.081027e+03 
1.926900e-01 2.061815e+03 
1.939000e-01 2.042524e+03 
1.951700e-01 2.022598e+03 
1.963100e-01 2.005086e+03 
1.975100e-01 1.987193e+03 
1.987800e-01 1.968549e+03 
2.000100e-01 1.950861e+03 
2.012500e-01 1.933510e+03 
2.023400e-01 1.918474e+03 
2.036100e-01 1.901248e+03 
2.048900e-01 1.884307e+03 
2.060400e-01 1.869310e+03 
2.072200e-01 1.854139e+03 
2.084200e-01 1.838981e+03 
2.096900e-01 1.823173e+03 
2.109200e-01 1.808087e+03 
2.121100e-01 1.793630e+03 
2.132700e-01 1.779727e+03 
2.145200e-01 1.764953e+03 
2.157200e-01 1.750866e+03 
2.168800e-01 1.737384e+03 
2.180700e-01 1.723739e+03 
2.193400e-01 1.709298e+03 
2.206000e-01 1.695023e+03 
2.217500e-01 1.682170e+03 
2.229500e-01 1.668934e+03 
2.241400e-01 1.655739e+03 
2.253500e-01 1.642494e+03 
2.264900e-01 1.630177e+03 
2.277100e-01 1.617034e+03 
2.289900e-01 1.603286e+03 
2.301500e-01 1.590993e+03 
2.313600e-01 1.578333e+03 
2.325600e-01 1.565707e+03 
2.337700e-01 1.553141e+03 
2.350000e-01 1.540534e+03 
2.362000e-01 1.528314e+03 
2.374100e-01 1.516057e+03 
2.386500e-01 1.503659e+03 
2.399100e-01 1.491227e+03 
2.410400e-01 1.480147e+03 
2.422500e-01 1.468420e+03 
2.435000e-01 1.456459e+03 
2.447300e-01 1.444842e+03 
2.458700e-01 1.434211e+03 
2.470600e-01 1.423246e+03 
2.483300e-01 1.411691e+03 
2.495600e-01 1.400690e+03 
2.507600e-01 1.390153e+03 
2.519600e-01 1.379743e+03 
2.532200e-01 1.368947e+03 
2.543700e-01 1.359312e+03 
2.555500e-01 1.349607e+03 
2.568000e-01 1.339449e+03 
2.580100e-01 1.329733e+03 
2.592400e-01 1.320123e+03 
2.604100e-01 1.311153e+03 
2.616100e-01 1.302057e+03 
2.628400e-01 1.292842e+03 
2.640600e-01 1.283964e+03 
2.652200e-01 1.275679e+03 
2.664300e-01 1.267133e+03 
2.676500e-01 1.258613e+03 
2.688400e-01 1.250513e+03 
2.700700e-01 1.242307e+03 
2.712400e-01 1.234587e+03 
2.724800e-01 1.226495e+03 
2.736700e-01 1.218880e+03 
2.748800e-01 1.211287e+03 
2.761000e-01 1.203715e+03 
2.773200e-01 1.196225e+03 
2.785400e-01 1.188847e+03 
2.797000e-01 1.181971e+03 
2.808900e-01 1.174989e+03 
2.821400e-01 1.167734e+03 
2.833900e-01 1.160560e+03 
2.845500e-01 1.154021e+03 
2.857800e-01 1.147159e+03 
2.870300e-01 1.140259e+03 
2.882100e-01 1.133813e+03 
2.893900e-01 1.127448e+03 
2.906300e-01 1.120837e+03 
2.918900e-01 1.114190e+03 
2.930500e-01 1.108133e+03 
2.942500e-01 1.101931e+03 
2.954200e-01 1.095951e+03 
2.966500e-01 1.089728e+03 
2.978900e-01 1.083518e+03 
2.990400e-01 1.077816e+03 
3.002700e-01 1.071779e+03 
3.015100e-01 1.065756e+03 
3.026800e-01 1.060130e+03 
3.038500e-01 1.054556e+03 
3.050300e-01 1.048988e+03 
3.062600e-01 1.043244e+03 
3.075000e-01 1.037510e+03 
3.087000e-01 1.032015e+03 
3.099100e-01 1.026528e+03 
3.111200e-01 1.021096e+03 
3.123100e-01 1.015811e+03 
3.135300e-01 1.010444e+03 
3.147300e-01 1.005215e+03 
3.159900e-01 9.997764e+02 
3.171800e-01 9.946959e+02 
3.183700e-01 9.896665e+02 
3.196300e-01 9.843915e+02 
3.208400e-01 9.793737e+02 
3.220300e-01 9.744841e+02 
3.232000e-01 9.697346e+02 
3.244300e-01 9.647926e+02 
3.256700e-01 9.598568e+02 
3.269200e-01 9.549279e+02 
3.280800e-01 9.503951e+02 
3.292500e-01 9.458782e+02 
3.304800e-01 9.411769e+02 
3.317100e-01 9.365184e+02 
3.328900e-01 9.320890e+02 
3.340700e-01 9.276980e+02 
3.353600e-01 9.229604e+02 
3.365300e-01 9.187094e+02 
3.377100e-01 9.144586e+02 
3.389200e-01 9.101375e+02 
3.401600e-01 9.057484e+02 
3.413700e-01 9.015172e+02 
3.425300e-01 8.975049e+02 
3.437700e-01 8.932527e+02 
3.449800e-01 8.891395e+02 
3.461800e-01 8.850952e+02 
3.473600e-01 8.811591e+02 
3.485800e-01 8.771422e+02 
3.498100e-01 8.731271e+02 
3.510200e-01 8.692110e+02 
3.522000e-01 8.654237e+02 
3.533900e-01 8.616358e+02 
3.546400e-01 8.577163e+02 
3.558400e-01 8.539868e+02 
3.570600e-01 8.502267e+02 
3.582700e-01 8.465283e+02 
3.595000e-01 8.428001e+02 
3.607100e-01 8.391750e+02 
3.618900e-01 8.356778e+02 
3.631200e-01 8.320621e+02 
3.643200e-01 8.285634e+02 
3.655500e-01 8.250064e+02 
3.667300e-01 8.216215e+02 
3.679500e-01 8.181792e+02 
3.691900e-01 8.147090e+02 
3.703600e-01 8.114608e+02 
3.715700e-01 8.081279e+02 
3.727700e-01 8.048488e+02 
3.739900e-01 8.015453e+02 
3.752000e-01 7.983022e+02 
3.763900e-01 7.951375e+02 
3.775800e-01 7.919973e+02 
3.788200e-01 7.887508e+02 
3.800300e-01 7.856079e+02 
3.812100e-01 7.825629e+02 
3.824200e-01 7.794621e+02 
3.836100e-01 7.764359e+02 
3.848600e-01 7.732818e+02 
3.860400e-01 7.703272e+02 
3.872400e-01 7.673452e+02 
3.884600e-01 7.643644e+02 
3.896500e-01 7.614894e+02 
3.908700e-01 7.585642e+02 
3.920600e-01 7.557323e+02 
3.933100e-01 7.527803e+02 
3.945300e-01 7.499212e+02 
3.957200e-01 7.471490e+02 
3.969300e-01 7.443500e+02 
3.981700e-01 7.415032e+02 
3.993500e-01 7.388142e+02 
4.094840e-01 7.164499e+02 
4.272360e-01 6.806008e+02 
4.454600e-01 6.472424e+02 
4.630560e-01 6.178824e+02 
4.804610e-01 5.912227e+02 
4.980690e-01 5.664412e+02 
5.159230e-01 5.432709e+02 
5.317440e-01 5.242834e+02 
5.489640e-01 5.049995e+02 
5.671990e-01 4.860562e+02 
5.838690e-01 4.699844e+02 
6.018840e-01 4.538405e+02 
6.202330e-01 4.385806e+02 
6.379250e-01 4.248020e+02 
6.545410e-01 4.127053e+02 
6.714560e-01 4.011250e+02 
6.892080e-01 3.896853e+02 
7.066010e-01 3.790860e+02 
7.240540e-01 3.690624e+02 
7.420450e-01 3.593494e+02 
7.593780e-01 3.504045e+02 
7.764720e-01 3.420404e+02 
7.942840e-01 3.337649e+02 
8.116170e-01 3.260242e+02 
8.288310e-01 3.187112e+02 
8.462240e-01 3.115928e+02 
8.631980e-01 3.049347e+02 
8.810700e-01 2.982126e+02 
8.989410e-01 2.917676e+02 
9.166330e-01 2.856079e+02 
9.345640e-01 2.795592e+02 
9.515980e-01 2.740164e+02 
9.688720e-01 2.685993e+02 
9.865640e-01 2.632209e+02 
1.031870e+00 2.501898e+02 
1.063490e+00 2.416847e+02 
1.097920e+00 2.329030e+02 
1.134370e+00 2.241453e+02 
1.167730e+00 2.165097e+02 
1.203830e+00 2.086901e+02 
1.240470e+00 2.011661e+02 
1.275790e+00 1.942469e+02 
1.309140e+00 1.880461e+02 
1.342970e+00 1.820020e+02 
1.378420e+00 1.759946e+02 
1.413200e+00 1.703476e+02 
1.448110e+00 1.649339e+02 
1.484090e+00 1.596128e+02 
1.518820e+00 1.546980e+02 
1.552880e+00 1.500628e+02 
1.588630e+00 1.454188e+02 
1.623230e+00 1.411168e+02 
1.657720e+00 1.370009e+02 
1.692450e+00 1.330506e+02 
1.726400e+00 1.293076e+02 
1.762200e+00 1.255153e+02 
1.797880e+00 1.218967e+02 
1.833270e+00 1.184524e+02 
1.869070e+00 1.151012e+02 
1.903200e+00 1.120375e+02 
1.937740e+00 1.090492e+02 
1.973190e+00 1.060943e+02 
2.007440e+00 1.033442e+02 
2.042160e+00 1.006583e+02 
2.077900e+00 9.798956e+01 
2.112390e+00 9.552206e+01 
2.146220e+00 9.316347e+01 
2.181600e+00 9.079697e+01 
2.216930e+00 8.851767e+01 
2.250760e+00 8.640512e+01 
2.286500e+00 8.424709e+01 
2.321770e+00 8.219299e+01 
2.355950e+00 8.026999e+01 
2.391280e+00 7.834097e+01 
2.426240e+00 7.650033e+01 
2.460670e+00 7.474470e+01 
2.495640e+00 7.301313e+01 
2.531080e+00 7.132365e+01 
2.566220e+00 6.969752e+01 
2.600830e+00 6.814605e+01 
2.635080e+00 6.665930e+01 
2.670340e+00 6.516903e+01 
2.705970e+00 6.371611e+01 
2.740040e+00 6.237092e+01 
2.774520e+00 6.104176e+01 
2.809730e+00 5.972837e+01 
2.844390e+00 5.847530e+01 
2.879960e+00 5.722532e+01 
2.914860e+00 5.603363e+01 
2.949410e+00 5.488881e+01 
2.984440e+00 5.376356e+01 
3.019760e+00 5.265842e+01 
3.054730e+00 5.159421e+01 
3.089030e+00 5.057987e+01 
3.124060e+00 4.957327e+01 
3.159560e+00 4.858191e+01 
3.194710e+00 4.762778e+01 
3.229010e+00 4.672230e+01 
3.263320e+00 4.583622e+01 
3.297930e+00 4.496728e+01 
3.332830e+00 4.411580e+01 
3.368040e+00 4.327871e+01 
3.403300e+00 4.246216e+01 
3.438450e+00 4.166793e+01 
3.473060e+00 4.090617e+01 
3.508440e+00 4.015067e+01 
3.543110e+00 3.942924e+01 
3.577470e+00 3.872958e+01 
3.613040e+00 3.802448e+01 
3.648120e+00 3.734863e+01 
3.682910e+00 3.669359e+01 
3.718050e+00 3.604533e+01 
3.753320e+00 3.541252e+01 
3.787980e+00 3.480823e+01 
3.822290e+00 3.422325e+01 
3.857020e+00 3.364345e+01 
3.891920e+00 3.307469e+01 
3.926650e+00 3.252200e+01 
3.961970e+00 3.197316e+01 
3.997360e+00 3.143610e+01 
4.031670e+00 3.092772e+01 
4.066330e+00 3.042673e+01 
4.101420e+00 2.993109e+01 
4.136200e+00 2.945054e+01 
4.170810e+00 2.898305e+01 
4.206250e+00 2.851595e+01 
4.241580e+00 2.806092e+01 
4.276300e+00 2.762316e+01 
4.310970e+00 2.719527e+01 
4.346120e+00 2.677135e+01 
4.380600e+00 2.636525e+01 
4.414730e+00 2.597170e+01 
4.450350e+00 2.556905e+01 
4.485320e+00 2.518217e+01 
4.519810e+00 2.480941e+01 
4.555430e+00 2.443286e+01 
4.590870e+00 2.406640e+01 
4.625480e+00 2.371658e+01 
4.659910e+00 2.337557e+01 
4.695230e+00 2.303252e+01 
4.729960e+00 2.270194e+01 
4.764450e+00 2.238001e+01 
4.799530e+00 2.205884e+01 
4.834910e+00 2.174135e+01 
4.869700e+00 2.143731e+01 
4.904370e+00 2.114050e+01 
4.939450e+00 2.084588e+01 
4.973940e+00 2.056155e+01 
5.008430e+00 2.028257e+01 
5.043810e+00 2.000168e+01 
5.078840e+00 1.972876e+01 
5.113500e+00 1.946377e+01 
5.148890e+00 1.920022e+01 
5.184210e+00 1.894217e+01 
5.219060e+00 1.869192e+01 
5.253660e+00 1.844706e+01 
5.288570e+00 1.820446e+01 
5.323420e+00 1.796754e+01 
5.358440e+00 1.773474e+01 
5.393590e+00 1.750523e+01 
5.428310e+00 1.728248e+01 
5.462800e+00 1.706501e+01 
5.497640e+00 1.684914e+01 
5.532670e+00 1.663717e+01 
5.567280e+00 1.643176e+01 
5.602000e+00 1.622918e+01 
5.637270e+00 1.602610e+01 
5.672410e+00 1.582704e+01 
5.707020e+00 1.563428e+01 
5.742040e+00 1.544386e+01 
5.777430e+00 1.525492e+01 
5.812210e+00 1.507232e+01 
5.846820e+00 1.489349e+01 
5.881610e+00 1.471662e+01 
5.916510e+00 1.454208e+01 
5.951600e+00 1.436996e+01 
5.986560e+00 1.420149e+01 
6.021830e+00 1.403425e+01 
6.056490e+00 1.387287e+01 
6.091160e+00 1.371427e+01 
6.125830e+00 1.355814e+01 
6.161090e+00 1.340183e+01 
6.195760e+00 1.325049e+01 
6.230420e+00 1.310152e+01 
6.265690e+00 1.295228e+01 
6.300950e+00 1.280608e+01 
6.335620e+00 1.266451e+01 
6.370880e+00 1.252272e+01 
6.405550e+00 1.238578e+01 
6.440220e+00 1.225103e+01 
6.475480e+00 1.211603e+01 
6.510150e+00 1.198544e+01 
6.544810e+00 1.185722e+01 
6.580080e+00 1.172865e+01 
6.614750e+00 1.160412e+01 
6.649410e+00 1.148143e+01 
6.684080e+00 1.136047e+01 
6.719340e+00 1.123923e+01 
6.754010e+00 1.112187e+01 
6.788680e+00 1.100652e+01 
6.823940e+00 1.089088e+01 
6.859800e+00 1.077496e+01 
6.894470e+00 1.066483e+01 
6.929140e+00 1.055637e+01 
6.963800e+00 1.044942e+01 
6.999070e+00 1.034211e+01 
7.033730e+00 1.023814e+01 
7.068400e+00 1.013555e+01 
7.103660e+00 1.003265e+01 
7.138330e+00 9.933124e+00 
7.173600e+00 9.833842e+00 
7.208260e+00 9.737588e+00 
7.243530e+00 9.640951e+00 
7.277600e+00 9.548639e+00 
7.312860e+00 9.454182e+00 
7.348120e+00 9.360986e+00 
7.382790e+00 9.270557e+00 
7.417460e+00 9.181827e+00 
7.452720e+00 9.093034e+00 
7.487390e+00 9.006859e+00 
7.522650e+00 8.920349e+00 
7.557320e+00 8.836412e+00 
7.591990e+00 8.753553e+00 
7.627250e+00 8.670358e+00 
7.662510e+00 8.588230e+00 
7.697180e+00 8.508768e+00 
7.731850e+00 8.430401e+00 
7.766510e+00 8.353031e+00 
7.801180e+00 8.276595e+00 
7.836440e+00 8.199846e+00 
7.871110e+00 8.125329e+00 
7.906380e+00 8.050456e+00 
7.941040e+00 7.977783e+00 
7.976310e+00 7.904903e+00 
8.011570e+00 7.833136e+00 
8.046240e+00 7.763425e+00 
8.080900e+00 7.694568e+00 
8.115570e+00 7.626556e+00 
8.150830e+00 7.558376e+00 
8.185500e+00 7.492136e+00 
8.220770e+00 7.425550e+00 
8.255430e+00 7.360890e+00 
8.290100e+00 7.297139e+00 
8.324770e+00 7.234151e+00 
8.359430e+00 7.171910e+00 
8.394700e+00 7.109311e+00 
8.429960e+00 7.047563e+00 
8.464630e+00 6.987649e+00 
8.499890e+00 6.927417e+00 
8.534560e+00 6.868872e+00 
8.569200e+00 6.811041e+00 
