# Parameters:
# omega_b = 0.022020, omega_m = 0.147835, n_s = 0.942913, h = 76.259843, w = -1.000000, sigma_8 = 0.813386
# z = 0.500000
#
# k[1/Mpc] # P(k):
8.694000e-04 8.022094e+03 
2.077466e-03 1.688427e+04 
3.285532e-03 2.379695e+04 
4.493598e-03 2.913807e+04 
5.701664e-03 3.314020e+04 
6.909730e-03 3.602029e+04 
8.117797e-03 3.802041e+04 
9.325863e-03 3.926549e+04 
1.053393e-02 3.987982e+04 
1.174199e-02 3.997799e+04 
1.295006e-02 3.963311e+04 
1.415813e-02 3.894503e+04 
1.536619e-02 3.799568e+04 
1.657426e-02 3.684005e+04 
1.778233e-02 3.549567e+04 
1.899039e-02 3.397506e+04 
2.019846e-02 3.237804e+04 
2.140652e-02 3.082665e+04 
2.261459e-02 2.933862e+04 
2.382266e-02 2.792343e+04 
2.503072e-02 2.659611e+04 
2.623879e-02 2.536428e+04 
2.744685e-02 2.423094e+04 
2.865492e-02 2.319973e+04 
2.986299e-02 2.226770e+04 
3.100100e-02 2.147906e+04 
3.220400e-02 2.073342e+04 
3.288100e-02 2.035295e+04 
3.424300e-02 1.966340e+04 
3.555100e-02 1.908364e+04 
3.686000e-02 1.857468e+04 
3.795000e-02 1.819508e+04 
3.929100e-02 1.777666e+04 
4.039800e-02 1.745889e+04 
4.164000e-02 1.712305e+04 
4.294400e-02 1.678086e+04 
4.415000e-02 1.646900e+04 
4.542900e-02 1.612763e+04 
4.660900e-02 1.580614e+04 
4.782300e-02 1.544985e+04 
4.892900e-02 1.511276e+04 
5.031200e-02 1.466762e+04 
5.155900e-02 1.424251e+04 
5.238100e-02 1.395297e+04 
5.378200e-02 1.344720e+04 
5.513400e-02 1.294673e+04 
5.627600e-02 1.252016e+04 
5.735300e-02 1.212052e+04 
5.870100e-02 1.162948e+04 
5.988700e-02 1.121178e+04 
6.113500e-02 1.079021e+04 
6.225900e-02 1.042965e+04 
6.340100e-02 1.008467e+04 
6.480200e-02 9.691188e+03 
6.601100e-02 9.381376e+03 
6.725500e-02 9.090773e+03 
6.829100e-02 8.872268e+03 
6.958600e-02 8.623167e+03 
7.071100e-02 8.430046e+03 
7.192300e-02 8.242858e+03 
7.307400e-02 8.083213e+03 
7.412300e-02 7.951292e+03 
7.550400e-02 7.796160e+03 
7.663100e-02 7.680723e+03 
7.791200e-02 7.561822e+03 
7.912700e-02 7.457029e+03 
8.027600e-02 7.362299e+03 
8.138400e-02 7.273564e+03 
8.272200e-02 7.168083e+03 
8.406100e-02 7.062421e+03 
8.534100e-02 6.958214e+03 
8.653800e-02 6.856831e+03 
8.759800e-02 6.764658e+03 
8.900300e-02 6.637896e+03 
9.009000e-02 6.535381e+03 
9.113300e-02 6.432745e+03 
9.239600e-02 6.306121e+03 
9.358000e-02 6.183831e+03 
9.496100e-02 6.036322e+03 
9.608400e-02 5.915485e+03 
9.727500e-02 5.787568e+03 
9.852600e-02 5.650809e+03 
9.973800e-02 5.520845e+03 
1.009000e-01 5.398702e+03 
1.020900e-01 5.276292e+03 
1.034000e-01 5.146506e+03 
1.046000e-01 5.032188e+03 
1.057200e-01 4.931707e+03 
1.069100e-01 4.829484e+03 
1.082500e-01 4.722803e+03 
1.093900e-01 4.638532e+03 
1.105400e-01 4.557990e+03 
1.116900e-01 4.485464e+03 
1.129600e-01 4.409610e+03 
1.142000e-01 4.343044e+03 
1.153300e-01 4.285986e+03 
1.166400e-01 4.224734e+03 
1.177800e-01 4.175276e+03 
1.190000e-01 4.124797e+03 
1.201200e-01 4.081018e+03 
1.213400e-01 4.034718e+03 
1.227100e-01 3.984193e+03 
1.238900e-01 3.941482e+03 
1.250700e-01 3.898671e+03 
1.263200e-01 3.853611e+03 
1.275500e-01 3.808592e+03 
1.287500e-01 3.764459e+03 
1.299900e-01 3.717960e+03 
1.311300e-01 3.674802e+03 
1.323500e-01 3.627580e+03 
1.335900e-01 3.579302e+03 
1.347100e-01 3.534831e+03 
1.359800e-01 3.484497e+03 
1.372100e-01 3.434831e+03 
1.384300e-01 3.386026e+03 
1.395700e-01 3.339860e+03 
1.407700e-01 3.292167e+03 
1.420300e-01 3.241823e+03 
1.432800e-01 3.193012e+03 
1.444500e-01 3.147920e+03 
1.456300e-01 3.103398e+03 
1.468900e-01 3.057364e+03 
1.480500e-01 3.016024e+03 
1.491700e-01 2.977478e+03 
1.503800e-01 2.937405e+03 
1.516400e-01 2.896907e+03 
1.528200e-01 2.861325e+03 
1.540200e-01 2.825847e+03 
1.551900e-01 2.793566e+03 
1.564300e-01 2.760412e+03 
1.576600e-01 2.728983e+03 
1.588700e-01 2.699637e+03 
1.600900e-01 2.670670e+03 
1.612700e-01 2.644426e+03 
1.625400e-01 2.616702e+03 
1.637600e-01 2.590934e+03 
1.649500e-01 2.566465e+03 
1.662200e-01 2.540814e+03 
1.674000e-01 2.517355e+03 
1.685000e-01 2.495850e+03 
1.697500e-01 2.471488e+03 
1.710300e-01 2.446658e+03 
1.722200e-01 2.423980e+03 
1.734400e-01 2.400173e+03 
1.746400e-01 2.377117e+03 
1.758700e-01 2.353556e+03 
1.770900e-01 2.329911e+03 
1.782700e-01 2.307424e+03 
1.794600e-01 2.284630e+03 
1.807000e-01 2.260948e+03 
1.819100e-01 2.238228e+03 
1.830100e-01 2.217500e+03 
1.842200e-01 2.194990e+03 
1.855000e-01 2.171573e+03 
1.867000e-01 2.149835e+03 
1.879200e-01 2.128094e+03 
1.890900e-01 2.107598e+03 
1.902800e-01 2.087202e+03 
1.915200e-01 2.066288e+03 
1.926900e-01 2.046940e+03 
1.939000e-01 2.027483e+03 
1.951700e-01 2.007387e+03 
1.963100e-01 1.989735e+03 
1.975100e-01 1.971723e+03 
1.987800e-01 1.952955e+03 
2.000100e-01 1.935175e+03 
2.012500e-01 1.917792e+03 
2.023400e-01 1.902729e+03 
2.036100e-01 1.885496e+03 
2.048900e-01 1.868645e+03 
2.060400e-01 1.853726e+03 
2.072200e-01 1.838646e+03 
2.084200e-01 1.823712e+03 
2.096900e-01 1.808137e+03 
2.109200e-01 1.793274e+03 
2.121100e-01 1.779198e+03 
2.132700e-01 1.765670e+03 
2.145200e-01 1.751294e+03 
2.157200e-01 1.737745e+03 
2.168800e-01 1.724851e+03 
2.180700e-01 1.711799e+03 
2.193400e-01 1.698097e+03 
2.206000e-01 1.684759e+03 
2.217500e-01 1.672749e+03 
2.229500e-01 1.660379e+03 
2.241400e-01 1.648419e+03 
2.253500e-01 1.636420e+03 
2.264900e-01 1.625261e+03 
2.277100e-01 1.613564e+03 
2.289900e-01 1.601561e+03 
2.301500e-01 1.590825e+03 
2.313600e-01 1.579770e+03 
2.325600e-01 1.569192e+03 
2.337700e-01 1.558661e+03 
2.350000e-01 1.548093e+03 
2.362000e-01 1.538028e+03 
2.374100e-01 1.528143e+03 
2.386500e-01 1.518140e+03 
2.399100e-01 1.508106e+03 
2.410400e-01 1.499394e+03 
2.422500e-01 1.490198e+03 
2.435000e-01 1.480815e+03 
2.447300e-01 1.471722e+03 
2.458700e-01 1.463493e+03 
2.470600e-01 1.455003e+03 
2.483300e-01 1.446052e+03 
2.495600e-01 1.437507e+03 
2.507600e-01 1.429295e+03 
2.519600e-01 1.421177e+03 
2.532200e-01 1.412756e+03 
2.543700e-01 1.405123e+03 
2.555500e-01 1.397353e+03 
2.568000e-01 1.389218e+03 
2.580100e-01 1.381436e+03 
2.592400e-01 1.373527e+03 
2.604100e-01 1.366051e+03 
2.616100e-01 1.358467e+03 
2.628400e-01 1.350782e+03 
2.640600e-01 1.343130e+03 
2.652200e-01 1.335887e+03 
2.664300e-01 1.328415e+03 
2.676500e-01 1.320965e+03 
2.688400e-01 1.313679e+03 
2.700700e-01 1.306170e+03 
2.712400e-01 1.299105e+03 
2.724800e-01 1.291698e+03 
2.736700e-01 1.284590e+03 
2.748800e-01 1.277360e+03 
2.761000e-01 1.270148e+03 
2.773200e-01 1.263015e+03 
2.785400e-01 1.255923e+03 
2.797000e-01 1.249176e+03 
2.808900e-01 1.242326e+03 
2.821400e-01 1.235206e+03 
2.833900e-01 1.228160e+03 
2.845500e-01 1.221613e+03 
2.857800e-01 1.214742e+03 
2.870300e-01 1.207832e+03 
2.882100e-01 1.201378e+03 
2.893900e-01 1.194952e+03 
2.906300e-01 1.188249e+03 
2.918900e-01 1.181510e+03 
2.930500e-01 1.175368e+03 
2.942500e-01 1.169070e+03 
2.954200e-01 1.162964e+03 
2.966500e-01 1.156610e+03 
2.978900e-01 1.150269e+03 
2.990400e-01 1.144445e+03 
3.002700e-01 1.138267e+03 
3.015100e-01 1.132095e+03 
3.026800e-01 1.126328e+03 
3.038500e-01 1.120616e+03 
3.050300e-01 1.114910e+03 
3.062600e-01 1.109012e+03 
3.075000e-01 1.103125e+03 
3.087000e-01 1.097483e+03 
3.099100e-01 1.091848e+03 
3.111200e-01 1.086269e+03 
3.123100e-01 1.080836e+03 
3.135300e-01 1.075319e+03 
3.147300e-01 1.069944e+03 
3.159900e-01 1.064353e+03 
3.171800e-01 1.059128e+03 
3.183700e-01 1.053954e+03 
3.196300e-01 1.048527e+03 
3.208400e-01 1.043365e+03 
3.220300e-01 1.038334e+03 
3.232000e-01 1.033445e+03 
3.244300e-01 1.028356e+03 
3.256700e-01 1.023274e+03 
3.269200e-01 1.018199e+03 
3.280800e-01 1.013531e+03 
3.292500e-01 1.008877e+03 
3.304800e-01 1.004031e+03 
3.317100e-01 9.992301e+02 
3.328900e-01 9.946649e+02 
3.340700e-01 9.901392e+02 
3.353600e-01 9.852530e+02 
3.365300e-01 9.808673e+02 
3.377100e-01 9.764819e+02 
3.389200e-01 9.720238e+02 
3.401600e-01 9.674954e+02 
3.413700e-01 9.631274e+02 
3.425300e-01 9.589836e+02 
3.437700e-01 9.545919e+02 
3.449800e-01 9.503437e+02 
3.461800e-01 9.461665e+02 
3.473600e-01 9.421001e+02 
3.485800e-01 9.379473e+02 
3.498100e-01 9.337965e+02 
3.510200e-01 9.297478e+02 
3.522000e-01 9.258324e+02 
3.533900e-01 9.219162e+02 
3.546400e-01 9.178591e+02 
3.558400e-01 9.139984e+02 
3.570600e-01 9.101060e+02 
3.582700e-01 9.062774e+02 
3.595000e-01 9.024180e+02 
3.607100e-01 8.986633e+02 
3.618900e-01 8.950397e+02 
3.631200e-01 8.912932e+02 
3.643200e-01 8.876679e+02 
3.655500e-01 8.839822e+02 
3.667300e-01 8.804748e+02 
3.679500e-01 8.769038e+02 
3.691900e-01 8.733039e+02 
3.703600e-01 8.699342e+02 
3.715700e-01 8.664766e+02 
3.727700e-01 8.630748e+02 
3.739900e-01 8.596469e+02 
3.752000e-01 8.562801e+02 
3.763900e-01 8.529948e+02 
3.775800e-01 8.497348e+02 
3.788200e-01 8.463645e+02 
3.800300e-01 8.431017e+02 
3.812100e-01 8.399378e+02 
3.824200e-01 8.367140e+02 
3.836100e-01 8.335677e+02 
3.848600e-01 8.302884e+02 
3.860400e-01 8.272167e+02 
3.872400e-01 8.241163e+02 
3.884600e-01 8.210166e+02 
3.896500e-01 8.180267e+02 
3.908700e-01 8.149845e+02 
3.920600e-01 8.120394e+02 
3.933100e-01 8.089694e+02 
3.945300e-01 8.059960e+02 
3.957200e-01 8.031109e+02 
3.969300e-01 8.001972e+02 
3.981700e-01 7.972337e+02 
3.993500e-01 7.944346e+02 
4.094840e-01 7.711415e+02 
4.272360e-01 7.337699e+02 
4.454600e-01 6.989582e+02 
4.630560e-01 6.682859e+02 
4.804610e-01 6.404044e+02 
4.980690e-01 6.144597e+02 
5.159230e-01 5.901699e+02 
5.317440e-01 5.702412e+02 
5.489640e-01 5.499662e+02 
5.671990e-01 5.300162e+02 
5.838690e-01 5.130633e+02 
6.018840e-01 4.960083e+02 
6.202330e-01 4.798542e+02 
6.379250e-01 4.652505e+02 
6.545410e-01 4.524039e+02 
6.714560e-01 4.400909e+02 
6.892080e-01 4.279110e+02 
7.066010e-01 4.166087e+02 
7.240540e-01 4.059083e+02 
7.420450e-01 3.955301e+02 
7.593780e-01 3.859580e+02 
7.764720e-01 3.769996e+02 
7.942840e-01 3.681294e+02 
8.116170e-01 3.598214e+02 
8.288310e-01 3.519659e+02 
8.462240e-01 3.443146e+02 
8.631980e-01 3.371513e+02 
8.810700e-01 3.299141e+02 
8.989410e-01 3.229708e+02 
9.166330e-01 3.163290e+02 
9.345640e-01 3.098016e+02 
9.515980e-01 3.038157e+02 
9.688720e-01 2.979624e+02 
9.865640e-01 2.921472e+02 
1.031870e+00 2.780408e+02 
1.063490e+00 2.688189e+02 
1.097920e+00 2.592873e+02 
1.134370e+00 2.497702e+02 
1.167730e+00 2.414622e+02 
1.203830e+00 2.329435e+02 
1.240470e+00 2.247375e+02 
1.275790e+00 2.171813e+02 
1.309140e+00 2.104036e+02 
1.342970e+00 2.037891e+02 
1.378420e+00 1.972095e+02 
1.413200e+00 1.910170e+02 
1.448110e+00 1.850743e+02 
1.484090e+00 1.792280e+02 
1.518820e+00 1.738236e+02 
1.552880e+00 1.687201e+02 
1.588630e+00 1.636040e+02 
1.623230e+00 1.588602e+02 
1.657720e+00 1.543184e+02 
1.692450e+00 1.499557e+02 
1.726400e+00 1.458176e+02 
1.762200e+00 1.416222e+02 
1.797880e+00 1.376160e+02 
1.833270e+00 1.337998e+02 
1.869070e+00 1.300840e+02 
1.903200e+00 1.266846e+02 
1.937740e+00 1.233671e+02 
1.973190e+00 1.200842e+02 
2.007440e+00 1.170270e+02 
2.042160e+00 1.140391e+02 
2.077900e+00 1.110681e+02 
2.112390e+00 1.083204e+02 
2.146220e+00 1.056915e+02 
2.181600e+00 1.030527e+02 
2.216930e+00 1.005098e+02 
2.250760e+00 9.815149e+01 
2.286500e+00 9.574102e+01 
2.321770e+00 9.344571e+01 
2.355950e+00 9.129588e+01 
2.391280e+00 8.913760e+01 
2.426240e+00 8.707748e+01 
2.460670e+00 8.511169e+01 
2.495640e+00 8.317182e+01 
2.531080e+00 8.127829e+01 
2.566220e+00 7.945495e+01 
2.600830e+00 7.771456e+01 
2.635080e+00 7.604604e+01 
2.670340e+00 7.437265e+01 
2.705970e+00 7.274067e+01 
2.740040e+00 7.122916e+01 
2.774520e+00 6.973483e+01 
2.809730e+00 6.825775e+01 
2.844390e+00 6.684807e+01 
2.879960e+00 6.544129e+01 
2.914860e+00 6.409952e+01 
2.949410e+00 6.281013e+01 
2.984440e+00 6.154238e+01 
3.019760e+00 6.029672e+01 
3.054730e+00 5.909680e+01 
3.089030e+00 5.795273e+01 
3.124060e+00 5.681705e+01 
3.159560e+00 5.569813e+01 
3.194710e+00 5.462093e+01 
3.229010e+00 5.359841e+01 
3.263320e+00 5.259728e+01 
3.297930e+00 5.161532e+01 
3.332830e+00 5.065284e+01 
3.368040e+00 4.970629e+01 
3.403300e+00 4.878270e+01 
3.438450e+00 4.788406e+01 
3.473060e+00 4.702197e+01 
3.508440e+00 4.616668e+01 
3.543110e+00 4.534978e+01 
3.577470e+00 4.455727e+01 
3.613040e+00 4.375844e+01 
3.648120e+00 4.299255e+01 
3.682910e+00 4.225003e+01 
3.718050e+00 4.151492e+01 
3.753320e+00 4.079721e+01 
3.787980e+00 4.011174e+01 
3.822290e+00 3.944799e+01 
3.857020e+00 3.878988e+01 
3.891920e+00 3.814417e+01 
3.926650e+00 3.751653e+01 
3.961970e+00 3.689315e+01 
3.997360e+00 3.628299e+01 
4.031670e+00 3.570530e+01 
4.066330e+00 3.513586e+01 
4.101420e+00 3.457242e+01 
4.136200e+00 3.402597e+01 
4.170810e+00 3.349430e+01 
4.206250e+00 3.296288e+01 
4.241580e+00 3.244511e+01 
4.276300e+00 3.194687e+01 
4.310970e+00 3.145978e+01 
4.346120e+00 3.097711e+01 
4.380600e+00 3.051462e+01 
4.414730e+00 3.006635e+01 
4.450350e+00 2.960756e+01 
4.485320e+00 2.916668e+01 
4.519810e+00 2.874180e+01 
4.555430e+00 2.831252e+01 
4.590870e+00 2.789468e+01 
4.625480e+00 2.749569e+01 
4.659910e+00 2.710671e+01 
4.695230e+00 2.671527e+01 
4.729960e+00 2.633801e+01 
4.764450e+00 2.597054e+01 
4.799530e+00 2.560381e+01 
4.834910e+00 2.524125e+01 
4.869700e+00 2.489399e+01 
4.904370e+00 2.455493e+01 
4.939450e+00 2.421832e+01 
4.973940e+00 2.389337e+01 
5.008430e+00 2.357448e+01 
5.043810e+00 2.325331e+01 
5.078840e+00 2.294119e+01 
5.113500e+00 2.263808e+01 
5.148890e+00 2.233657e+01 
5.184210e+00 2.204131e+01 
5.219060e+00 2.175491e+01 
5.253660e+00 2.147458e+01 
5.288570e+00 2.119679e+01 
5.323420e+00 2.092547e+01 
5.358440e+00 2.065881e+01 
5.393590e+00 2.039589e+01 
5.428310e+00 2.014061e+01 
5.462800e+00 1.989134e+01 
5.497640e+00 1.964386e+01 
5.532670e+00 1.940080e+01 
5.567280e+00 1.916522e+01 
5.602000e+00 1.893286e+01 
5.637270e+00 1.869983e+01 
5.672410e+00 1.847136e+01 
5.707020e+00 1.825009e+01 
5.742040e+00 1.803143e+01 
5.777430e+00 1.781445e+01 
5.812210e+00 1.760471e+01 
5.846820e+00 1.739923e+01 
5.881610e+00 1.719598e+01 
5.916510e+00 1.699536e+01 
5.951600e+00 1.679747e+01 
5.986560e+00 1.660372e+01 
6.021830e+00 1.641137e+01 
6.056490e+00 1.622570e+01 
6.091160e+00 1.604318e+01 
6.125830e+00 1.586349e+01 
6.161090e+00 1.568353e+01 
6.195760e+00 1.550923e+01 
6.230420e+00 1.533764e+01 
6.265690e+00 1.516572e+01 
6.300950e+00 1.499722e+01 
6.335620e+00 1.483404e+01 
6.370880e+00 1.467058e+01 
6.405550e+00 1.451264e+01 
6.440220e+00 1.435719e+01 
6.475480e+00 1.420144e+01 
6.510150e+00 1.405074e+01 
6.544810e+00 1.390271e+01 
6.580080e+00 1.375427e+01 
6.614750e+00 1.361047e+01 
6.649410e+00 1.346872e+01 
6.684080e+00 1.332895e+01 
6.719340e+00 1.318882e+01 
6.754010e+00 1.305316e+01 
6.788680e+00 1.291976e+01 
6.823940e+00 1.278600e+01 
6.859800e+00 1.265191e+01 
6.894470e+00 1.252445e+01 
6.929140e+00 1.239889e+01 
6.963800e+00 1.227508e+01 
6.999070e+00 1.215082e+01 
7.033730e+00 1.203034e+01 
7.068400e+00 1.191145e+01 
7.103660e+00 1.179219e+01 
7.138330e+00 1.167681e+01 
7.173600e+00 1.156167e+01 
7.208260e+00 1.145002e+01 
7.243530e+00 1.133793e+01 
7.277600e+00 1.123079e+01 
7.312860e+00 1.112112e+01 
7.348120e+00 1.101291e+01 
7.382790e+00 1.090790e+01 
7.417460e+00 1.080481e+01 
7.452720e+00 1.070161e+01 
7.487390e+00 1.060144e+01 
7.522650e+00 1.050088e+01 
7.557320e+00 1.040325e+01 
7.591990e+00 1.030685e+01 
7.627250e+00 1.021005e+01 
7.662510e+00 1.011448e+01 
7.697180e+00 1.002196e+01 
7.731850e+00 9.930685e+00 
7.766510e+00 9.840565e+00 
7.801180e+00 9.751528e+00 
7.836440e+00 9.662075e+00 
7.871110e+00 9.575190e+00 
7.906380e+00 9.487887e+00 
7.941040e+00 9.403142e+00 
7.976310e+00 9.318117e+00 
8.011570e+00 9.234346e+00 
8.046240e+00 9.152971e+00 
8.080900e+00 9.072589e+00 
8.115570e+00 8.993174e+00 
8.150830e+00 8.913506e+00 
8.185500e+00 8.836101e+00 
8.220770e+00 8.758288e+00 
8.255430e+00 8.682722e+00 
8.290100e+00 8.608150e+00 
8.324770e+00 8.534458e+00 
8.359430e+00 8.461638e+00 
8.394700e+00 8.388396e+00 
8.429960e+00 8.316114e+00 
8.464630e+00 8.245948e+00 
8.499890e+00 8.175406e+00 
8.534560e+00 8.106837e+00 
8.569200e+00 8.039100e+00 
