# Parameters:
# omega_b = 0.021500, omega_m = 0.126614, n_s = 0.903543, h = 72.480315, w = -1.000000, sigma_8 = 0.896850
# z = 0.500000
#
# k[1/Mpc] # P(k):
8.694000e-04 2.009504e+04 
2.077466e-03 4.013533e+04 
3.285532e-03 5.459480e+04 
4.493598e-03 6.489557e+04 
5.701664e-03 7.191807e+04 
6.909730e-03 7.635145e+04 
8.117797e-03 7.885752e+04 
9.325863e-03 7.977925e+04 
1.053393e-02 7.943682e+04 
1.174199e-02 7.811139e+04 
1.295006e-02 7.598100e+04 
1.415813e-02 7.327425e+04 
1.536619e-02 7.017960e+04 
1.657426e-02 6.682884e+04 
1.778233e-02 6.334859e+04 
1.899039e-02 5.987355e+04 
2.019846e-02 5.644996e+04 
2.140652e-02 5.315662e+04 
2.261459e-02 5.004773e+04 
2.382266e-02 4.716695e+04 
2.503072e-02 4.453516e+04 
2.623879e-02 4.215343e+04 
2.744685e-02 4.001917e+04 
2.865492e-02 3.811934e+04 
2.986299e-02 3.643562e+04 
3.100100e-02 3.503649e+04 
3.220400e-02 3.373148e+04 
3.288100e-02 3.307101e+04 
3.424300e-02 3.187760e+04 
3.555100e-02 3.087086e+04 
3.686000e-02 2.997647e+04 
3.795000e-02 2.929721e+04 
3.929100e-02 2.852495e+04 
4.039800e-02 2.791961e+04 
4.164000e-02 2.726280e+04 
4.294400e-02 2.657196e+04 
4.415000e-02 2.593477e+04 
4.542900e-02 2.523474e+04 
4.660900e-02 2.458023e+04 
4.782300e-02 2.387056e+04 
4.892900e-02 2.321362e+04 
5.031200e-02 2.237162e+04 
5.155900e-02 2.159556e+04 
5.238100e-02 2.108114e+04 
5.378200e-02 2.020638e+04 
5.513400e-02 1.937030e+04 
5.627600e-02 1.867798e+04 
5.735300e-02 1.804363e+04 
5.870100e-02 1.728094e+04 
5.988700e-02 1.664425e+04 
6.113500e-02 1.601175e+04 
6.225900e-02 1.547823e+04 
6.340100e-02 1.497292e+04 
6.480200e-02 1.440095e+04 
6.601100e-02 1.395378e+04 
6.725500e-02 1.353574e+04 
6.829100e-02 1.322185e+04 
6.958600e-02 1.286374e+04 
7.071100e-02 1.258531e+04 
7.192300e-02 1.231430e+04 
7.307400e-02 1.208176e+04 
7.412300e-02 1.188817e+04 
7.550400e-02 1.165785e+04 
7.663100e-02 1.148444e+04 
7.791200e-02 1.130216e+04 
7.912700e-02 1.113781e+04 
8.027600e-02 1.098607e+04 
8.138400e-02 1.084114e+04 
8.272200e-02 1.066499e+04 
8.406100e-02 1.048460e+04 
8.534100e-02 1.030279e+04 
8.653800e-02 1.012349e+04 
8.759800e-02 9.959574e+03 
8.900300e-02 9.733458e+03 
9.009000e-02 9.550907e+03 
9.113300e-02 9.369657e+03 
9.239600e-02 9.148046e+03 
9.358000e-02 8.937168e+03 
9.496100e-02 8.689168e+03 
9.608400e-02 8.490398e+03 
9.727500e-02 8.283587e+03 
9.852600e-02 8.072112e+03 
9.973800e-02 7.875706e+03 
1.009000e-01 7.694819e+03 
1.020900e-01 7.522351e+03 
1.034000e-01 7.343160e+03 
1.046000e-01 7.189110e+03 
1.057200e-01 7.059006e+03 
1.069100e-01 6.928183e+03 
1.082500e-01 6.795691e+03 
1.093900e-01 6.692519e+03 
1.105400e-01 6.594794e+03 
1.116900e-01 6.507401e+03 
1.129600e-01 6.415820e+03 
1.142000e-01 6.334251e+03 
1.153300e-01 6.263028e+03 
1.166400e-01 6.184499e+03 
1.177800e-01 6.117959e+03 
1.190000e-01 6.048510e+03 
1.201200e-01 5.983645e+03 
1.213400e-01 5.914185e+03 
1.227100e-01 5.831971e+03 
1.238900e-01 5.761392e+03 
1.250700e-01 5.687336e+03 
1.263200e-01 5.608675e+03 
1.275500e-01 5.528539e+03 
1.287500e-01 5.450055e+03 
1.299900e-01 5.367478e+03 
1.311300e-01 5.291853e+03 
1.323500e-01 5.210576e+03 
1.335900e-01 5.129258e+03 
1.347100e-01 5.056594e+03 
1.359800e-01 4.976096e+03 
1.372100e-01 4.900025e+03 
1.384300e-01 4.826720e+03 
1.395700e-01 4.760726e+03 
1.407700e-01 4.692949e+03 
1.420300e-01 4.625513e+03 
1.432800e-01 4.560102e+03 
1.444500e-01 4.502767e+03 
1.456300e-01 4.446115e+03 
1.468900e-01 4.388732e+03 
1.480500e-01 4.337529e+03 
1.491700e-01 4.289847e+03 
1.503800e-01 4.240362e+03 
1.516400e-01 4.190116e+03 
1.528200e-01 4.145062e+03 
1.540200e-01 4.100116e+03 
1.551900e-01 4.057652e+03 
1.564300e-01 4.013630e+03 
1.576600e-01 3.970843e+03 
1.588700e-01 3.929595e+03 
1.600900e-01 3.888763e+03 
1.612700e-01 3.849664e+03 
1.625400e-01 3.808362e+03 
1.637600e-01 3.769024e+03 
1.649500e-01 3.731107e+03 
1.662200e-01 3.691264e+03 
1.674000e-01 3.654273e+03 
1.685000e-01 3.620366e+03 
1.697500e-01 3.582104e+03 
1.710300e-01 3.543251e+03 
1.722200e-01 3.507772e+03 
1.734400e-01 3.471416e+03 
1.746400e-01 3.436246e+03 
1.758700e-01 3.400705e+03 
1.770900e-01 3.365831e+03 
1.782700e-01 3.332667e+03 
1.794600e-01 3.299738e+03 
1.807000e-01 3.265979e+03 
1.819100e-01 3.233590e+03 
1.830100e-01 3.204786e+03 
1.842200e-01 3.173626e+03 
1.855000e-01 3.141233e+03 
1.867000e-01 3.111770e+03 
1.879200e-01 3.082295e+03 
1.890900e-01 3.054554e+03 
1.902800e-01 3.027201e+03 
1.915200e-01 2.999146e+03 
1.926900e-01 2.973199e+03 
1.939000e-01 2.947140e+03 
1.951700e-01 2.920218e+03 
1.963100e-01 2.896526e+03 
1.975100e-01 2.872240e+03 
1.987800e-01 2.846931e+03 
2.000100e-01 2.822866e+03 
2.012500e-01 2.799135e+03 
2.023400e-01 2.778570e+03 
2.036100e-01 2.754967e+03 
2.048900e-01 2.731604e+03 
2.060400e-01 2.710918e+03 
2.072200e-01 2.689980e+03 
2.084200e-01 2.668919e+03 
2.096900e-01 2.646952e+03 
2.109200e-01 2.625988e+03 
2.121100e-01 2.605806e+03 
2.132700e-01 2.586390e+03 
2.145200e-01 2.565758e+03 
2.157200e-01 2.546065e+03 
2.168800e-01 2.527209e+03 
2.180700e-01 2.508123e+03 
2.193400e-01 2.487934e+03 
2.206000e-01 2.467999e+03 
2.217500e-01 2.450049e+03 
2.229500e-01 2.431561e+03 
2.241400e-01 2.413211e+03 
2.253500e-01 2.394792e+03 
2.264900e-01 2.377661e+03 
2.277100e-01 2.359430e+03 
2.289900e-01 2.340413e+03 
2.301500e-01 2.323406e+03 
2.313600e-01 2.305889e+03 
2.325600e-01 2.288528e+03 
2.337700e-01 2.271247e+03 
2.350000e-01 2.253907e+03 
2.362000e-01 2.237140e+03 
2.374100e-01 2.220368e+03 
2.386500e-01 2.203399e+03 
2.399100e-01 2.186380e+03 
2.410400e-01 2.171262e+03 
2.422500e-01 2.155263e+03 
2.435000e-01 2.138943e+03 
2.447300e-01 2.123096e+03 
2.458700e-01 2.108620e+03 
2.470600e-01 2.093687e+03 
2.483300e-01 2.077947e+03 
2.495600e-01 2.062962e+03 
2.507600e-01 2.048616e+03 
2.519600e-01 2.034440e+03 
2.532200e-01 2.019734e+03 
2.543700e-01 2.006601e+03 
2.555500e-01 1.993367e+03 
2.568000e-01 1.979512e+03 
2.580100e-01 1.966259e+03 
2.592400e-01 1.953135e+03 
2.604100e-01 1.940876e+03 
2.616100e-01 1.928444e+03 
2.628400e-01 1.915847e+03 
2.640600e-01 1.903691e+03 
2.652200e-01 1.892338e+03 
2.664300e-01 1.880626e+03 
2.676500e-01 1.868948e+03 
2.688400e-01 1.857828e+03 
2.700700e-01 1.846549e+03 
2.712400e-01 1.835938e+03 
2.724800e-01 1.824813e+03 
2.736700e-01 1.814330e+03 
2.748800e-01 1.803862e+03 
2.761000e-01 1.793421e+03 
2.773200e-01 1.783093e+03 
2.785400e-01 1.772913e+03 
2.797000e-01 1.763411e+03 
2.808900e-01 1.753763e+03 
2.821400e-01 1.743737e+03 
2.833900e-01 1.733821e+03 
2.845500e-01 1.724769e+03 
2.857800e-01 1.715269e+03 
2.870300e-01 1.705716e+03 
2.882100e-01 1.696792e+03 
2.893900e-01 1.687976e+03 
2.906300e-01 1.678818e+03 
2.918900e-01 1.669608e+03 
2.930500e-01 1.661216e+03 
2.942500e-01 1.652622e+03 
2.954200e-01 1.644334e+03 
2.966500e-01 1.635708e+03 
2.978900e-01 1.627099e+03 
2.990400e-01 1.619194e+03 
3.002700e-01 1.610828e+03 
3.015100e-01 1.602481e+03 
3.026800e-01 1.594683e+03 
3.038500e-01 1.586958e+03 
3.050300e-01 1.579241e+03 
3.062600e-01 1.571285e+03 
3.075000e-01 1.563343e+03 
3.087000e-01 1.555732e+03 
3.099100e-01 1.548130e+03 
3.111200e-01 1.540608e+03 
3.123100e-01 1.533294e+03 
3.135300e-01 1.525866e+03 
3.147300e-01 1.518628e+03 
3.159900e-01 1.511101e+03 
3.171800e-01 1.504071e+03 
3.183700e-01 1.497114e+03 
3.196300e-01 1.489816e+03 
3.208400e-01 1.482874e+03 
3.220300e-01 1.476109e+03 
3.232000e-01 1.469539e+03 
3.244300e-01 1.462703e+03 
3.256700e-01 1.455875e+03 
3.269200e-01 1.449056e+03 
3.280800e-01 1.442786e+03 
3.292500e-01 1.436539e+03 
3.304800e-01 1.430038e+03 
3.317100e-01 1.423595e+03 
3.328900e-01 1.417469e+03 
3.340700e-01 1.411397e+03 
3.353600e-01 1.404840e+03 
3.365300e-01 1.398956e+03 
3.377100e-01 1.393072e+03 
3.389200e-01 1.387090e+03 
3.401600e-01 1.381014e+03 
3.413700e-01 1.375152e+03 
3.425300e-01 1.369591e+03 
3.437700e-01 1.363698e+03 
3.449800e-01 1.357996e+03 
3.461800e-01 1.352391e+03 
3.473600e-01 1.346932e+03 
3.485800e-01 1.341352e+03 
3.498100e-01 1.335776e+03 
3.510200e-01 1.330336e+03 
3.522000e-01 1.325076e+03 
3.533900e-01 1.319814e+03 
3.546400e-01 1.314355e+03 
3.558400e-01 1.309161e+03 
3.570600e-01 1.303923e+03 
3.582700e-01 1.298771e+03 
3.595000e-01 1.293578e+03 
3.607100e-01 1.288522e+03 
3.618900e-01 1.283640e+03 
3.631200e-01 1.278592e+03 
3.643200e-01 1.273707e+03 
3.655500e-01 1.268742e+03 
3.667300e-01 1.264016e+03 
3.679500e-01 1.259187e+03 
3.691900e-01 1.254319e+03 
3.703600e-01 1.249763e+03 
3.715700e-01 1.245088e+03 
3.727700e-01 1.240488e+03 
3.739900e-01 1.235851e+03 
3.752000e-01 1.231292e+03 
3.763900e-01 1.226844e+03 
3.775800e-01 1.222430e+03 
3.788200e-01 1.217866e+03 
3.800300e-01 1.213448e+03 
3.812100e-01 1.209152e+03 
3.824200e-01 1.204767e+03 
3.836100e-01 1.200487e+03 
3.848600e-01 1.196026e+03 
3.860400e-01 1.191847e+03 
3.872400e-01 1.187630e+03 
3.884600e-01 1.183406e+03 
3.896500e-01 1.179328e+03 
3.908700e-01 1.175179e+03 
3.920600e-01 1.171163e+03 
3.933100e-01 1.166976e+03 
3.945300e-01 1.162922e+03 
3.957200e-01 1.158975e+03 
3.969300e-01 1.154985e+03 
3.981700e-01 1.150927e+03 
3.993500e-01 1.147094e+03 
4.094840e-01 1.115131e+03 
4.272360e-01 1.063559e+03 
4.454600e-01 1.015279e+03 
4.630560e-01 9.725454e+02 
4.804610e-01 9.335902e+02 
4.980690e-01 8.972632e+02 
5.159230e-01 8.632117e+02 
5.317440e-01 8.352428e+02 
5.489640e-01 8.067219e+02 
5.671990e-01 7.786146e+02 
5.838690e-01 7.546469e+02 
6.018840e-01 7.304743e+02 
6.202330e-01 7.074369e+02 
6.379250e-01 6.865571e+02 
6.545410e-01 6.680552e+02 
6.714560e-01 6.502440e+02 
6.892080e-01 6.325165e+02 
7.066010e-01 6.159471e+02 
7.240540e-01 6.001731e+02 
7.420450e-01 5.847692e+02 
7.593780e-01 5.704595e+02 
7.764720e-01 5.569880e+02 
7.942840e-01 5.435833e+02 
8.116170e-01 5.309426e+02 
8.288310e-01 5.189064e+02 
8.462240e-01 5.071404e+02 
8.631980e-01 4.960692e+02 
8.810700e-01 4.848389e+02 
8.989410e-01 4.740212e+02 
9.166330e-01 4.636283e+02 
9.345640e-01 4.533904e+02 
9.515980e-01 4.439760e+02 
9.688720e-01 4.347441e+02 
9.865640e-01 4.255557e+02 
1.031870e+00 4.032175e+02 
1.063490e+00 3.885780e+02 
1.097920e+00 3.734430e+02 
1.134370e+00 3.583376e+02 
1.167730e+00 3.451725e+02 
1.203830e+00 3.316871e+02 
1.240470e+00 3.187369e+02 
1.275790e+00 3.068445e+02 
1.309140e+00 2.962089e+02 
1.342970e+00 2.858740e+02 
1.378420e+00 2.756239e+02 
1.413200e+00 2.660097e+02 
1.448110e+00 2.568235e+02 
1.484090e+00 2.478166e+02 
1.518820e+00 2.395357e+02 
1.552880e+00 2.317417e+02 
1.588630e+00 2.239668e+02 
1.623230e+00 2.167810e+02 
1.657720e+00 2.099322e+02 
1.692450e+00 2.033715e+02 
1.726400e+00 1.971786e+02 
1.762200e+00 1.909314e+02 
1.797880e+00 1.849873e+02 
1.833270e+00 1.793429e+02 
1.869070e+00 1.738719e+02 
1.903200e+00 1.688836e+02 
1.937740e+00 1.640340e+02 
1.973190e+00 1.592541e+02 
2.007440e+00 1.548188e+02 
2.042160e+00 1.504971e+02 
2.077900e+00 1.462152e+02 
2.112390e+00 1.422681e+02 
2.146220e+00 1.385078e+02 
2.181600e+00 1.347422e+02 
2.216930e+00 1.311266e+02 
2.250760e+00 1.277840e+02 
2.286500e+00 1.243780e+02 
2.321770e+00 1.211451e+02 
2.355950e+00 1.181252e+02 
2.391280e+00 1.151039e+02 
2.426240e+00 1.122280e+02 
2.460670e+00 1.094914e+02 
2.495640e+00 1.067984e+02 
2.531080e+00 1.041767e+02 
2.566220e+00 1.016602e+02 
2.600830e+00 9.926414e+01 
2.635080e+00 9.697212e+01 
2.670340e+00 9.468124e+01 
2.705970e+00 9.245212e+01 
2.740040e+00 9.039188e+01 
2.774520e+00 8.836043e+01 
2.809730e+00 8.635734e+01 
2.844390e+00 8.444947e+01 
2.879960e+00 8.255045e+01 
2.914860e+00 8.074376e+01 
2.949410e+00 7.901064e+01 
2.984440e+00 7.731072e+01 
3.019760e+00 7.564432e+01 
3.054730e+00 7.404190e+01 
3.089030e+00 7.251806e+01 
3.124060e+00 7.100787e+01 
3.159560e+00 6.952312e+01 
3.194710e+00 6.809682e+01 
3.229010e+00 6.674465e+01 
3.263320e+00 6.542454e+01 
3.297930e+00 6.413134e+01 
3.332830e+00 6.286624e+01 
3.368040e+00 6.162435e+01 
3.403300e+00 6.041440e+01 
3.438450e+00 5.923989e+01 
3.473060e+00 5.811429e+01 
3.508440e+00 5.700019e+01 
3.543110e+00 5.593704e+01 
3.577470e+00 5.490793e+01 
3.613040e+00 5.387167e+01 
3.648120e+00 5.288004e+01 
3.682910e+00 5.191988e+01 
3.718050e+00 5.097112e+01 
3.753320e+00 5.004583e+01 
3.787980e+00 4.916334e+01 
3.822290e+00 4.830990e+01 
3.857020e+00 4.746515e+01 
3.891920e+00 4.663723e+01 
3.926650e+00 4.583386e+01 
3.961970e+00 4.503666e+01 
3.997360e+00 4.425760e+01 
4.031670e+00 4.352053e+01 
4.066330e+00 4.279518e+01 
4.101420e+00 4.207783e+01 
4.136200e+00 4.138347e+01 
4.170810e+00 4.070816e+01 
4.206250e+00 4.003440e+01 
4.241580e+00 3.937838e+01 
4.276300e+00 3.874796e+01 
4.310970e+00 3.813222e+01 
4.346120e+00 3.752258e+01 
4.380600e+00 3.693909e+01 
4.414730e+00 3.637379e+01 
4.450350e+00 3.579634e+01 
4.485320e+00 3.524164e+01 
4.519810e+00 3.470770e+01 
4.555430e+00 3.416862e+01 
4.590870e+00 3.364427e+01 
4.625480e+00 3.314413e+01 
4.659910e+00 3.265670e+01 
4.695230e+00 3.216694e+01 
4.729960e+00 3.169516e+01 
4.764450e+00 3.123599e+01 
4.799530e+00 3.077827e+01 
4.834910e+00 3.032589e+01 
4.869700e+00 2.989304e+01 
4.904370e+00 2.947059e+01 
4.939450e+00 2.905142e+01 
4.973940e+00 2.864720e+01 
5.008430e+00 2.825063e+01 
5.043810e+00 2.785168e+01 
5.078840e+00 2.746426e+01 
5.113500e+00 2.708815e+01 
5.148890e+00 2.671435e+01 
5.184210e+00 2.634842e+01 
5.219060e+00 2.599367e+01 
5.253660e+00 2.564678e+01 
5.288570e+00 2.530314e+01 
5.323420e+00 2.496769e+01 
5.358440e+00 2.463820e+01 
5.393590e+00 2.431343e+01 
5.428310e+00 2.399838e+01 
5.462800e+00 2.369092e+01 
5.497640e+00 2.338575e+01 
5.532670e+00 2.308621e+01 
5.567280e+00 2.279598e+01 
5.602000e+00 2.250980e+01 
5.637270e+00 2.222310e+01 
5.672410e+00 2.194215e+01 
5.707020e+00 2.167012e+01 
5.742040e+00 2.140147e+01 
5.777430e+00 2.113497e+01 
5.812210e+00 2.087745e+01 
5.846820e+00 2.062532e+01 
5.881610e+00 2.037601e+01 
5.916510e+00 2.013000e+01 
5.951600e+00 1.988747e+01 
5.986560e+00 1.965011e+01 
6.021830e+00 1.941452e+01 
6.056490e+00 1.918723e+01 
6.091160e+00 1.896390e+01 
6.125830e+00 1.874408e+01 
6.161090e+00 1.852404e+01 
6.195760e+00 1.831105e+01 
6.230420e+00 1.810143e+01 
6.265690e+00 1.789147e+01 
6.300950e+00 1.768576e+01 
6.335620e+00 1.748660e+01 
6.370880e+00 1.728715e+01 
6.405550e+00 1.709457e+01 
6.440220e+00 1.690511e+01 
6.475480e+00 1.671532e+01 
6.510150e+00 1.653175e+01 
6.544810e+00 1.635149e+01 
6.580080e+00 1.617077e+01 
6.614750e+00 1.599575e+01 
6.649410e+00 1.582334e+01 
6.684080e+00 1.565338e+01 
6.719340e+00 1.548304e+01 
6.754010e+00 1.531817e+01 
6.788680e+00 1.515611e+01 
6.823940e+00 1.499366e+01 
6.859800e+00 1.483083e+01 
6.894470e+00 1.467615e+01 
6.929140e+00 1.452381e+01 
6.963800e+00 1.437363e+01 
6.999070e+00 1.422295e+01 
7.033730e+00 1.407698e+01 
7.068400e+00 1.393297e+01 
7.103660e+00 1.378853e+01 
7.138330e+00 1.364884e+01 
7.173600e+00 1.350945e+01 
7.208260e+00 1.337433e+01 
7.243530e+00 1.323869e+01 
7.277600e+00 1.310913e+01 
7.312860e+00 1.297656e+01 
7.348120e+00 1.284578e+01 
7.382790e+00 1.271890e+01 
7.417460e+00 1.259440e+01 
7.452720e+00 1.246983e+01 
7.487390e+00 1.234894e+01 
7.522650e+00 1.222761e+01 
7.557320e+00 1.210985e+01 
7.591990e+00 1.199359e+01 
7.627250e+00 1.187689e+01 
7.662510e+00 1.176170e+01 
7.697180e+00 1.165025e+01 
7.731850e+00 1.154035e+01 
7.766510e+00 1.143186e+01 
7.801180e+00 1.132470e+01 
7.836440e+00 1.121708e+01 
7.871110e+00 1.111260e+01 
7.906380e+00 1.100763e+01 
7.941040e+00 1.090576e+01 
7.976310e+00 1.080359e+01 
8.011570e+00 1.070299e+01 
8.046240e+00 1.060527e+01 
8.080900e+00 1.050877e+01 
8.115570e+00 1.041347e+01 
8.150830e+00 1.031791e+01 
8.185500e+00 1.022509e+01 
8.220770e+00 1.013180e+01 
8.255430e+00 1.004122e+01 
8.290100e+00 9.951908e+00 
8.324770e+00 9.863673e+00 
8.359430e+00 9.776500e+00 
8.394700e+00 9.688840e+00 
8.429960e+00 9.602359e+00 
8.464630e+00 9.518438e+00 
8.499890e+00 9.434084e+00 
8.534560e+00 9.352106e+00 
8.569200e+00 9.271140e+00 
