# Parameters:
# omega_b = 0.022398, omega_m = 0.144252, n_s = 1.048425, h = 56.653543, w = -1.000000, sigma_8 = 0.895276
# z = 0.500000
#
# k[1/Mpc] # P(k):
8.694000e-04 8.403685e+03 
2.077466e-03 1.930580e+04 
3.285532e-03 2.847235e+04 
4.493598e-03 3.596478e+04 
5.701664e-03 4.186803e+04 
6.909730e-03 4.634989e+04 
8.117797e-03 4.966425e+04 
9.325863e-03 5.193702e+04 
1.053393e-02 5.330943e+04 
1.174199e-02 5.392321e+04 
1.295006e-02 5.386590e+04 
1.415813e-02 5.327109e+04 
1.536619e-02 5.225939e+04 
1.657426e-02 5.091816e+04 
1.778233e-02 4.937852e+04 
1.899039e-02 4.783920e+04 
2.019846e-02 4.626923e+04 
2.140652e-02 4.461257e+04 
2.261459e-02 4.291196e+04 
2.382266e-02 4.123653e+04 
2.503072e-02 3.962543e+04 
2.623879e-02 3.809566e+04 
2.744685e-02 3.665275e+04 
2.865492e-02 3.531053e+04 
2.986299e-02 3.407060e+04 
3.100100e-02 3.299532e+04 
3.220400e-02 3.195389e+04 
3.288100e-02 3.140976e+04 
3.424300e-02 3.040059e+04 
3.555100e-02 2.952627e+04 
3.686000e-02 2.873489e+04 
3.795000e-02 2.812967e+04 
3.929100e-02 2.744539e+04 
4.039800e-02 2.691862e+04 
4.164000e-02 2.635984e+04 
4.294400e-02 2.579731e+04 
4.415000e-02 2.529437e+04 
4.542900e-02 2.476453e+04 
4.660900e-02 2.428117e+04 
4.782300e-02 2.377171e+04 
4.892900e-02 2.330478e+04 
5.031200e-02 2.270944e+04 
5.155900e-02 2.215853e+04 
5.238100e-02 2.178978e+04 
5.378200e-02 2.115373e+04 
5.513400e-02 2.052970e+04 
5.627600e-02 1.999760e+04 
5.735300e-02 1.949590e+04 
5.870100e-02 1.887162e+04 
5.988700e-02 1.833093e+04 
6.113500e-02 1.777325e+04 
6.225900e-02 1.728345e+04 
6.340100e-02 1.680113e+04 
6.480200e-02 1.623438e+04 
6.601100e-02 1.576941e+04 
6.725500e-02 1.531687e+04 
6.829100e-02 1.496246e+04 
6.958600e-02 1.454626e+04 
7.071100e-02 1.421109e+04 
7.192300e-02 1.387624e+04 
7.307400e-02 1.358277e+04 
7.412300e-02 1.333518e+04 
7.550400e-02 1.303861e+04 
7.663100e-02 1.281630e+04 
7.791200e-02 1.258801e+04 
7.912700e-02 1.239105e+04 
8.027600e-02 1.221787e+04 
8.138400e-02 1.206060e+04 
8.272200e-02 1.188119e+04 
8.406100e-02 1.170945e+04 
8.534100e-02 1.154835e+04 
8.653800e-02 1.139699e+04 
8.759800e-02 1.126192e+04 
8.900300e-02 1.107923e+04 
9.009000e-02 1.093305e+04 
9.113300e-02 1.078725e+04 
9.239600e-02 1.060751e+04 
9.358000e-02 1.043370e+04 
9.496100e-02 1.022337e+04 
9.608400e-02 1.005051e+04 
9.727500e-02 9.866966e+03 
9.852600e-02 9.669813e+03 
9.973800e-02 9.481743e+03 
1.009000e-01 9.304356e+03 
1.020900e-01 9.124988e+03 
1.034000e-01 8.933530e+03 
1.046000e-01 8.763576e+03 
1.057200e-01 8.611465e+03 
1.069100e-01 8.455381e+03 
1.082500e-01 8.288626e+03 
1.093900e-01 8.153971e+03 
1.105400e-01 8.023496e+03 
1.116900e-01 7.901489e+03 
1.129600e-01 7.772205e+03 
1.142000e-01 7.654434e+03 
1.153300e-01 7.551918e+03 
1.166400e-01 7.439362e+03 
1.177800e-01 7.346929e+03 
1.190000e-01 7.251824e+03 
1.201200e-01 7.169191e+03 
1.213400e-01 7.081766e+03 
1.227100e-01 6.988500e+03 
1.238900e-01 6.910413e+03 
1.250700e-01 6.834728e+03 
1.263200e-01 6.756349e+03 
1.275500e-01 6.680857e+03 
1.287500e-01 6.608396e+03 
1.299900e-01 6.534428e+03 
1.311300e-01 6.467050e+03 
1.323500e-01 6.395181e+03 
1.335900e-01 6.322637e+03 
1.347100e-01 6.257007e+03 
1.359800e-01 6.183129e+03 
1.372100e-01 6.111050e+03 
1.384300e-01 6.040257e+03 
1.395700e-01 5.973445e+03 
1.407700e-01 5.904314e+03 
1.420300e-01 5.830816e+03 
1.432800e-01 5.759478e+03 
1.444500e-01 5.692446e+03 
1.456300e-01 5.626192e+03 
1.468900e-01 5.556318e+03 
1.480500e-01 5.493120e+03 
1.491700e-01 5.433338e+03 
1.503800e-01 5.370096e+03 
1.516400e-01 5.305747e+03 
1.528200e-01 5.247446e+03 
1.540200e-01 5.189290e+03 
1.551900e-01 5.134755e+03 
1.564300e-01 5.078320e+03 
1.576600e-01 5.024075e+03 
1.588700e-01 4.972508e+03 
1.600900e-01 4.921553e+03 
1.612700e-01 4.874447e+03 
1.625400e-01 4.824685e+03 
1.637600e-01 4.778340e+03 
1.649500e-01 4.734277e+03 
1.662200e-01 4.688189e+03 
1.674000e-01 4.646616e+03 
1.685000e-01 4.608503e+03 
1.697500e-01 4.565950e+03 
1.710300e-01 4.523189e+03 
1.722200e-01 4.484131e+03 
1.734400e-01 4.444542e+03 
1.746400e-01 4.406253e+03 
1.758700e-01 4.367526e+03 
1.770900e-01 4.329473e+03 
1.782700e-01 4.293273e+03 
1.794600e-01 4.257109e+03 
1.807000e-01 4.219879e+03 
1.819100e-01 4.184148e+03 
1.830100e-01 4.151872e+03 
1.842200e-01 4.116862e+03 
1.855000e-01 4.080426e+03 
1.867000e-01 4.046608e+03 
1.879200e-01 4.012768e+03 
1.890900e-01 3.980808e+03 
1.902800e-01 3.948746e+03 
1.915200e-01 3.915856e+03 
1.926900e-01 3.885302e+03 
1.939000e-01 3.854196e+03 
1.951700e-01 3.822055e+03 
1.963100e-01 3.793675e+03 
1.975100e-01 3.764334e+03 
1.987800e-01 3.733753e+03 
2.000100e-01 3.704639e+03 
2.012500e-01 3.675845e+03 
2.023400e-01 3.650891e+03 
2.036100e-01 3.622259e+03 
2.048900e-01 3.593961e+03 
2.060400e-01 3.568904e+03 
2.072200e-01 3.543552e+03 
2.084200e-01 3.518195e+03 
2.096900e-01 3.491745e+03 
2.109200e-01 3.466500e+03 
2.121100e-01 3.442370e+03 
2.132700e-01 3.419163e+03 
2.145200e-01 3.394500e+03 
2.157200e-01 3.371055e+03 
2.168800e-01 3.348648e+03 
2.180700e-01 3.325965e+03 
2.193400e-01 3.301966e+03 
2.206000e-01 3.278262e+03 
2.217500e-01 3.256916e+03 
2.229500e-01 3.234928e+03 
2.241400e-01 3.213005e+03 
2.253500e-01 3.190993e+03 
2.264900e-01 3.170519e+03 
2.277100e-01 3.148602e+03 
2.289900e-01 3.125599e+03 
2.301500e-01 3.105023e+03 
2.313600e-01 3.083826e+03 
2.325600e-01 3.062490e+03 
2.337700e-01 3.041248e+03 
2.350000e-01 3.019931e+03 
2.362000e-01 2.999155e+03 
2.374100e-01 2.978181e+03 
2.386500e-01 2.956960e+03 
2.399100e-01 2.935672e+03 
2.410400e-01 2.916498e+03 
2.422500e-01 2.896170e+03 
2.435000e-01 2.875432e+03 
2.447300e-01 2.855248e+03 
2.458700e-01 2.836629e+03 
2.470600e-01 2.817421e+03 
2.483300e-01 2.797171e+03 
2.495600e-01 2.777844e+03 
2.507600e-01 2.759272e+03 
2.519600e-01 2.740918e+03 
2.532200e-01 2.721877e+03 
2.543700e-01 2.704871e+03 
2.555500e-01 2.687734e+03 
2.568000e-01 2.669791e+03 
2.580100e-01 2.652627e+03 
2.592400e-01 2.635696e+03 
2.604100e-01 2.619912e+03 
2.616100e-01 2.603903e+03 
2.628400e-01 2.587680e+03 
2.640600e-01 2.572132e+03 
2.652200e-01 2.557654e+03 
2.664300e-01 2.542715e+03 
2.676500e-01 2.527821e+03 
2.688400e-01 2.513750e+03 
2.700700e-01 2.499550e+03 
2.712400e-01 2.486190e+03 
2.724800e-01 2.472183e+03 
2.736700e-01 2.459064e+03 
2.748800e-01 2.446050e+03 
2.761000e-01 2.433070e+03 
2.773200e-01 2.420229e+03 
2.785400e-01 2.407616e+03 
2.797000e-01 2.395938e+03 
2.808900e-01 2.384080e+03 
2.821400e-01 2.371756e+03 
2.833900e-01 2.359573e+03 
2.845500e-01 2.348546e+03 
2.857800e-01 2.336974e+03 
2.870300e-01 2.325338e+03 
2.882100e-01 2.314468e+03 
2.893900e-01 2.303772e+03 
2.906300e-01 2.292683e+03 
2.918900e-01 2.281534e+03 
2.930500e-01 2.271373e+03 
2.942500e-01 2.260976e+03 
2.954200e-01 2.250971e+03 
2.966500e-01 2.240558e+03 
2.978900e-01 2.230167e+03 
2.990400e-01 2.220625e+03 
3.002700e-01 2.210536e+03 
3.015100e-01 2.200476e+03 
3.026800e-01 2.191078e+03 
3.038500e-01 2.181768e+03 
3.050300e-01 2.172468e+03 
3.062600e-01 2.162875e+03 
3.075000e-01 2.153300e+03 
3.087000e-01 2.144124e+03 
3.099100e-01 2.134959e+03 
3.111200e-01 2.125885e+03 
3.123100e-01 2.117050e+03 
3.135300e-01 2.108077e+03 
3.147300e-01 2.099335e+03 
3.159900e-01 2.090243e+03 
3.171800e-01 2.081741e+03 
3.183700e-01 2.073317e+03 
3.196300e-01 2.064482e+03 
3.208400e-01 2.056078e+03 
3.220300e-01 2.047889e+03 
3.232000e-01 2.039919e+03 
3.244300e-01 2.031620e+03 
3.256700e-01 2.023332e+03 
3.269200e-01 2.015055e+03 
3.280800e-01 2.007444e+03 
3.292500e-01 1.999844e+03 
3.304800e-01 1.991928e+03 
3.317100e-01 1.984084e+03 
3.328900e-01 1.976627e+03 
3.340700e-01 1.969235e+03 
3.353600e-01 1.961235e+03 
3.365300e-01 1.954047e+03 
3.377100e-01 1.946861e+03 
3.389200e-01 1.939556e+03 
3.401600e-01 1.932136e+03 
3.413700e-01 1.924964e+03 
3.425300e-01 1.918149e+03 
3.437700e-01 1.910928e+03 
3.449800e-01 1.903943e+03 
3.461800e-01 1.897075e+03 
3.473600e-01 1.890383e+03 
3.485800e-01 1.883528e+03 
3.498100e-01 1.876678e+03 
3.510200e-01 1.869997e+03 
3.522000e-01 1.863537e+03 
3.533900e-01 1.857076e+03 
3.546400e-01 1.850351e+03 
3.558400e-01 1.843950e+03 
3.570600e-01 1.837497e+03 
3.582700e-01 1.831151e+03 
3.595000e-01 1.824755e+03 
3.607100e-01 1.818519e+03 
3.618900e-01 1.812490e+03 
3.631200e-01 1.806259e+03 
3.643200e-01 1.800229e+03 
3.655500e-01 1.794100e+03 
3.667300e-01 1.788269e+03 
3.679500e-01 1.782286e+03 
3.691900e-01 1.776255e+03 
3.703600e-01 1.770611e+03 
3.715700e-01 1.764821e+03 
3.727700e-01 1.759125e+03 
3.739900e-01 1.753379e+03 
3.752000e-01 1.747725e+03 
3.763900e-01 1.742209e+03 
3.775800e-01 1.736737e+03 
3.788200e-01 1.731080e+03 
3.800300e-01 1.725604e+03 
3.812100e-01 1.720262e+03 
3.824200e-01 1.714798e+03 
3.836100e-01 1.709465e+03 
3.848600e-01 1.703908e+03 
3.860400e-01 1.698704e+03 
3.872400e-01 1.693451e+03 
3.884600e-01 1.688186e+03 
3.896500e-01 1.683103e+03 
3.908700e-01 1.677932e+03 
3.920600e-01 1.672926e+03 
3.933100e-01 1.667710e+03 
3.945300e-01 1.662658e+03 
3.957200e-01 1.657724e+03 
3.969300e-01 1.652733e+03 
3.981700e-01 1.647658e+03 
3.993500e-01 1.642864e+03 
4.094840e-01 1.602804e+03 
4.272360e-01 1.537869e+03 
4.454600e-01 1.476675e+03 
4.630560e-01 1.422149e+03 
4.804610e-01 1.372136e+03 
4.980690e-01 1.325251e+03 
5.159230e-01 1.281102e+03 
5.317440e-01 1.244713e+03 
5.489640e-01 1.207447e+03 
5.671990e-01 1.170583e+03 
5.838690e-01 1.139035e+03 
6.018840e-01 1.107124e+03 
6.202330e-01 1.076549e+03 
6.379250e-01 1.048733e+03 
6.545410e-01 1.023925e+03 
6.714560e-01 9.999392e+02 
6.892080e-01 9.759085e+02 
7.066010e-01 9.532678e+02 
7.240540e-01 9.315884e+02 
7.420450e-01 9.102480e+02 
7.593780e-01 8.902431e+02 
7.764720e-01 8.712769e+02 
7.942840e-01 8.522739e+02 
8.116170e-01 8.341677e+02 
8.288310e-01 8.167848e+02 
8.462240e-01 7.996674e+02 
8.631980e-01 7.834351e+02 
8.810700e-01 7.668484e+02 
8.989410e-01 7.507609e+02 
9.166330e-01 7.351891e+02 
9.345640e-01 7.197405e+02 
9.515980e-01 7.054404e+02 
9.688720e-01 6.913365e+02 
9.865640e-01 6.772119e+02 
1.031870e+00 6.425869e+02 
1.063490e+00 6.196470e+02 
1.097920e+00 5.957553e+02 
1.134370e+00 5.717568e+02 
1.167730e+00 5.507194e+02 
1.203830e+00 5.290476e+02 
1.240470e+00 5.081605e+02 
1.275790e+00 4.889012e+02 
1.309140e+00 4.716375e+02 
1.342970e+00 4.548188e+02 
1.378420e+00 4.381111e+02 
1.413200e+00 4.224156e+02 
1.448110e+00 4.074003e+02 
1.484090e+00 3.926697e+02 
1.518820e+00 3.791213e+02 
1.552880e+00 3.663602e+02 
1.588630e+00 3.536355e+02 
1.623230e+00 3.418769e+02 
1.657720e+00 3.306734e+02 
1.692450e+00 3.199411e+02 
1.726400e+00 3.098183e+02 
1.762200e+00 2.996155e+02 
1.797880e+00 2.899142e+02 
1.833270e+00 2.807083e+02 
1.869070e+00 2.717954e+02 
1.903200e+00 2.636753e+02 
1.937740e+00 2.557888e+02 
1.973190e+00 2.480250e+02 
2.007440e+00 2.408301e+02 
2.042160e+00 2.338256e+02 
2.077900e+00 2.268941e+02 
2.112390e+00 2.205112e+02 
2.146220e+00 2.144397e+02 
2.181600e+00 2.083664e+02 
2.216930e+00 2.025428e+02 
2.250760e+00 1.971649e+02 
2.286500e+00 1.916917e+02 
2.321770e+00 1.865043e+02 
2.355950e+00 1.816648e+02 
2.391280e+00 1.768288e+02 
2.426240e+00 1.722318e+02 
2.460670e+00 1.678634e+02 
2.495640e+00 1.635703e+02 
2.531080e+00 1.593967e+02 
2.566220e+00 1.553960e+02 
2.600830e+00 1.515912e+02 
2.635080e+00 1.479553e+02 
2.670340e+00 1.443278e+02 
2.705970e+00 1.408020e+02 
2.740040e+00 1.375469e+02 
2.774520e+00 1.343417e+02 
2.809730e+00 1.311856e+02 
2.844390e+00 1.281829e+02 
2.879960e+00 1.251982e+02 
2.914860e+00 1.223627e+02 
2.949410e+00 1.196455e+02 
2.984440e+00 1.169839e+02 
3.019760e+00 1.143777e+02 
3.054730e+00 1.118737e+02 
3.089030e+00 1.094975e+02 
3.124060e+00 1.071444e+02 
3.159560e+00 1.048332e+02 
3.194710e+00 1.026162e+02 
3.229010e+00 1.005162e+02 
3.263320e+00 9.846923e+01 
3.297930e+00 9.646562e+01 
3.332830e+00 9.450811e+01 
3.368040e+00 9.258858e+01 
3.403300e+00 9.072008e+01 
3.438450e+00 8.890910e+01 
3.473060e+00 8.717459e+01 
3.508440e+00 8.546023e+01 
3.543110e+00 8.382520e+01 
3.577470e+00 8.224540e+01 
3.613040e+00 8.065551e+01 
3.648120e+00 7.913574e+01 
3.682910e+00 7.766535e+01 
3.718050e+00 7.621424e+01 
3.753320e+00 7.480013e+01 
3.787980e+00 7.345288e+01 
3.822290e+00 7.215100e+01 
3.857020e+00 7.086377e+01 
3.891920e+00 6.960303e+01 
3.926650e+00 6.838094e+01 
3.961970e+00 6.716904e+01 
3.997360e+00 6.598624e+01 
4.031670e+00 6.486770e+01 
4.066330e+00 6.376836e+01 
4.101420e+00 6.268138e+01 
4.136200e+00 6.163082e+01 
4.170810e+00 6.060926e+01 
4.206250e+00 5.959110e+01 
4.241580e+00 5.860006e+01 
4.276300e+00 5.764879e+01 
4.310970e+00 5.672031e+01 
4.346120e+00 5.580156e+01 
4.380600e+00 5.492301e+01 
4.414730e+00 5.407197e+01 
4.450350e+00 5.320376e+01 
4.485320e+00 5.236985e+01 
4.519810e+00 5.156800e+01 
4.555430e+00 5.075887e+01 
4.590870e+00 4.997214e+01 
4.625480e+00 4.922229e+01 
4.659910e+00 4.849154e+01 
4.695230e+00 4.775818e+01 
4.729960e+00 4.705193e+01 
4.764450e+00 4.636483e+01 
4.799530e+00 4.568035e+01 
4.834910e+00 4.500391e+01 
4.869700e+00 4.435731e+01 
4.904370e+00 4.372639e+01 
4.939450e+00 4.310060e+01 
4.973940e+00 4.249763e+01 
5.008430e+00 4.190613e+01 
5.043810e+00 4.131132e+01 
5.078840e+00 4.073387e+01 
5.113500e+00 4.017329e+01 
5.148890e+00 3.961669e+01 
5.184210e+00 3.907186e+01 
5.219060e+00 3.854378e+01 
5.253660e+00 3.802774e+01 
5.288570e+00 3.751655e+01 
5.323420e+00 3.701773e+01 
5.358440e+00 3.652799e+01 
5.393590e+00 3.604528e+01 
5.428310e+00 3.557716e+01 
5.462800e+00 3.512041e+01 
5.497640e+00 3.466708e+01 
5.532670e+00 3.422230e+01 
5.567280e+00 3.379143e+01 
5.602000e+00 3.336658e+01 
5.637270e+00 3.294111e+01 
5.672410e+00 3.252420e+01 
5.707020e+00 3.212055e+01 
5.742040e+00 3.172197e+01 
5.777430e+00 3.132659e+01 
5.812210e+00 3.094452e+01 
5.846820e+00 3.057064e+01 
5.881610e+00 3.020097e+01 
5.916510e+00 2.983621e+01 
5.951600e+00 2.947662e+01 
5.986560e+00 2.912472e+01 
6.021830e+00 2.877544e+01 
6.056490e+00 2.843850e+01 
6.091160e+00 2.810745e+01 
6.125830e+00 2.778161e+01 
6.161090e+00 2.745543e+01 
6.195760e+00 2.713970e+01 
6.230420e+00 2.682895e+01 
6.265690e+00 2.651770e+01 
6.300950e+00 2.621280e+01 
6.335620e+00 2.591761e+01 
6.370880e+00 2.562199e+01 
6.405550e+00 2.533646e+01 
6.440220e+00 2.505550e+01 
6.475480e+00 2.477406e+01 
6.510150e+00 2.450183e+01 
6.544810e+00 2.423451e+01 
6.580080e+00 2.396652e+01 
6.614750e+00 2.370696e+01 
6.649410e+00 2.345123e+01 
6.684080e+00 2.319912e+01 
6.719340e+00 2.294646e+01 
6.754010e+00 2.270187e+01 
6.788680e+00 2.246139e+01 
6.823940e+00 2.222033e+01 
6.859800e+00 2.197871e+01 
6.894470e+00 2.174909e+01 
6.929140e+00 2.152292e+01 
6.963800e+00 2.129996e+01 
6.999070e+00 2.107625e+01 
7.033730e+00 2.085936e+01 
7.068400e+00 2.064540e+01 
7.103660e+00 2.043080e+01 
7.138330e+00 2.022323e+01 
7.173600e+00 2.001607e+01 
7.208260e+00 1.981525e+01 
7.243530e+00 1.961367e+01 
7.277600e+00 1.942106e+01 
7.312860e+00 1.922392e+01 
7.348120e+00 1.902945e+01 
7.382790e+00 1.884079e+01 
7.417460e+00 1.865554e+01 
7.452720e+00 1.847011e+01 
7.487390e+00 1.829019e+01 
7.522650e+00 1.810959e+01 
7.557320e+00 1.793424e+01 
7.591990e+00 1.776112e+01 
7.627250e+00 1.758733e+01 
7.662510e+00 1.741580e+01 
7.697180e+00 1.724972e+01 
7.731850e+00 1.708591e+01 
7.766510e+00 1.692420e+01 
7.801180e+00 1.676449e+01 
7.836440e+00 1.660403e+01 
7.871110e+00 1.644819e+01 
7.906380e+00 1.629164e+01 
7.941040e+00 1.613972e+01 
7.976310e+00 1.598728e+01 
8.011570e+00 1.583708e+01 
8.046240e+00 1.569121e+01 
8.080900e+00 1.554715e+01 
8.115570e+00 1.540486e+01 
8.150830e+00 1.526210e+01 
8.185500e+00 1.512344e+01 
8.220770e+00 1.498409e+01 
8.255430e+00 1.484879e+01 
8.290100e+00 1.471523e+01 
8.324770e+00 1.458327e+01 
8.359430e+00 1.445291e+01 
8.394700e+00 1.432183e+01 
8.429960e+00 1.419248e+01 
8.464630e+00 1.406691e+01 
8.499890e+00 1.394071e+01 
8.534560e+00 1.381807e+01 
8.569200e+00 1.369695e+01 
