# Parameters:
# omega_b = 0.023469, omega_m = 0.122756, n_s = 0.985433, h = 56.889764, w = -1.000000, sigma_8 = 0.725197
# z = 0.500000
#
# k[1/Mpc] # P(k):
8.694000e-04 1.317182e+04 
2.077466e-03 2.819201e+04 
3.285532e-03 3.971147e+04 
4.493598e-03 4.830875e+04 
5.701664e-03 5.442932e+04 
6.909730e-03 5.850707e+04 
8.117797e-03 6.101397e+04 
9.325863e-03 6.219500e+04 
1.053393e-02 6.229175e+04 
1.174199e-02 6.152652e+04 
1.295006e-02 6.004101e+04 
1.415813e-02 5.802508e+04 
1.536619e-02 5.564355e+04 
1.657426e-02 5.301523e+04 
1.778233e-02 5.033380e+04 
1.899039e-02 4.789964e+04 
2.019846e-02 4.561791e+04 
2.140652e-02 4.332942e+04 
2.261459e-02 4.108041e+04 
2.382266e-02 3.895487e+04 
2.503072e-02 3.698638e+04 
2.623879e-02 3.518192e+04 
2.744685e-02 3.354165e+04 
2.865492e-02 3.206191e+04 
2.986299e-02 3.073246e+04 
3.100100e-02 2.961050e+04 
3.220400e-02 2.854763e+04 
3.288100e-02 2.800153e+04 
3.424300e-02 2.700066e+04 
3.555100e-02 2.614144e+04 
3.686000e-02 2.536551e+04 
3.795000e-02 2.476950e+04 
3.929100e-02 2.408615e+04 
4.039800e-02 2.355037e+04 
4.164000e-02 2.297172e+04 
4.294400e-02 2.237214e+04 
4.415000e-02 2.182689e+04 
4.542900e-02 2.124121e+04 
4.660900e-02 2.070233e+04 
4.782300e-02 2.013119e+04 
4.892900e-02 1.960917e+04 
5.031200e-02 1.894885e+04 
5.155900e-02 1.834664e+04 
5.238100e-02 1.794932e+04 
5.378200e-02 1.727533e+04 
5.513400e-02 1.663068e+04 
5.627600e-02 1.609458e+04 
5.735300e-02 1.560025e+04 
5.870100e-02 1.500039e+04 
5.988700e-02 1.449386e+04 
6.113500e-02 1.398422e+04 
6.225900e-02 1.354791e+04 
6.340100e-02 1.312841e+04 
6.480200e-02 1.264639e+04 
6.601100e-02 1.226195e+04 
6.725500e-02 1.189629e+04 
6.829100e-02 1.161670e+04 
6.958600e-02 1.129368e+04 
7.071100e-02 1.103864e+04 
7.192300e-02 1.078750e+04 
7.307400e-02 1.056992e+04 
7.412300e-02 1.038765e+04 
7.550400e-02 1.016992e+04 
7.663100e-02 1.000608e+04 
7.791200e-02 9.835098e+03 
7.912700e-02 9.682991e+03 
8.027600e-02 9.544644e+03 
8.138400e-02 9.414422e+03 
8.272200e-02 9.258876e+03 
8.406100e-02 9.102388e+03 
8.534100e-02 8.947405e+03 
8.653800e-02 8.796336e+03 
8.759800e-02 8.659035e+03 
8.900300e-02 8.470627e+03 
9.009000e-02 8.319050e+03 
9.113300e-02 8.168739e+03 
9.239600e-02 7.984984e+03 
9.358000e-02 7.810047e+03 
9.496100e-02 7.603967e+03 
9.608400e-02 7.438484e+03 
9.727500e-02 7.266020e+03 
9.852600e-02 7.088936e+03 
9.973800e-02 6.923978e+03 
1.009000e-01 6.771638e+03 
1.020900e-01 6.625266e+03 
1.034000e-01 6.472476e+03 
1.046000e-01 6.340370e+03 
1.057200e-01 6.227397e+03 
1.069100e-01 6.113212e+03 
1.082500e-01 5.995797e+03 
1.093900e-01 5.903207e+03 
1.105400e-01 5.814797e+03 
1.116900e-01 5.734119e+03 
1.129600e-01 5.649047e+03 
1.142000e-01 5.572052e+03 
1.153300e-01 5.504566e+03 
1.166400e-01 5.429746e+03 
1.177800e-01 5.366510e+03 
1.190000e-01 5.300580e+03 
1.201200e-01 5.239978e+03 
1.213400e-01 5.175248e+03 
1.227100e-01 5.100659e+03 
1.238900e-01 5.037072e+03 
1.250700e-01 4.971781e+03 
1.263200e-01 4.902944e+03 
1.275500e-01 4.833920e+03 
1.287500e-01 4.766761e+03 
1.299900e-01 4.696780e+03 
1.311300e-01 4.632904e+03 
1.323500e-01 4.564570e+03 
1.335900e-01 4.496197e+03 
1.347100e-01 4.435104e+03 
1.359800e-01 4.367277e+03 
1.372100e-01 4.302908e+03 
1.384300e-01 4.240673e+03 
1.395700e-01 4.184175e+03 
1.407700e-01 4.126069e+03 
1.420300e-01 4.067483e+03 
1.432800e-01 4.010651e+03 
1.444500e-01 3.960040e+03 
1.456300e-01 3.910033e+03 
1.468900e-01 3.858870e+03 
1.480500e-01 3.813064e+03 
1.491700e-01 3.770217e+03 
1.503800e-01 3.725502e+03 
1.516400e-01 3.680066e+03 
1.528200e-01 3.639158e+03 
1.540200e-01 3.598353e+03 
1.551900e-01 3.559804e+03 
1.564300e-01 3.519843e+03 
1.576600e-01 3.481079e+03 
1.588700e-01 3.443795e+03 
1.600900e-01 3.406905e+03 
1.612700e-01 3.371811e+03 
1.625400e-01 3.334745e+03 
1.637600e-01 3.299600e+03 
1.649500e-01 3.265818e+03 
1.662200e-01 3.230356e+03 
1.674000e-01 3.197616e+03 
1.685000e-01 3.167607e+03 
1.697500e-01 3.133820e+03 
1.710300e-01 3.099586e+03 
1.722200e-01 3.068326e+03 
1.734400e-01 3.036369e+03 
1.746400e-01 3.005460e+03 
1.758700e-01 2.974225e+03 
1.770900e-01 2.943581e+03 
1.782700e-01 2.914439e+03 
1.794600e-01 2.885479e+03 
1.807000e-01 2.855770e+03 
1.819100e-01 2.827268e+03 
1.830100e-01 2.801861e+03 
1.842200e-01 2.774366e+03 
1.855000e-01 2.745781e+03 
1.867000e-01 2.719702e+03 
1.879200e-01 2.693613e+03 
1.890900e-01 2.669048e+03 
1.902800e-01 2.644764e+03 
1.915200e-01 2.619858e+03 
1.926900e-01 2.596811e+03 
1.939000e-01 2.573628e+03 
1.951700e-01 2.549679e+03 
1.963100e-01 2.528598e+03 
1.975100e-01 2.506976e+03 
1.987800e-01 2.484444e+03 
2.000100e-01 2.463023e+03 
2.012500e-01 2.441904e+03 
2.023400e-01 2.423604e+03 
2.036100e-01 2.402603e+03 
2.048900e-01 2.381828e+03 
2.060400e-01 2.363434e+03 
2.072200e-01 2.344816e+03 
2.084200e-01 2.326083e+03 
2.096900e-01 2.306545e+03 
2.109200e-01 2.287898e+03 
2.121100e-01 2.269902e+03 
2.132700e-01 2.252586e+03 
2.145200e-01 2.234186e+03 
2.157200e-01 2.216539e+03 
2.168800e-01 2.199604e+03 
2.180700e-01 2.182463e+03 
2.193400e-01 2.164250e+03 
2.206000e-01 2.146117e+03 
2.217500e-01 2.129790e+03 
2.229500e-01 2.112978e+03 
2.241400e-01 2.095986e+03 
2.253500e-01 2.078924e+03 
2.264900e-01 2.063058e+03 
2.277100e-01 2.045989e+03 
2.289900e-01 2.027981e+03 
2.301500e-01 2.011880e+03 
2.313600e-01 1.995297e+03 
2.325600e-01 1.978455e+03 
2.337700e-01 1.961695e+03 
2.350000e-01 1.944884e+03 
2.362000e-01 1.928462e+03 
2.374100e-01 1.911839e+03 
2.386500e-01 1.895030e+03 
2.399100e-01 1.878179e+03 
2.410400e-01 1.862988e+03 
2.422500e-01 1.846891e+03 
2.435000e-01 1.830479e+03 
2.447300e-01 1.814523e+03 
2.458700e-01 1.799843e+03 
2.470600e-01 1.784707e+03 
2.483300e-01 1.768762e+03 
2.495600e-01 1.753591e+03 
2.507600e-01 1.739074e+03 
2.519600e-01 1.724736e+03 
2.532200e-01 1.709871e+03 
2.543700e-01 1.696680e+03 
2.555500e-01 1.683447e+03 
2.568000e-01 1.669599e+03 
2.580100e-01 1.656360e+03 
2.592400e-01 1.643408e+03 
2.604100e-01 1.631384e+03 
2.616100e-01 1.619194e+03 
2.628400e-01 1.606847e+03 
2.640600e-01 1.595126e+03 
2.652200e-01 1.584259e+03 
2.664300e-01 1.573051e+03 
2.676500e-01 1.561879e+03 
2.688400e-01 1.551402e+03 
2.700700e-01 1.540878e+03 
2.712400e-01 1.530979e+03 
2.724800e-01 1.520603e+03 
2.736700e-01 1.510936e+03 
2.748800e-01 1.501400e+03 
2.761000e-01 1.491890e+03 
2.773200e-01 1.482483e+03 
2.785400e-01 1.473265e+03 
2.797000e-01 1.464772e+03 
2.808900e-01 1.456149e+03 
2.821400e-01 1.447189e+03 
2.833900e-01 1.438332e+03 
2.845500e-01 1.430350e+03 
2.857800e-01 1.421973e+03 
2.870300e-01 1.413551e+03 
2.882100e-01 1.405682e+03 
2.893900e-01 1.397952e+03 
2.906300e-01 1.389943e+03 
2.918900e-01 1.381891e+03 
2.930500e-01 1.374553e+03 
2.942500e-01 1.367047e+03 
2.954200e-01 1.359834e+03 
2.966500e-01 1.352327e+03 
2.978900e-01 1.344836e+03 
2.990400e-01 1.337956e+03 
3.002700e-01 1.330686e+03 
3.015100e-01 1.323438e+03 
3.026800e-01 1.316667e+03 
3.038500e-01 1.309959e+03 
3.050300e-01 1.303258e+03 
3.062600e-01 1.296354e+03 
3.075000e-01 1.289462e+03 
3.087000e-01 1.282857e+03 
3.099100e-01 1.276261e+03 
3.111200e-01 1.269734e+03 
3.123100e-01 1.263386e+03 
3.135300e-01 1.256939e+03 
3.147300e-01 1.250658e+03 
3.159900e-01 1.244126e+03 
3.171800e-01 1.238025e+03 
3.183700e-01 1.231986e+03 
3.196300e-01 1.225652e+03 
3.208400e-01 1.219627e+03 
3.220300e-01 1.213756e+03 
3.232000e-01 1.208053e+03 
3.244300e-01 1.202121e+03 
3.256700e-01 1.196195e+03 
3.269200e-01 1.190278e+03 
3.280800e-01 1.184836e+03 
3.292500e-01 1.179415e+03 
3.304800e-01 1.173772e+03 
3.317100e-01 1.168181e+03 
3.328900e-01 1.162865e+03 
3.340700e-01 1.157595e+03 
3.353600e-01 1.151908e+03 
3.365300e-01 1.146805e+03 
3.377100e-01 1.141702e+03 
3.389200e-01 1.136514e+03 
3.401600e-01 1.131245e+03 
3.413700e-01 1.126165e+03 
3.425300e-01 1.121347e+03 
3.437700e-01 1.116240e+03 
3.449800e-01 1.111301e+03 
3.461800e-01 1.106444e+03 
3.473600e-01 1.101716e+03 
3.485800e-01 1.096890e+03 
3.498100e-01 1.092065e+03 
3.510200e-01 1.087359e+03 
3.522000e-01 1.082808e+03 
3.533900e-01 1.078255e+03 
3.546400e-01 1.073542e+03 
3.558400e-01 1.069057e+03 
3.570600e-01 1.064534e+03 
3.582700e-01 1.060087e+03 
3.595000e-01 1.055603e+03 
3.607100e-01 1.051241e+03 
3.618900e-01 1.047032e+03 
3.631200e-01 1.042681e+03 
3.643200e-01 1.038470e+03 
3.655500e-01 1.034189e+03 
3.667300e-01 1.030115e+03 
3.679500e-01 1.025965e+03 
3.691900e-01 1.021780e+03 
3.703600e-01 1.017864e+03 
3.715700e-01 1.013845e+03 
3.727700e-01 1.009891e+03 
3.739900e-01 1.005907e+03 
3.752000e-01 1.001994e+03 
3.763900e-01 9.981757e+02 
3.775800e-01 9.943867e+02 
3.788200e-01 9.904696e+02 
3.800300e-01 9.866774e+02 
3.812100e-01 9.829980e+02 
3.824200e-01 9.792474e+02 
3.836100e-01 9.755870e+02 
3.848600e-01 9.717719e+02 
3.860400e-01 9.681982e+02 
3.872400e-01 9.645913e+02 
3.884600e-01 9.609826e+02 
3.896500e-01 9.575006e+02 
3.908700e-01 9.539578e+02 
3.920600e-01 9.505282e+02 
3.933100e-01 9.469530e+02 
3.945300e-01 9.434903e+02 
3.957200e-01 9.401271e+02 
3.969300e-01 9.367296e+02 
3.981700e-01 9.332741e+02 
3.993500e-01 9.300102e+02 
4.094840e-01 9.028309e+02 
4.272360e-01 8.591198e+02 
4.454600e-01 8.183106e+02 
4.630560e-01 7.822821e+02 
4.804610e-01 7.494960e+02 
4.980690e-01 7.189683e+02 
5.159230e-01 6.903959e+02 
5.317440e-01 6.669620e+02 
5.489640e-01 6.431319e+02 
5.671990e-01 6.197021e+02 
5.838690e-01 5.997888e+02 
6.018840e-01 5.797621e+02 
6.202330e-01 5.607728e+02 
6.379250e-01 5.436009e+02 
6.545410e-01 5.284674e+02 
6.714560e-01 5.139445e+02 
6.892080e-01 4.995463e+02 
7.066010e-01 4.861486e+02 
7.240540e-01 4.734371e+02 
7.420450e-01 4.610655e+02 
7.593780e-01 4.496212e+02 
7.764720e-01 4.388792e+02 
7.942840e-01 4.282154e+02 
8.116170e-01 4.181940e+02 
8.288310e-01 4.086825e+02 
8.462240e-01 3.993975e+02 
8.631980e-01 3.906818e+02 
8.810700e-01 3.818554e+02 
8.989410e-01 3.733671e+02 
9.166330e-01 3.652283e+02 
9.345640e-01 3.572186e+02 
9.515980e-01 3.498615e+02 
9.688720e-01 3.426548e+02 
9.865640e-01 3.354863e+02 
1.031870e+00 3.180785e+02 
1.063490e+00 3.066853e+02 
1.097920e+00 2.949078e+02 
1.134370e+00 2.831557e+02 
1.167730e+00 2.729104e+02 
1.203830e+00 2.624168e+02 
1.240470e+00 2.523326e+02 
1.275790e+00 2.430689e+02 
1.309140e+00 2.347783e+02 
1.342970e+00 2.267146e+02 
1.378420e+00 2.187121e+02 
1.413200e+00 2.112034e+02 
1.448110e+00 2.040221e+02 
1.484090e+00 1.969771e+02 
1.518820e+00 1.904902e+02 
1.552880e+00 1.843844e+02 
1.588630e+00 1.782844e+02 
1.623230e+00 1.726450e+02 
1.657720e+00 1.672641e+02 
1.692450e+00 1.621084e+02 
1.726400e+00 1.572381e+02 
1.762200e+00 1.523186e+02 
1.797880e+00 1.476348e+02 
1.833270e+00 1.431859e+02 
1.869070e+00 1.388695e+02 
1.903200e+00 1.349319e+02 
1.937740e+00 1.311005e+02 
1.973190e+00 1.273214e+02 
2.007440e+00 1.238125e+02 
2.042160e+00 1.203925e+02 
2.077900e+00 1.170022e+02 
2.112390e+00 1.138740e+02 
2.146220e+00 1.108923e+02 
2.181600e+00 1.079054e+02 
2.216930e+00 1.050353e+02 
2.250760e+00 1.023807e+02 
2.286500e+00 9.967452e+01 
2.321770e+00 9.710408e+01 
2.355950e+00 9.470209e+01 
2.391280e+00 9.229813e+01 
2.426240e+00 9.000854e+01 
2.460670e+00 8.782878e+01 
2.495640e+00 8.568294e+01 
2.531080e+00 8.359310e+01 
2.566220e+00 8.158581e+01 
2.600830e+00 7.967390e+01 
2.635080e+00 7.784450e+01 
2.670340e+00 7.601505e+01 
2.705970e+00 7.423418e+01 
2.740040e+00 7.258771e+01 
2.774520e+00 7.096387e+01 
2.809730e+00 6.936198e+01 
2.844390e+00 6.783575e+01 
2.879960e+00 6.631598e+01 
2.914860e+00 6.486964e+01 
2.949410e+00 6.348188e+01 
2.984440e+00 6.212008e+01 
3.019760e+00 6.078476e+01 
3.054730e+00 5.950044e+01 
3.089030e+00 5.827861e+01 
3.124060e+00 5.706747e+01 
3.159560e+00 5.587637e+01 
3.194710e+00 5.473176e+01 
3.229010e+00 5.364649e+01 
3.263320e+00 5.258658e+01 
3.297930e+00 5.154812e+01 
3.332830e+00 5.053189e+01 
3.368040e+00 4.953413e+01 
3.403300e+00 4.856189e+01 
3.438450e+00 4.761778e+01 
3.473060e+00 4.671291e+01 
3.508440e+00 4.581696e+01 
3.543110e+00 4.496194e+01 
3.577470e+00 4.413411e+01 
3.613040e+00 4.330042e+01 
3.648120e+00 4.250237e+01 
3.682910e+00 4.172959e+01 
3.718050e+00 4.096587e+01 
3.753320e+00 4.022093e+01 
3.787980e+00 3.951029e+01 
3.822290e+00 3.882298e+01 
3.857020e+00 3.814259e+01 
3.891920e+00 3.747567e+01 
3.926650e+00 3.682837e+01 
3.961970e+00 3.618602e+01 
3.997360e+00 3.555820e+01 
4.031670e+00 3.496421e+01 
4.066330e+00 3.437955e+01 
4.101420e+00 3.380136e+01 
4.136200e+00 3.324156e+01 
4.170810e+00 3.269714e+01 
4.206250e+00 3.215386e+01 
4.241580e+00 3.162489e+01 
4.276300e+00 3.111649e+01 
4.310970e+00 3.061991e+01 
4.346120e+00 3.012824e+01 
4.380600e+00 2.965763e+01 
4.414730e+00 2.920171e+01 
4.450350e+00 2.873590e+01 
4.485320e+00 2.828846e+01 
4.519810e+00 2.785773e+01 
4.555430e+00 2.742285e+01 
4.590870e+00 2.699985e+01 
4.625480e+00 2.659637e+01 
4.659910e+00 2.620316e+01 
4.695230e+00 2.580804e+01 
4.729960e+00 2.542743e+01 
4.764450e+00 2.505701e+01 
4.799530e+00 2.468774e+01 
4.834910e+00 2.432280e+01 
4.869700e+00 2.397360e+01 
4.904370e+00 2.363281e+01 
4.939450e+00 2.329468e+01 
4.973940e+00 2.296862e+01 
5.008430e+00 2.264876e+01 
5.043810e+00 2.232697e+01 
5.078840e+00 2.201449e+01 
5.113500e+00 2.171113e+01 
5.148890e+00 2.140965e+01 
5.184210e+00 2.111454e+01 
5.219060e+00 2.082846e+01 
5.253660e+00 2.054877e+01 
5.288570e+00 2.027172e+01 
5.323420e+00 2.000127e+01 
5.358440e+00 1.973564e+01 
5.393590e+00 1.947383e+01 
5.428310e+00 1.921989e+01 
5.462800e+00 1.897208e+01 
5.497640e+00 1.872614e+01 
5.532670e+00 1.848476e+01 
5.567280e+00 1.825090e+01 
5.602000e+00 1.802032e+01 
5.637270e+00 1.778936e+01 
5.672410e+00 1.756304e+01 
5.707020e+00 1.734393e+01 
5.742040e+00 1.712757e+01 
5.777430e+00 1.691296e+01 
5.812210e+00 1.670558e+01 
5.846820e+00 1.650260e+01 
5.881610e+00 1.630192e+01 
5.916510e+00 1.610389e+01 
5.951600e+00 1.590871e+01 
5.986560e+00 1.571772e+01 
6.021830e+00 1.552816e+01 
6.056490e+00 1.534532e+01 
6.091160e+00 1.516568e+01 
6.125830e+00 1.498888e+01 
6.161090e+00 1.481193e+01 
6.195760e+00 1.464069e+01 
6.230420e+00 1.447216e+01 
6.265690e+00 1.430336e+01 
6.300950e+00 1.413807e+01 
6.335620e+00 1.397804e+01 
6.370880e+00 1.381778e+01 
6.405550e+00 1.366308e+01 
6.440220e+00 1.351090e+01 
6.475480e+00 1.335846e+01 
6.510150e+00 1.321105e+01 
6.544810e+00 1.306634e+01 
6.580080e+00 1.292128e+01 
6.614750e+00 1.278079e+01 
6.649410e+00 1.264245e+01 
6.684080e+00 1.250609e+01 
6.719340e+00 1.236943e+01 
6.754010e+00 1.223718e+01 
6.788680e+00 1.210725e+01 
6.823940e+00 1.197699e+01 
6.859800e+00 1.184644e+01 
6.894470e+00 1.172248e+01 
6.929140e+00 1.160040e+01 
6.963800e+00 1.148006e+01 
6.999070e+00 1.135933e+01 
7.033730e+00 1.124242e+01 
7.068400e+00 1.112709e+01 
7.103660e+00 1.101141e+01 
7.138330e+00 1.089957e+01 
7.173600e+00 1.078801e+01 
7.208260e+00 1.067988e+01 
7.243530e+00 1.057133e+01 
7.277600e+00 1.046768e+01 
7.312860e+00 1.036165e+01 
7.348120e+00 1.025706e+01 
7.382790e+00 1.015559e+01 
7.417460e+00 1.005607e+01 
7.452720e+00 9.956491e+00 
7.487390e+00 9.859868e+00 
7.522650e+00 9.762883e+00 
7.557320e+00 9.668814e+00 
7.591990e+00 9.575972e+00 
7.627250e+00 9.482769e+00 
7.662510e+00 9.390773e+00 
7.697180e+00 9.301803e+00 
7.731850e+00 9.214082e+00 
7.766510e+00 9.127488e+00 
7.801180e+00 9.041954e+00 
7.836440e+00 8.956098e+00 
7.871110e+00 8.872762e+00 
7.906380e+00 8.789042e+00 
7.941040e+00 8.707792e+00 
7.976310e+00 8.626334e+00 
8.011570e+00 8.546145e+00 
8.046240e+00 8.468265e+00 
8.080900e+00 8.391351e+00 
8.115570e+00 8.315396e+00 
8.150830e+00 8.239287e+00 
8.185500e+00 8.165355e+00 
8.220770e+00 8.091047e+00 
8.255430e+00 8.018900e+00 
8.290100e+00 7.947803e+00 
8.324770e+00 7.877569e+00 
8.359430e+00 7.808179e+00 
8.394700e+00 7.738400e+00 
8.429960e+00 7.669588e+00 
8.464630e+00 7.602840e+00 
8.499890e+00 7.535746e+00 
8.534560e+00 7.470541e+00 
8.569200e+00 7.406138e+00 
