# Parameters:
# omega_b = 0.022886, omega_m = 0.150315, n_s = 0.938189, h = 69.409449, w = -1.000000, sigma_8 = 0.816535
# z = 0.500000
#
# k[1/Mpc] # P(k):
8.694000e-04 8.762416e+03 
2.077466e-03 1.838939e+04 
3.285532e-03 2.587726e+04 
4.493598e-03 3.168055e+04 
5.701664e-03 3.603301e+04 
6.909730e-03 3.917377e+04 
8.117797e-03 4.136865e+04 
9.325863e-03 4.275200e+04 
1.053393e-02 4.345463e+04 
1.174199e-02 4.359569e+04 
1.295006e-02 4.325236e+04 
1.415813e-02 4.253169e+04 
1.536619e-02 4.152198e+04 
1.657426e-02 4.028077e+04 
1.778233e-02 3.883288e+04 
1.899039e-02 3.723496e+04 
2.019846e-02 3.559161e+04 
2.140652e-02 3.398989e+04 
2.261459e-02 3.243789e+04 
2.382266e-02 3.095050e+04 
2.503072e-02 2.954629e+04 
2.623879e-02 2.823440e+04 
2.744685e-02 2.701773e+04 
2.865492e-02 2.590217e+04 
2.986299e-02 2.488568e+04 
3.100100e-02 2.401718e+04 
3.220400e-02 2.318779e+04 
3.288100e-02 2.276021e+04 
3.424300e-02 2.197732e+04 
3.555100e-02 2.131008e+04 
3.686000e-02 2.071593e+04 
3.795000e-02 2.026755e+04 
3.929100e-02 1.976730e+04 
4.039800e-02 1.938505e+04 
4.164000e-02 1.898062e+04 
4.294400e-02 1.857151e+04 
4.415000e-02 1.820256e+04 
4.542900e-02 1.780687e+04 
4.660900e-02 1.744031e+04 
4.782300e-02 1.704423e+04 
4.892900e-02 1.667535e+04 
5.031200e-02 1.619655e+04 
5.155900e-02 1.574628e+04 
5.238100e-02 1.544225e+04 
5.378200e-02 1.491466e+04 
5.513400e-02 1.439533e+04 
5.627600e-02 1.395333e+04 
5.735300e-02 1.353873e+04 
5.870100e-02 1.302754e+04 
5.988700e-02 1.259028e+04 
6.113500e-02 1.214585e+04 
6.225900e-02 1.176235e+04 
6.340100e-02 1.139177e+04 
6.480200e-02 1.096467e+04 
6.601100e-02 1.062340e+04 
6.725500e-02 1.029889e+04 
6.829100e-02 1.005109e+04 
6.958600e-02 9.765323e+03 
7.071100e-02 9.540366e+03 
7.192300e-02 9.319543e+03 
7.307400e-02 9.128963e+03 
7.412300e-02 8.969973e+03 
7.550400e-02 8.781264e+03 
7.663100e-02 8.640192e+03 
7.791200e-02 8.494703e+03 
7.912700e-02 8.367264e+03 
8.027600e-02 8.253137e+03 
8.138400e-02 8.147386e+03 
8.272200e-02 8.023518e+03 
8.406100e-02 7.901490e+03 
8.534100e-02 7.783399e+03 
8.653800e-02 7.670129e+03 
8.759800e-02 7.567998e+03 
8.900300e-02 7.428692e+03 
9.009000e-02 7.316798e+03 
9.113300e-02 7.205288e+03 
9.239600e-02 7.068086e+03 
9.358000e-02 6.935948e+03 
9.496100e-02 6.776996e+03 
9.608400e-02 6.646969e+03 
9.727500e-02 6.509438e+03 
9.852600e-02 6.362688e+03 
9.973800e-02 6.223231e+03 
1.009000e-01 6.092151e+03 
1.020900e-01 5.960631e+03 
1.034000e-01 5.820913e+03 
1.046000e-01 5.697564e+03 
1.057200e-01 5.588452e+03 
1.069100e-01 5.477088e+03 
1.082500e-01 5.359775e+03 
1.093900e-01 5.266255e+03 
1.105400e-01 5.176359e+03 
1.116900e-01 5.094053e+03 
1.129600e-01 5.007468e+03 
1.142000e-01 4.930166e+03 
1.153300e-01 4.863416e+03 
1.166400e-01 4.790974e+03 
1.177800e-01 4.731965e+03 
1.190000e-01 4.671482e+03 
1.201200e-01 4.618921e+03 
1.213400e-01 4.563310e+03 
1.227100e-01 4.503176e+03 
1.238900e-01 4.452552e+03 
1.250700e-01 4.402536e+03 
1.263200e-01 4.350256e+03 
1.275500e-01 4.298828e+03 
1.287500e-01 4.248856e+03 
1.299900e-01 4.196888e+03 
1.311300e-01 4.149023e+03 
1.323500e-01 4.097188e+03 
1.335900e-01 4.044461e+03 
1.347100e-01 3.996235e+03 
1.359800e-01 3.941768e+03 
1.372100e-01 3.888260e+03 
1.384300e-01 3.835695e+03 
1.395700e-01 3.786028e+03 
1.407700e-01 3.734691e+03 
1.420300e-01 3.680384e+03 
1.432800e-01 3.627711e+03 
1.444500e-01 3.578772e+03 
1.456300e-01 3.530436e+03 
1.468900e-01 3.480128e+03 
1.480500e-01 3.434845e+03 
1.491700e-01 3.392416e+03 
1.503800e-01 3.348044e+03 
1.516400e-01 3.303100e+03 
1.528200e-01 3.263197e+03 
1.540200e-01 3.223408e+03 
1.551900e-01 3.186823e+03 
1.564300e-01 3.149151e+03 
1.576600e-01 3.113269e+03 
1.588700e-01 3.079552e+03 
1.600900e-01 3.046262e+03 
1.612700e-01 3.015884e+03 
1.625400e-01 2.983796e+03 
1.637600e-01 2.953959e+03 
1.649500e-01 2.925618e+03 
1.662200e-01 2.895934e+03 
1.674000e-01 2.868926e+03 
1.685000e-01 2.844167e+03 
1.697500e-01 2.816272e+03 
1.710300e-01 2.787988e+03 
1.722200e-01 2.762157e+03 
1.734400e-01 2.735375e+03 
1.746400e-01 2.709451e+03 
1.758700e-01 2.683055e+03 
1.770900e-01 2.656758e+03 
1.782700e-01 2.631747e+03 
1.794600e-01 2.606518e+03 
1.807000e-01 2.580385e+03 
1.819100e-01 2.555311e+03 
1.830100e-01 2.532512e+03 
1.842200e-01 2.507763e+03 
1.855000e-01 2.482013e+03 
1.867000e-01 2.458110e+03 
1.879200e-01 2.434200e+03 
1.890900e-01 2.411647e+03 
1.902800e-01 2.389142e+03 
1.915200e-01 2.366063e+03 
1.926900e-01 2.344685e+03 
1.939000e-01 2.323103e+03 
1.951700e-01 2.300809e+03 
1.963100e-01 2.281194e+03 
1.975100e-01 2.261098e+03 
1.987800e-01 2.240156e+03 
2.000100e-01 2.220288e+03 
2.012500e-01 2.200793e+03 
2.023400e-01 2.183900e+03 
2.036100e-01 2.164558e+03 
2.048900e-01 2.145585e+03 
2.060400e-01 2.128787e+03 
2.072200e-01 2.111804e+03 
2.084200e-01 2.094939e+03 
2.096900e-01 2.077350e+03 
2.109200e-01 2.060564e+03 
2.121100e-01 2.044630e+03 
2.132700e-01 2.029313e+03 
2.145200e-01 2.013036e+03 
2.157200e-01 1.997658e+03 
2.168800e-01 1.983005e+03 
2.180700e-01 1.968173e+03 
2.193400e-01 1.952565e+03 
2.206000e-01 1.937305e+03 
2.217500e-01 1.923563e+03 
2.229500e-01 1.909410e+03 
2.241400e-01 1.895588e+03 
2.253500e-01 1.881718e+03 
2.264900e-01 1.868818e+03 
2.277100e-01 1.855203e+03 
2.289900e-01 1.841126e+03 
2.301500e-01 1.828535e+03 
2.313600e-01 1.815568e+03 
2.325600e-01 1.802941e+03 
2.337700e-01 1.790371e+03 
2.350000e-01 1.777756e+03 
2.362000e-01 1.765644e+03 
2.374100e-01 1.753633e+03 
2.386500e-01 1.741478e+03 
2.399100e-01 1.729285e+03 
2.410400e-01 1.718561e+03 
2.422500e-01 1.707222e+03 
2.435000e-01 1.695654e+03 
2.447300e-01 1.684426e+03 
2.458700e-01 1.674197e+03 
2.470600e-01 1.663643e+03 
2.483300e-01 1.652517e+03 
2.495600e-01 1.641899e+03 
2.507600e-01 1.631698e+03 
2.519600e-01 1.621617e+03 
2.532200e-01 1.611157e+03 
2.543700e-01 1.601733e+03 
2.555500e-01 1.592178e+03 
2.568000e-01 1.582174e+03 
2.580100e-01 1.572603e+03 
2.592400e-01 1.562986e+03 
2.604100e-01 1.553942e+03 
2.616100e-01 1.544769e+03 
2.628400e-01 1.535473e+03 
2.640600e-01 1.526344e+03 
2.652200e-01 1.517753e+03 
2.664300e-01 1.508891e+03 
2.676500e-01 1.500054e+03 
2.688400e-01 1.491515e+03 
2.700700e-01 1.482776e+03 
2.712400e-01 1.474554e+03 
2.724800e-01 1.465935e+03 
2.736700e-01 1.457729e+03 
2.748800e-01 1.449451e+03 
2.761000e-01 1.441195e+03 
2.773200e-01 1.433027e+03 
2.785400e-01 1.424938e+03 
2.797000e-01 1.417307e+03 
2.808900e-01 1.409559e+03 
2.821400e-01 1.401507e+03 
2.833900e-01 1.393540e+03 
2.845500e-01 1.386196e+03 
2.857800e-01 1.378487e+03 
2.870300e-01 1.370737e+03 
2.882100e-01 1.363496e+03 
2.893900e-01 1.356311e+03 
2.906300e-01 1.348830e+03 
2.918900e-01 1.341309e+03 
2.930500e-01 1.334454e+03 
2.942500e-01 1.327428e+03 
2.954200e-01 1.320632e+03 
2.966500e-01 1.313559e+03 
2.978900e-01 1.306500e+03 
2.990400e-01 1.300018e+03 
3.002700e-01 1.293147e+03 
3.015100e-01 1.286287e+03 
3.026800e-01 1.279877e+03 
3.038500e-01 1.273527e+03 
3.050300e-01 1.267184e+03 
3.062600e-01 1.260632e+03 
3.075000e-01 1.254092e+03 
3.087000e-01 1.247824e+03 
3.099100e-01 1.241564e+03 
3.111200e-01 1.235366e+03 
3.123100e-01 1.229331e+03 
3.135300e-01 1.223203e+03 
3.147300e-01 1.217232e+03 
3.159900e-01 1.211022e+03 
3.171800e-01 1.205217e+03 
3.183700e-01 1.199469e+03 
3.196300e-01 1.193440e+03 
3.208400e-01 1.187705e+03 
3.220300e-01 1.182117e+03 
3.232000e-01 1.176684e+03 
3.244300e-01 1.171030e+03 
3.256700e-01 1.165383e+03 
3.269200e-01 1.159744e+03 
3.280800e-01 1.154558e+03 
3.292500e-01 1.149386e+03 
3.304800e-01 1.144002e+03 
3.317100e-01 1.138667e+03 
3.328900e-01 1.133594e+03 
3.340700e-01 1.128565e+03 
3.353600e-01 1.123134e+03 
3.365300e-01 1.118259e+03 
3.377100e-01 1.113384e+03 
3.389200e-01 1.108429e+03 
3.401600e-01 1.103395e+03 
3.413700e-01 1.098539e+03 
3.425300e-01 1.093932e+03 
3.437700e-01 1.089049e+03 
3.449800e-01 1.084325e+03 
3.461800e-01 1.079680e+03 
3.473600e-01 1.075158e+03 
3.485800e-01 1.070539e+03 
3.498100e-01 1.065922e+03 
3.510200e-01 1.061419e+03 
3.522000e-01 1.057064e+03 
3.533900e-01 1.052708e+03 
3.546400e-01 1.048193e+03 
3.558400e-01 1.043898e+03 
3.570600e-01 1.039566e+03 
3.582700e-01 1.035306e+03 
3.595000e-01 1.031012e+03 
3.607100e-01 1.026833e+03 
3.618900e-01 1.022800e+03 
3.631200e-01 1.018630e+03 
3.643200e-01 1.014595e+03 
3.655500e-01 1.010492e+03 
3.667300e-01 1.006588e+03 
3.679500e-01 1.002610e+03 
3.691900e-01 9.985991e+02 
3.703600e-01 9.948451e+02 
3.715700e-01 9.909932e+02 
3.727700e-01 9.872033e+02 
3.739900e-01 9.833841e+02 
3.752000e-01 9.796324e+02 
3.763900e-01 9.759715e+02 
3.775800e-01 9.723388e+02 
3.788200e-01 9.685833e+02 
3.800300e-01 9.649475e+02 
3.812100e-01 9.614194e+02 
3.824200e-01 9.578226e+02 
3.836100e-01 9.543123e+02 
3.848600e-01 9.506537e+02 
3.860400e-01 9.472266e+02 
3.872400e-01 9.437677e+02 
3.884600e-01 9.403080e+02 
3.896500e-01 9.369702e+02 
3.908700e-01 9.335742e+02 
3.920600e-01 9.302866e+02 
3.933100e-01 9.268595e+02 
3.945300e-01 9.235404e+02 
3.957200e-01 9.203168e+02 
3.969300e-01 9.170605e+02 
3.981700e-01 9.137486e+02 
3.993500e-01 9.106204e+02 
4.094840e-01 8.845707e+02 
4.272360e-01 8.426992e+02 
4.454600e-01 8.036107e+02 
4.630560e-01 7.690993e+02 
4.804610e-01 7.376772e+02 
4.980690e-01 7.084006e+02 
5.159230e-01 6.809700e+02 
5.317440e-01 6.584520e+02 
5.489640e-01 6.355282e+02 
5.671990e-01 6.129626e+02 
5.838690e-01 5.937724e+02 
6.018840e-01 5.744579e+02 
6.202330e-01 5.561385e+02 
6.379250e-01 5.395636e+02 
6.545410e-01 5.249557e+02 
6.714560e-01 5.109367e+02 
6.892080e-01 4.970407e+02 
7.066010e-01 4.841136e+02 
7.240540e-01 4.718517e+02 
7.420450e-01 4.599255e+02 
7.593780e-01 4.488947e+02 
7.764720e-01 4.385458e+02 
7.942840e-01 4.282751e+02 
8.116170e-01 4.186242e+02 
8.288310e-01 4.094708e+02 
8.462240e-01 4.005349e+02 
8.631980e-01 3.921478e+02 
8.810700e-01 3.836540e+02 
8.989410e-01 3.754864e+02 
9.166330e-01 3.676544e+02 
9.345640e-01 3.599423e+02 
9.515980e-01 3.528562e+02 
9.688720e-01 3.459139e+02 
9.865640e-01 3.390048e+02 
1.031870e+00 3.222093e+02 
1.063490e+00 3.111998e+02 
1.097920e+00 2.998025e+02 
1.134370e+00 2.884103e+02 
1.167730e+00 2.784591e+02 
1.203830e+00 2.682479e+02 
1.240470e+00 2.584139e+02 
1.275790e+00 2.493598e+02 
1.309140e+00 2.412422e+02 
1.342970e+00 2.333271e+02 
1.378420e+00 2.254585e+02 
1.413200e+00 2.180599e+02 
1.448110e+00 2.109681e+02 
1.484090e+00 2.039986e+02 
1.518820e+00 1.975662e+02 
1.552880e+00 1.914991e+02 
1.588630e+00 1.854265e+02 
1.623230e+00 1.798028e+02 
1.657720e+00 1.744267e+02 
1.692450e+00 1.692679e+02 
1.726400e+00 1.643840e+02 
1.762200e+00 1.594412e+02 
1.797880e+00 1.547277e+02 
1.833270e+00 1.502438e+02 
1.869070e+00 1.458854e+02 
1.903200e+00 1.419037e+02 
1.937740e+00 1.380234e+02 
1.973190e+00 1.341899e+02 
2.007440e+00 1.306254e+02 
2.042160e+00 1.271462e+02 
2.077900e+00 1.236921e+02 
2.112390e+00 1.205013e+02 
2.146220e+00 1.174544e+02 
2.181600e+00 1.143993e+02 
2.216930e+00 1.114596e+02 
2.250760e+00 1.087369e+02 
2.286500e+00 1.059579e+02 
2.321770e+00 1.033152e+02 
2.355950e+00 1.008431e+02 
2.391280e+00 9.836513e+01 
2.426240e+00 9.600269e+01 
2.460670e+00 9.375122e+01 
2.495640e+00 9.153232e+01 
2.531080e+00 8.936909e+01 
2.566220e+00 8.728888e+01 
2.600830e+00 8.530554e+01 
2.635080e+00 8.340605e+01 
2.670340e+00 8.150407e+01 
2.705970e+00 7.965102e+01 
2.740040e+00 7.793641e+01 
2.774520e+00 7.624352e+01 
2.809730e+00 7.457204e+01 
2.844390e+00 7.297831e+01 
2.879960e+00 7.138978e+01 
2.914860e+00 6.987653e+01 
2.949410e+00 6.842358e+01 
2.984440e+00 6.699658e+01 
3.019760e+00 6.559599e+01 
3.054730e+00 6.424793e+01 
3.089030e+00 6.296438e+01 
3.124060e+00 6.169119e+01 
3.159560e+00 6.043801e+01 
3.194710e+00 5.923283e+01 
3.229010e+00 5.808957e+01 
3.263320e+00 5.697178e+01 
3.297930e+00 5.587608e+01 
3.332830e+00 5.480312e+01 
3.368040e+00 5.374889e+01 
3.403300e+00 5.272101e+01 
3.438450e+00 5.172203e+01 
3.473060e+00 5.076418e+01 
3.508440e+00 4.981495e+01 
3.543110e+00 4.890875e+01 
3.577470e+00 4.803068e+01 
3.613040e+00 4.714603e+01 
3.648120e+00 4.629861e+01 
3.682910e+00 4.547758e+01 
3.718050e+00 4.466557e+01 
3.753320e+00 4.387320e+01 
3.787980e+00 4.311697e+01 
3.822290e+00 4.238518e+01 
3.857020e+00 4.166025e+01 
3.891920e+00 4.094937e+01 
3.926650e+00 4.025896e+01 
3.961970e+00 3.957357e+01 
3.997360e+00 3.890330e+01 
4.031670e+00 3.826894e+01 
4.066330e+00 3.764419e+01 
4.101420e+00 3.702617e+01 
4.136200e+00 3.642741e+01 
4.170810e+00 3.584497e+01 
4.206250e+00 3.526332e+01 
4.241580e+00 3.469681e+01 
4.276300e+00 3.415207e+01 
4.310970e+00 3.361979e+01 
4.346120e+00 3.309258e+01 
4.380600e+00 3.258774e+01 
4.414730e+00 3.209852e+01 
4.450350e+00 3.159832e+01 
4.485320e+00 3.111775e+01 
4.519810e+00 3.065492e+01 
4.555430e+00 3.018749e+01 
4.590870e+00 2.973268e+01 
4.625480e+00 2.929866e+01 
4.659910e+00 2.887558e+01 
4.695230e+00 2.845021e+01 
4.729960e+00 2.804034e+01 
4.764450e+00 2.764128e+01 
4.799530e+00 2.724327e+01 
4.834910e+00 2.684984e+01 
4.869700e+00 2.647325e+01 
4.904370e+00 2.610564e+01 
4.939450e+00 2.574079e+01 
4.973940e+00 2.538881e+01 
5.008430e+00 2.504345e+01 
5.043810e+00 2.469582e+01 
5.078840e+00 2.435810e+01 
5.113500e+00 2.403019e+01 
5.148890e+00 2.370419e+01 
5.184210e+00 2.338501e+01 
5.219060e+00 2.307549e+01 
5.253660e+00 2.277273e+01 
5.288570e+00 2.247275e+01 
5.323420e+00 2.217985e+01 
5.358440e+00 2.189209e+01 
5.393590e+00 2.160841e+01 
5.428310e+00 2.133311e+01 
5.462800e+00 2.106437e+01 
5.497640e+00 2.079760e+01 
5.532670e+00 2.053569e+01 
5.567280e+00 2.028189e+01 
5.602000e+00 2.003160e+01 
5.637270e+00 1.978074e+01 
5.672410e+00 1.953484e+01 
5.707020e+00 1.929673e+01 
5.742040e+00 1.906151e+01 
5.777430e+00 1.882814e+01 
5.812210e+00 1.860259e+01 
5.846820e+00 1.838173e+01 
5.881610e+00 1.816330e+01 
5.916510e+00 1.794774e+01 
5.951600e+00 1.773517e+01 
5.986560e+00 1.752711e+01 
6.021830e+00 1.732057e+01 
6.056490e+00 1.712126e+01 
6.091160e+00 1.692540e+01 
6.125830e+00 1.673259e+01 
6.161090e+00 1.653954e+01 
6.195760e+00 1.635263e+01 
6.230420e+00 1.616864e+01 
6.265690e+00 1.598433e+01 
6.300950e+00 1.580375e+01 
6.335620e+00 1.562890e+01 
6.370880e+00 1.545377e+01 
6.405550e+00 1.528462e+01 
6.440220e+00 1.511815e+01 
6.475480e+00 1.495138e+01 
6.510150e+00 1.479006e+01 
6.544810e+00 1.463164e+01 
6.580080e+00 1.447280e+01 
6.614750e+00 1.431894e+01 
6.649410e+00 1.416734e+01 
6.684080e+00 1.401787e+01 
6.719340e+00 1.386805e+01 
6.754010e+00 1.372302e+01 
6.788680e+00 1.358046e+01 
6.823940e+00 1.343752e+01 
6.859800e+00 1.329424e+01 
6.894470e+00 1.315810e+01 
6.929140e+00 1.302400e+01 
6.963800e+00 1.289178e+01 
6.999070e+00 1.275910e+01 
7.033730e+00 1.263052e+01 
7.068400e+00 1.250365e+01 
7.103660e+00 1.237638e+01 
7.138330e+00 1.225329e+01 
7.173600e+00 1.213047e+01 
7.208260e+00 1.201140e+01 
7.243530e+00 1.189185e+01 
7.277600e+00 1.177764e+01 
7.312860e+00 1.166075e+01 
7.348120e+00 1.154543e+01 
7.382790e+00 1.143353e+01 
7.417460e+00 1.132370e+01 
7.452720e+00 1.121378e+01 
7.487390e+00 1.110710e+01 
7.522650e+00 1.100001e+01 
7.557320e+00 1.089607e+01 
7.591990e+00 1.079346e+01 
7.627250e+00 1.069043e+01 
7.662510e+00 1.058873e+01 
7.697180e+00 1.049030e+01 
7.731850e+00 1.039321e+01 
7.766510e+00 1.029736e+01 
7.801180e+00 1.020267e+01 
7.836440e+00 1.010757e+01 
7.871110e+00 1.001521e+01 
7.906380e+00 9.922425e+00 
7.941040e+00 9.832365e+00 
7.976310e+00 9.742026e+00 
8.011570e+00 9.653041e+00 
8.046240e+00 9.566609e+00 
8.080900e+00 9.481239e+00 
8.115570e+00 9.396910e+00 
8.150830e+00 9.312342e+00 
8.185500e+00 9.230185e+00 
8.220770e+00 9.147602e+00 
8.255430e+00 9.067411e+00 
8.290100e+00 8.988305e+00 
8.324770e+00 8.910142e+00 
8.359430e+00 8.832911e+00 
8.394700e+00 8.755240e+00 
8.429960e+00 8.678606e+00 
8.464630e+00 8.604234e+00 
8.499890e+00 8.529471e+00 
8.534560e+00 8.456804e+00 
8.569200e+00 8.385026e+00 
