# Parameters:
# omega_b = 0.021689, omega_m = 0.141220, n_s = 0.900394, h = 74.606299, w = -1.000000, sigma_8 = 0.709449
# z = 0.500000
#
# k[1/Mpc] # P(k):
8.694000e-04 8.760003e+03 
2.077466e-03 1.767054e+04 
3.285532e-03 2.431177e+04 
4.493598e-03 2.923524e+04 
5.701664e-03 3.277209e+04 
6.909730e-03 3.518391e+04 
8.117797e-03 3.673519e+04 
9.325863e-03 3.756426e+04 
1.053393e-02 3.780430e+04 
1.174199e-02 3.757521e+04 
1.295006e-02 3.695205e+04 
1.415813e-02 3.603319e+04 
1.536619e-02 3.489881e+04 
1.657426e-02 3.360391e+04 
1.778233e-02 3.218279e+04 
1.899039e-02 3.066561e+04 
2.019846e-02 2.911160e+04 
2.140652e-02 2.760354e+04 
2.261459e-02 2.616289e+04 
2.382266e-02 2.480364e+04 
2.503072e-02 2.353847e+04 
2.623879e-02 2.237219e+04 
2.744685e-02 2.130582e+04 
2.865492e-02 2.034012e+04 
2.986299e-02 1.947057e+04 
3.100100e-02 1.873702e+04 
3.220400e-02 1.804478e+04 
3.288100e-02 1.769181e+04 
3.424300e-02 1.705219e+04 
3.555100e-02 1.651400e+04 
3.686000e-02 1.604066e+04 
3.795000e-02 1.568687e+04 
3.929100e-02 1.529560e+04 
4.039800e-02 1.499777e+04 
4.164000e-02 1.468263e+04 
4.294400e-02 1.436159e+04 
4.415000e-02 1.406955e+04 
4.542900e-02 1.375139e+04 
4.660900e-02 1.345304e+04 
4.782300e-02 1.312481e+04 
4.892900e-02 1.281589e+04 
5.031200e-02 1.241055e+04 
5.155900e-02 1.202602e+04 
5.238100e-02 1.176535e+04 
5.378200e-02 1.131211e+04 
5.513400e-02 1.086620e+04 
5.627600e-02 1.048797e+04 
5.735300e-02 1.013502e+04 
5.870100e-02 9.703173e+03 
5.988700e-02 9.337347e+03 
6.113500e-02 8.969585e+03 
6.225900e-02 8.656297e+03 
6.340100e-02 8.357668e+03 
6.480200e-02 8.018329e+03 
6.601100e-02 7.752402e+03 
6.725500e-02 7.503936e+03 
6.829100e-02 7.317899e+03 
6.958600e-02 7.106474e+03 
7.071100e-02 6.943172e+03 
7.192300e-02 6.785310e+03 
7.307400e-02 6.650962e+03 
7.412300e-02 6.540065e+03 
7.550400e-02 6.409635e+03 
7.663100e-02 6.312435e+03 
7.791200e-02 6.211862e+03 
7.912700e-02 6.122558e+03 
8.027600e-02 6.041257e+03 
8.138400e-02 5.964574e+03 
8.272200e-02 5.872696e+03 
8.406100e-02 5.780000e+03 
8.534100e-02 5.688011e+03 
8.653800e-02 5.598294e+03 
8.759800e-02 5.516710e+03 
8.900300e-02 5.404629e+03 
9.009000e-02 5.314239e+03 
9.113300e-02 5.224103e+03 
9.239600e-02 5.113283e+03 
9.358000e-02 5.006788e+03 
9.496100e-02 4.879166e+03 
9.608400e-02 4.775139e+03 
9.727500e-02 4.665446e+03 
9.852600e-02 4.549066e+03 
9.973800e-02 4.438889e+03 
1.009000e-01 4.335693e+03 
1.020900e-01 4.232964e+03 
1.034000e-01 4.124362e+03 
1.046000e-01 4.029019e+03 
1.057200e-01 3.945642e+03 
1.069100e-01 3.860980e+03 
1.082500e-01 3.772979e+03 
1.093900e-01 3.703658e+03 
1.105400e-01 3.637524e+03 
1.116900e-01 3.578148e+03 
1.129600e-01 3.516102e+03 
1.142000e-01 3.461739e+03 
1.153300e-01 3.415134e+03 
1.166400e-01 3.365088e+03 
1.177800e-01 3.324581e+03 
1.190000e-01 3.283189e+03 
1.201200e-01 3.247094e+03 
1.213400e-01 3.208883e+03 
1.227100e-01 3.166829e+03 
1.238900e-01 3.131204e+03 
1.250700e-01 3.095263e+03 
1.263200e-01 3.057350e+03 
1.275500e-01 3.019296e+03 
1.287500e-01 2.981927e+03 
1.299900e-01 2.942461e+03 
1.311300e-01 2.905816e+03 
1.323500e-01 2.865701e+03 
1.335900e-01 2.824718e+03 
1.347100e-01 2.787001e+03 
1.359800e-01 2.744366e+03 
1.372100e-01 2.702391e+03 
1.384300e-01 2.661211e+03 
1.395700e-01 2.622389e+03 
1.407700e-01 2.582319e+03 
1.420300e-01 2.540230e+03 
1.432800e-01 2.499445e+03 
1.444500e-01 2.461969e+03 
1.456300e-01 2.424984e+03 
1.468900e-01 2.386906e+03 
1.480500e-01 2.352770e+03 
1.491700e-01 2.321018e+03 
1.503800e-01 2.288104e+03 
1.516400e-01 2.254879e+03 
1.528200e-01 2.225807e+03 
1.540200e-01 2.196829e+03 
1.551900e-01 2.170544e+03 
1.564300e-01 2.143574e+03 
1.576600e-01 2.118037e+03 
1.588700e-01 2.094226e+03 
1.600900e-01 2.070727e+03 
1.612700e-01 2.049441e+03 
1.625400e-01 2.026958e+03 
1.637600e-01 2.006040e+03 
1.649500e-01 1.986163e+03 
1.662200e-01 1.965315e+03 
1.674000e-01 1.946178e+03 
1.685000e-01 1.928636e+03 
1.697500e-01 1.908721e+03 
1.710300e-01 1.888380e+03 
1.722200e-01 1.869805e+03 
1.734400e-01 1.850223e+03 
1.746400e-01 1.831260e+03 
1.758700e-01 1.811867e+03 
1.770900e-01 1.792376e+03 
1.782700e-01 1.773844e+03 
1.794600e-01 1.755048e+03 
1.807000e-01 1.735515e+03 
1.819100e-01 1.716781e+03 
1.830100e-01 1.699706e+03 
1.842200e-01 1.681171e+03 
1.855000e-01 1.661896e+03 
1.867000e-01 1.644045e+03 
1.879200e-01 1.626197e+03 
1.890900e-01 1.609385e+03 
1.902800e-01 1.592700e+03 
1.915200e-01 1.575597e+03 
1.926900e-01 1.559792e+03 
1.939000e-01 1.543949e+03 
1.951700e-01 1.527589e+03 
1.963100e-01 1.513236e+03 
1.975100e-01 1.498631e+03 
1.987800e-01 1.483416e+03 
2.000100e-01 1.469017e+03 
2.012500e-01 1.454966e+03 
2.023400e-01 1.442794e+03 
2.036100e-01 1.428874e+03 
2.048900e-01 1.415282e+03 
2.060400e-01 1.403250e+03 
2.072200e-01 1.391091e+03 
2.084200e-01 1.379054e+03 
2.096900e-01 1.366502e+03 
2.109200e-01 1.354524e+03 
2.121100e-01 1.343174e+03 
2.132700e-01 1.332266e+03 
2.145200e-01 1.320676e+03 
2.157200e-01 1.309739e+03 
2.168800e-01 1.299324e+03 
2.180700e-01 1.288783e+03 
2.193400e-01 1.277709e+03 
2.206000e-01 1.266915e+03 
2.217500e-01 1.257197e+03 
2.229500e-01 1.247189e+03 
2.241400e-01 1.237482e+03 
2.253500e-01 1.227746e+03 
2.264900e-01 1.218690e+03 
2.277100e-01 1.209188e+03 
2.289900e-01 1.199425e+03 
2.301500e-01 1.190693e+03 
2.313600e-01 1.181702e+03 
2.325600e-01 1.173074e+03 
2.337700e-01 1.164486e+03 
2.350000e-01 1.155868e+03 
2.362000e-01 1.147653e+03 
2.374100e-01 1.139576e+03 
2.386500e-01 1.131404e+03 
2.399100e-01 1.123206e+03 
2.410400e-01 1.116084e+03 
2.422500e-01 1.108566e+03 
2.435000e-01 1.100897e+03 
2.447300e-01 1.093465e+03 
2.458700e-01 1.086742e+03 
2.470600e-01 1.079807e+03 
2.483300e-01 1.072495e+03 
2.495600e-01 1.065521e+03 
2.507600e-01 1.058827e+03 
2.519600e-01 1.052210e+03 
2.532200e-01 1.045346e+03 
2.543700e-01 1.039138e+03 
2.555500e-01 1.032827e+03 
2.568000e-01 1.026220e+03 
2.580100e-01 1.019900e+03 
2.592400e-01 1.013494e+03 
2.604100e-01 1.007447e+03 
2.616100e-01 1.001313e+03 
2.628400e-01 9.950969e+02 
2.640600e-01 9.889267e+02 
2.652200e-01 9.830949e+02 
2.664300e-01 9.770782e+02 
2.676500e-01 9.710795e+02 
2.688400e-01 9.652263e+02 
2.700700e-01 9.592014e+02 
2.712400e-01 9.535329e+02 
2.724800e-01 9.475907e+02 
2.736700e-01 9.418969e+02 
2.748800e-01 9.361149e+02 
2.761000e-01 9.303484e+02 
2.773200e-01 9.246444e+02 
2.785400e-01 9.189770e+02 
2.797000e-01 9.135924e+02 
2.808900e-01 9.081257e+02 
2.821400e-01 9.024447e+02 
2.833900e-01 8.968231e+02 
2.845500e-01 8.916042e+02 
2.857800e-01 8.861276e+02 
2.870300e-01 8.806215e+02 
2.882100e-01 8.754779e+02 
2.893900e-01 8.703588e+02 
2.906300e-01 8.650202e+02 
2.918900e-01 8.596531e+02 
2.930500e-01 8.547624e+02 
2.942500e-01 8.497478e+02 
2.954200e-01 8.448889e+02 
2.966500e-01 8.398322e+02 
2.978900e-01 8.347867e+02 
2.990400e-01 8.301539e+02 
3.002700e-01 8.252386e+02 
3.015100e-01 8.203295e+02 
3.026800e-01 8.157433e+02 
3.038500e-01 8.112009e+02 
3.050300e-01 8.066634e+02 
3.062600e-01 8.019756e+02 
3.075000e-01 7.972967e+02 
3.087000e-01 7.928131e+02 
3.099100e-01 7.883358e+02 
3.111200e-01 7.839039e+02 
3.123100e-01 7.795905e+02 
3.135300e-01 7.752104e+02 
3.147300e-01 7.709433e+02 
3.159900e-01 7.665061e+02 
3.171800e-01 7.623613e+02 
3.183700e-01 7.582588e+02 
3.196300e-01 7.539561e+02 
3.208400e-01 7.498637e+02 
3.220300e-01 7.458761e+02 
3.232000e-01 7.420041e+02 
3.244300e-01 7.379761e+02 
3.256700e-01 7.339534e+02 
3.269200e-01 7.299366e+02 
3.280800e-01 7.262428e+02 
3.292500e-01 7.225636e+02 
3.304800e-01 7.187348e+02 
3.317100e-01 7.149412e+02 
3.328900e-01 7.113343e+02 
3.340700e-01 7.077590e+02 
3.353600e-01 7.039043e+02 
3.365300e-01 7.004466e+02 
3.377100e-01 6.969893e+02 
3.389200e-01 6.934751e+02 
3.401600e-01 6.899058e+02 
3.413700e-01 6.864672e+02 
3.425300e-01 6.832081e+02 
3.437700e-01 6.797544e+02 
3.449800e-01 6.764137e+02 
3.461800e-01 6.731291e+02 
3.473600e-01 6.699338e+02 
3.485800e-01 6.666757e+02 
3.498100e-01 6.634193e+02 
3.510200e-01 6.602432e+02 
3.522000e-01 6.571719e+02 
3.533900e-01 6.541002e+02 
3.546400e-01 6.509264e+02 
3.558400e-01 6.479068e+02 
3.570600e-01 6.448626e+02 
3.582700e-01 6.418686e+02 
3.595000e-01 6.388505e+02 
3.607100e-01 6.359179e+02 
3.618900e-01 6.330903e+02 
3.631200e-01 6.301671e+02 
3.643200e-01 6.273385e+02 
3.655500e-01 6.244630e+02 
3.667300e-01 6.217266e+02 
3.679500e-01 6.189504e+02 
3.691900e-01 6.161518e+02 
3.703600e-01 6.135323e+02 
3.715700e-01 6.108445e+02 
3.727700e-01 6.082002e+02 
3.739900e-01 6.055373e+02 
3.752000e-01 6.029247e+02 
3.763900e-01 6.003754e+02 
3.775800e-01 5.978458e+02 
3.788200e-01 5.952307e+02 
3.800300e-01 5.926991e+02 
3.812100e-01 5.902510e+02 
3.824200e-01 5.877610e+02 
3.836100e-01 5.853310e+02 
3.848600e-01 5.827984e+02 
3.860400e-01 5.804261e+02 
3.872400e-01 5.780317e+02 
3.884600e-01 5.756406e+02 
3.896500e-01 5.733351e+02 
3.908700e-01 5.709893e+02 
3.920600e-01 5.687185e+02 
3.933100e-01 5.663514e+02 
3.945300e-01 5.640588e+02 
3.957200e-01 5.618404e+02 
3.969300e-01 5.596017e+02 
3.981700e-01 5.573249e+02 
3.993500e-01 5.551744e+02 
4.094840e-01 5.373163e+02 
4.272360e-01 5.087975e+02 
4.454600e-01 4.823716e+02 
4.630560e-01 4.592065e+02 
4.804610e-01 4.382407e+02 
4.980690e-01 4.188061e+02 
5.159230e-01 4.006765e+02 
5.317440e-01 3.858479e+02 
5.489640e-01 3.708260e+02 
5.671990e-01 3.561008e+02 
5.838690e-01 3.436416e+02 
6.018840e-01 3.311539e+02 
6.202330e-01 3.193979e+02 
6.379250e-01 3.088081e+02 
6.545410e-01 2.995547e+02 
6.714560e-01 2.907236e+02 
6.892080e-01 2.820372e+02 
7.066010e-01 2.740299e+02 
7.240540e-01 2.664869e+02 
7.420450e-01 2.592139e+02 
7.593780e-01 2.525528e+02 
7.764720e-01 2.463518e+02 
7.942840e-01 2.402414e+02 
8.116170e-01 2.345595e+02 
8.288310e-01 2.292204e+02 
8.462240e-01 2.240431e+02 
8.631980e-01 2.192229e+02 
8.810700e-01 2.143762e+02 
8.989410e-01 2.097478e+02 
9.166330e-01 2.053436e+02 
9.345640e-01 2.010339e+02 
9.515980e-01 1.970985e+02 
9.688720e-01 1.932650e+02 
9.865640e-01 1.894706e+02 
1.031870e+00 1.803149e+02 
1.063490e+00 1.743713e+02 
1.097920e+00 1.682532e+02 
1.134370e+00 1.621671e+02 
1.167730e+00 1.568703e+02 
1.203830e+00 1.514571e+02 
1.240470e+00 1.462500e+02 
1.275790e+00 1.414650e+02 
1.309140e+00 1.371760e+02 
1.342970e+00 1.329928e+02 
1.378420e+00 1.288333e+02 
1.413200e+00 1.249209e+02 
1.448110e+00 1.211657e+02 
1.484090e+00 1.174711e+02 
1.518820e+00 1.140513e+02 
1.552880e+00 1.108233e+02 
1.588630e+00 1.075819e+02 
1.623230e+00 1.045755e+02 
1.657720e+00 1.016934e+02 
1.692450e+00 9.892477e+01 
1.726400e+00 9.629543e+01 
1.762200e+00 9.362488e+01 
1.797880e+00 9.107233e+01 
1.833270e+00 8.863932e+01 
1.869070e+00 8.626650e+01 
1.903200e+00 8.409374e+01 
1.937740e+00 8.197034e+01 
1.973190e+00 7.986615e+01 
2.007440e+00 7.790404e+01 
2.042160e+00 7.598488e+01 
2.077900e+00 7.407425e+01 
2.112390e+00 7.230457e+01 
2.146220e+00 7.060902e+01 
2.181600e+00 6.890550e+01 
2.216930e+00 6.726142e+01 
2.250760e+00 6.573503e+01 
2.286500e+00 6.417309e+01 
2.321770e+00 6.268355e+01 
2.355950e+00 6.128691e+01 
2.391280e+00 5.988327e+01 
2.426240e+00 5.854171e+01 
2.460670e+00 5.726000e+01 
2.495640e+00 5.599377e+01 
2.531080e+00 5.475632e+01 
2.566220e+00 5.356305e+01 
2.600830e+00 5.242292e+01 
2.635080e+00 5.132897e+01 
2.670340e+00 5.023009e+01 
2.705970e+00 4.915730e+01 
2.740040e+00 4.816281e+01 
2.774520e+00 4.717860e+01 
2.809730e+00 4.620456e+01 
2.844390e+00 4.527411e+01 
2.879960e+00 4.434447e+01 
2.914860e+00 4.345677e+01 
2.949410e+00 4.260307e+01 
2.984440e+00 4.176267e+01 
3.019760e+00 4.093617e+01 
3.054730e+00 4.013945e+01 
3.089030e+00 3.937864e+01 
3.124060e+00 3.862291e+01 
3.159560e+00 3.787771e+01 
3.194710e+00 3.715945e+01 
3.229010e+00 3.647726e+01 
3.263320e+00 3.580849e+01 
3.297930e+00 3.515213e+01 
3.332830e+00 3.450812e+01 
3.368040e+00 3.387427e+01 
3.403300e+00 3.325541e+01 
3.438450e+00 3.265251e+01 
3.473060e+00 3.207391e+01 
3.508440e+00 3.149919e+01 
3.543110e+00 3.095009e+01 
3.577470e+00 3.041670e+01 
3.613040e+00 2.987885e+01 
3.648120e+00 2.936268e+01 
3.682910e+00 2.886201e+01 
3.718050e+00 2.836591e+01 
3.753320e+00 2.788126e+01 
3.787980e+00 2.741802e+01 
3.822290e+00 2.696922e+01 
3.857020e+00 2.652391e+01 
3.891920e+00 2.608677e+01 
3.926650e+00 2.566152e+01 
3.961970e+00 2.523898e+01 
3.997360e+00 2.482505e+01 
4.031670e+00 2.443305e+01 
4.066330e+00 2.404630e+01 
4.101420e+00 2.366358e+01 
4.136200e+00 2.329201e+01 
4.170810e+00 2.293046e+01 
4.206250e+00 2.256881e+01 
4.241580e+00 2.221637e+01 
4.276300e+00 2.187698e+01 
4.310970e+00 2.154503e+01 
4.346120e+00 2.121599e+01 
4.380600e+00 2.090052e+01 
4.414730e+00 2.059474e+01 
4.450350e+00 2.028150e+01 
4.485320e+00 1.998048e+01 
4.519810e+00 1.969019e+01 
4.555430e+00 1.939680e+01 
4.590870e+00 1.911117e+01 
4.625480e+00 1.883831e+01 
4.659910e+00 1.857228e+01 
4.695230e+00 1.830438e+01 
4.729960e+00 1.804614e+01 
4.764450e+00 1.779455e+01 
4.799530e+00 1.754337e+01 
4.834910e+00 1.729504e+01 
4.869700e+00 1.705705e+01 
4.904370e+00 1.682466e+01 
4.939450e+00 1.659391e+01 
4.973940e+00 1.637106e+01 
5.008430e+00 1.615237e+01 
5.043810e+00 1.593205e+01 
5.078840e+00 1.571791e+01 
5.113500e+00 1.550995e+01 
5.148890e+00 1.530298e+01 
5.184210e+00 1.510030e+01 
5.219060e+00 1.490369e+01 
5.253660e+00 1.471120e+01 
5.288570e+00 1.452046e+01 
5.323420e+00 1.433413e+01 
5.358440e+00 1.415095e+01 
5.393590e+00 1.397036e+01 
5.428310e+00 1.379499e+01 
5.462800e+00 1.362374e+01 
5.497640e+00 1.345373e+01 
5.532670e+00 1.328673e+01 
5.567280e+00 1.312486e+01 
5.602000e+00 1.296521e+01 
5.637270e+00 1.280508e+01 
5.672410e+00 1.264809e+01 
5.707020e+00 1.249605e+01 
5.742040e+00 1.234580e+01 
5.777430e+00 1.219672e+01 
5.812210e+00 1.205261e+01 
5.846820e+00 1.191143e+01 
5.881610e+00 1.177177e+01 
5.916510e+00 1.163394e+01 
5.951600e+00 1.149799e+01 
5.986560e+00 1.136489e+01 
6.021830e+00 1.123276e+01 
6.056490e+00 1.110523e+01 
6.091160e+00 1.097988e+01 
6.125830e+00 1.085647e+01 
6.161090e+00 1.073289e+01 
6.195760e+00 1.061322e+01 
6.230420e+00 1.049541e+01 
6.265690e+00 1.037738e+01 
6.300950e+00 1.026173e+01 
6.335620e+00 1.014973e+01 
6.370880e+00 1.003755e+01 
6.405550e+00 9.929190e+00 
6.440220e+00 9.822554e+00 
6.475480e+00 9.715711e+00 
6.510150e+00 9.612352e+00 
6.544810e+00 9.510855e+00 
6.580080e+00 9.409078e+00 
6.614750e+00 9.310486e+00 
6.649410e+00 9.213338e+00 
6.684080e+00 9.117549e+00 
6.719340e+00 9.021525e+00 
6.754010e+00 8.928576e+00 
6.788680e+00 8.837221e+00 
6.823940e+00 8.745621e+00 
6.859800e+00 8.653792e+00 
6.894470e+00 8.566554e+00 
6.929140e+00 8.480624e+00 
6.963800e+00 8.395895e+00 
6.999070e+00 8.310863e+00 
7.033730e+00 8.228480e+00 
7.068400e+00 8.147188e+00 
7.103660e+00 8.065634e+00 
7.138330e+00 7.986761e+00 
7.173600e+00 7.908082e+00 
7.208260e+00 7.831796e+00 
7.243530e+00 7.755199e+00 
7.277600e+00 7.682027e+00 
7.312860e+00 7.607150e+00 
7.348120e+00 7.533266e+00 
7.382790e+00 7.461570e+00 
7.417460e+00 7.391225e+00 
7.452720e+00 7.320831e+00 
7.487390e+00 7.252507e+00 
7.522650e+00 7.183910e+00 
7.557320e+00 7.117359e+00 
7.591990e+00 7.051660e+00 
7.627250e+00 6.985689e+00 
7.662510e+00 6.920558e+00 
7.697180e+00 6.857544e+00 
7.731850e+00 6.795397e+00 
7.766510e+00 6.734034e+00 
7.801180e+00 6.673407e+00 
7.836440e+00 6.612534e+00 
7.871110e+00 6.553429e+00 
7.906380e+00 6.494038e+00 
7.941040e+00 6.436386e+00 
7.976310e+00 6.378572e+00 
8.011570e+00 6.321646e+00 
8.046240e+00 6.266346e+00 
8.080900e+00 6.211718e+00 
8.115570e+00 6.157757e+00 
8.150830e+00 6.103667e+00 
8.185500e+00 6.051110e+00 
8.220770e+00 5.998274e+00 
8.255430e+00 5.946961e+00 
8.290100e+00 5.896378e+00 
8.324770e+00 5.846397e+00 
8.359430e+00 5.797004e+00 
8.394700e+00 5.747322e+00 
8.429960e+00 5.698316e+00 
8.464630e+00 5.650768e+00 
8.499890e+00 5.602962e+00 
8.534560e+00 5.556491e+00 
8.569200e+00 5.510581e+00 
