# Parameters:
# omega_b = 0.021516, omega_m = 0.136535, n_s = 0.889370, h = 83.110236, w = -1.000000, sigma_8 = 0.783465
# z = 0.500000
#
# k[1/Mpc] # P(k):
8.694000e-04 1.134291e+04 
2.077466e-03 2.254520e+04 
3.285532e-03 3.074103e+04 
4.493598e-03 3.669260e+04 
5.701664e-03 4.086051e+04 
6.909730e-03 4.360522e+04 
8.117797e-03 4.527835e+04 
9.325863e-03 4.606273e+04 
1.053393e-02 4.613002e+04 
1.174199e-02 4.563179e+04 
1.295006e-02 4.466462e+04 
1.415813e-02 4.335338e+04 
1.536619e-02 4.179792e+04 
1.657426e-02 4.006612e+04 
1.778233e-02 3.818101e+04 
1.899039e-02 3.614311e+04 
2.019846e-02 3.406183e+04 
2.140652e-02 3.208524e+04 
2.261459e-02 3.023594e+04 
2.382266e-02 2.851820e+04 
2.503072e-02 2.694130e+04 
2.623879e-02 2.550736e+04 
2.744685e-02 2.421639e+04 
2.865492e-02 2.306360e+04 
2.986299e-02 2.203995e+04 
3.100100e-02 2.118939e+04 
3.220400e-02 2.039805e+04 
3.288100e-02 1.999976e+04 
3.424300e-02 1.928603e+04 
3.555100e-02 1.869295e+04 
3.686000e-02 1.817664e+04 
3.795000e-02 1.779273e+04 
3.929100e-02 1.736822e+04 
4.039800e-02 1.704270e+04 
4.164000e-02 1.669446e+04 
4.294400e-02 1.633139e+04 
4.415000e-02 1.599526e+04 
4.542900e-02 1.562010e+04 
4.660900e-02 1.526321e+04 
4.782300e-02 1.486402e+04 
4.892900e-02 1.448583e+04 
5.031200e-02 1.398730e+04 
5.155900e-02 1.351404e+04 
5.238100e-02 1.319397e+04 
5.378200e-02 1.263962e+04 
5.513400e-02 1.209846e+04 
5.627600e-02 1.164349e+04 
5.735300e-02 1.122258e+04 
5.870100e-02 1.071284e+04 
5.988700e-02 1.028574e+04 
6.113500e-02 9.861119e+03 
6.225900e-02 9.503734e+03 
6.340100e-02 9.167031e+03 
6.480200e-02 8.788758e+03 
6.601100e-02 8.496783e+03 
6.725500e-02 8.227604e+03 
6.829100e-02 8.029017e+03 
6.958600e-02 7.805719e+03 
7.071100e-02 7.635652e+03 
7.192300e-02 7.473130e+03 
7.307400e-02 7.336243e+03 
7.412300e-02 7.224114e+03 
7.550400e-02 7.093037e+03 
7.663100e-02 6.995440e+03 
7.791200e-02 6.893827e+03 
7.912700e-02 6.802196e+03 
8.027600e-02 6.717249e+03 
8.138400e-02 6.635620e+03 
8.272200e-02 6.535528e+03 
8.406100e-02 6.432062e+03 
8.534100e-02 6.326720e+03 
8.653800e-02 6.222112e+03 
8.759800e-02 6.126063e+03 
8.900300e-02 5.992939e+03 
9.009000e-02 5.884927e+03 
9.113300e-02 5.777029e+03 
9.239600e-02 5.644418e+03 
9.358000e-02 5.517260e+03 
9.496100e-02 5.365786e+03 
9.608400e-02 5.243071e+03 
9.727500e-02 5.114328e+03 
9.852600e-02 4.979571e+03 
9.973800e-02 4.852990e+03 
1.009000e-01 4.735243e+03 
1.020900e-01 4.620082e+03 
1.034000e-01 4.499347e+03 
1.046000e-01 4.394395e+03 
1.057200e-01 4.304289e+03 
1.069100e-01 4.213383e+03 
1.082500e-01 4.120577e+03 
1.093900e-01 4.048402e+03 
1.105400e-01 3.980098e+03 
1.116900e-01 3.919888e+03 
1.129600e-01 3.857284e+03 
1.142000e-01 3.803118e+03 
1.153300e-01 3.756742e+03 
1.166400e-01 3.707052e+03 
1.177800e-01 3.666513e+03 
1.190000e-01 3.624935e+03 
1.201200e-01 3.587716e+03 
1.213400e-01 3.548141e+03 
1.227100e-01 3.502750e+03 
1.238900e-01 3.463903e+03 
1.250700e-01 3.423443e+03 
1.263200e-01 3.380339e+03 
1.275500e-01 3.336148e+03 
1.287500e-01 3.292447e+03 
1.299900e-01 3.245824e+03 
1.311300e-01 3.202491e+03 
1.323500e-01 3.154992e+03 
1.335900e-01 3.106662e+03 
1.347100e-01 3.062434e+03 
1.359800e-01 3.012738e+03 
1.372100e-01 2.964382e+03 
1.384300e-01 2.917247e+03 
1.395700e-01 2.873504e+03 
1.407700e-01 2.828460e+03 
1.420300e-01 2.782117e+03 
1.432800e-01 2.737212e+03 
1.444500e-01 2.696815e+03 
1.456300e-01 2.656940e+03 
1.468900e-01 2.616365e+03 
1.480500e-01 2.580127e+03 
1.491700e-01 2.546568e+03 
1.503800e-01 2.511975e+03 
1.516400e-01 2.477064e+03 
1.528200e-01 2.446600e+03 
1.540200e-01 2.416225e+03 
1.551900e-01 2.388594e+03 
1.564300e-01 2.360217e+03 
1.576600e-01 2.333235e+03 
1.588700e-01 2.307939e+03 
1.600900e-01 2.282956e+03 
1.612700e-01 2.260018e+03 
1.625400e-01 2.235788e+03 
1.637600e-01 2.213046e+03 
1.649500e-01 2.191318e+03 
1.662200e-01 2.168491e+03 
1.674000e-01 2.147323e+03 
1.685000e-01 2.127919e+03 
1.697500e-01 2.105817e+03 
1.710300e-01 2.083171e+03 
1.722200e-01 2.062492e+03 
1.734400e-01 2.040655e+03 
1.746400e-01 2.019506e+03 
1.758700e-01 1.997898e+03 
1.770900e-01 1.976217e+03 
1.782700e-01 1.955603e+03 
1.794600e-01 1.934759e+03 
1.807000e-01 1.913140e+03 
1.819100e-01 1.892405e+03 
1.830100e-01 1.873610e+03 
1.842200e-01 1.853224e+03 
1.855000e-01 1.832031e+03 
1.867000e-01 1.812527e+03 
1.879200e-01 1.793024e+03 
1.890900e-01 1.774670e+03 
1.902800e-01 1.756546e+03 
1.915200e-01 1.737965e+03 
1.926900e-01 1.720813e+03 
1.939000e-01 1.703677e+03 
1.951700e-01 1.685980e+03 
1.963100e-01 1.670464e+03 
1.975100e-01 1.654701e+03 
1.987800e-01 1.638280e+03 
2.000100e-01 1.622739e+03 
2.012500e-01 1.607573e+03 
2.023400e-01 1.594434e+03 
2.036100e-01 1.579402e+03 
2.048900e-01 1.564699e+03 
2.060400e-01 1.551684e+03 
2.072200e-01 1.538527e+03 
2.084200e-01 1.525462e+03 
2.096900e-01 1.511838e+03 
2.109200e-01 1.498837e+03 
2.121100e-01 1.486474e+03 
2.132700e-01 1.474590e+03 
2.145200e-01 1.461963e+03 
2.157200e-01 1.450025e+03 
2.168800e-01 1.438647e+03 
2.180700e-01 1.427131e+03 
2.193400e-01 1.415030e+03 
2.206000e-01 1.403228e+03 
2.217500e-01 1.392602e+03 
2.229500e-01 1.381659e+03 
2.241400e-01 1.371058e+03 
2.253500e-01 1.360423e+03 
2.264900e-01 1.350533e+03 
2.277100e-01 1.340171e+03 
2.289900e-01 1.329543e+03 
2.301500e-01 1.320037e+03 
2.313600e-01 1.310249e+03 
2.325600e-01 1.300907e+03 
2.337700e-01 1.291607e+03 
2.350000e-01 1.282274e+03 
2.362000e-01 1.273403e+03 
2.374100e-01 1.264708e+03 
2.386500e-01 1.255911e+03 
2.399100e-01 1.247086e+03 
2.410400e-01 1.239456e+03 
2.422500e-01 1.231407e+03 
2.435000e-01 1.223195e+03 
2.447300e-01 1.215244e+03 
2.458700e-01 1.208078e+03 
2.470600e-01 1.200683e+03 
2.483300e-01 1.192887e+03 
2.495600e-01 1.185457e+03 
2.507600e-01 1.178331e+03 
2.519600e-01 1.171288e+03 
2.532200e-01 1.163980e+03 
2.543700e-01 1.157367e+03 
2.555500e-01 1.150641e+03 
2.568000e-01 1.143600e+03 
2.580100e-01 1.136863e+03 
2.592400e-01 1.130021e+03 
2.604100e-01 1.123554e+03 
2.616100e-01 1.116994e+03 
2.628400e-01 1.110347e+03 
2.640600e-01 1.103728e+03 
2.652200e-01 1.097463e+03 
2.664300e-01 1.090999e+03 
2.676500e-01 1.084555e+03 
2.688400e-01 1.078248e+03 
2.700700e-01 1.071745e+03 
2.712400e-01 1.065626e+03 
2.724800e-01 1.059211e+03 
2.736700e-01 1.053052e+03 
2.748800e-01 1.046783e+03 
2.761000e-01 1.040532e+03 
2.773200e-01 1.034348e+03 
2.785400e-01 1.028197e+03 
2.797000e-01 1.022340e+03 
2.808900e-01 1.016394e+03 
2.821400e-01 1.010215e+03 
2.833900e-01 1.004099e+03 
2.845500e-01 9.984098e+02 
2.857800e-01 9.924397e+02 
2.870300e-01 9.864371e+02 
2.882100e-01 9.808296e+02 
2.893900e-01 9.752443e+02 
2.906300e-01 9.694170e+02 
2.918900e-01 9.635583e+02 
2.930500e-01 9.582196e+02 
2.942500e-01 9.527446e+02 
2.954200e-01 9.474371e+02 
2.966500e-01 9.419132e+02 
2.978900e-01 9.364015e+02 
2.990400e-01 9.313403e+02 
3.002700e-01 9.259700e+02 
3.015100e-01 9.206060e+02 
3.026800e-01 9.155946e+02 
3.038500e-01 9.106309e+02 
3.050300e-01 9.056723e+02 
3.062600e-01 9.005501e+02 
3.075000e-01 8.954375e+02 
3.087000e-01 8.905382e+02 
3.099100e-01 8.856455e+02 
3.111200e-01 8.808028e+02 
3.123100e-01 8.760905e+02 
3.135300e-01 8.713052e+02 
3.147300e-01 8.666431e+02 
3.159900e-01 8.617950e+02 
3.171800e-01 8.572669e+02 
3.183700e-01 8.527852e+02 
3.196300e-01 8.480848e+02 
3.208400e-01 8.436139e+02 
3.220300e-01 8.392573e+02 
3.232000e-01 8.350270e+02 
3.244300e-01 8.306262e+02 
3.256700e-01 8.262310e+02 
3.269200e-01 8.218421e+02 
3.280800e-01 8.178060e+02 
3.292500e-01 8.137860e+02 
3.304800e-01 8.096024e+02 
3.317100e-01 8.054571e+02 
3.328900e-01 8.015158e+02 
3.340700e-01 7.976088e+02 
3.353600e-01 7.933953e+02 
3.365300e-01 7.896154e+02 
3.377100e-01 7.858358e+02 
3.389200e-01 7.819937e+02 
3.401600e-01 7.780914e+02 
3.413700e-01 7.743308e+02 
3.425300e-01 7.707658e+02 
3.437700e-01 7.669876e+02 
3.449800e-01 7.633331e+02 
3.461800e-01 7.597399e+02 
3.473600e-01 7.562433e+02 
3.485800e-01 7.526761e+02 
3.498100e-01 7.491106e+02 
3.510200e-01 7.456331e+02 
3.522000e-01 7.422701e+02 
3.533900e-01 7.389065e+02 
3.546400e-01 7.354274e+02 
3.558400e-01 7.321172e+02 
3.570600e-01 7.287797e+02 
3.582700e-01 7.254972e+02 
3.595000e-01 7.221883e+02 
3.607100e-01 7.189715e+02 
3.618900e-01 7.158687e+02 
3.631200e-01 7.126608e+02 
3.643200e-01 7.095567e+02 
3.655500e-01 7.064010e+02 
3.667300e-01 7.033980e+02 
3.679500e-01 7.003464e+02 
3.691900e-01 6.972702e+02 
3.703600e-01 6.943908e+02 
3.715700e-01 6.914363e+02 
3.727700e-01 6.885295e+02 
3.739900e-01 6.856013e+02 
3.752000e-01 6.827269e+02 
3.763900e-01 6.799220e+02 
3.775800e-01 6.771388e+02 
3.788200e-01 6.742615e+02 
3.800300e-01 6.714760e+02 
3.812100e-01 6.687791e+02 
3.824200e-01 6.660340e+02 
3.836100e-01 6.633549e+02 
3.848600e-01 6.605626e+02 
3.860400e-01 6.579470e+02 
3.872400e-01 6.553072e+02 
3.884600e-01 6.526691e+02 
3.896500e-01 6.501250e+02 
3.908700e-01 6.475364e+02 
3.920600e-01 6.450304e+02 
3.933100e-01 6.424182e+02 
3.945300e-01 6.398881e+02 
3.957200e-01 6.374370e+02 
3.969300e-01 6.349627e+02 
3.981700e-01 6.324462e+02 
3.993500e-01 6.300692e+02 
4.094840e-01 6.103148e+02 
4.272360e-01 5.787100e+02 
4.454600e-01 5.493815e+02 
4.630560e-01 5.236365e+02 
4.804610e-01 5.003137e+02 
4.980690e-01 4.786758e+02 
5.159230e-01 4.584721e+02 
5.317440e-01 4.419316e+02 
5.489640e-01 4.251468e+02 
5.671990e-01 4.086694e+02 
5.838690e-01 3.946998e+02 
6.018840e-01 3.806737e+02 
6.202330e-01 3.674299e+02 
6.379250e-01 3.554841e+02 
6.545410e-01 3.450131e+02 
6.714560e-01 3.350019e+02 
6.892080e-01 3.251334e+02 
7.066010e-01 3.160139e+02 
7.240540e-01 3.074069e+02 
7.420450e-01 2.990932e+02 
7.593780e-01 2.914611e+02 
7.764720e-01 2.843446e+02 
7.942840e-01 2.773235e+02 
8.116170e-01 2.707826e+02 
8.288310e-01 2.646253e+02 
8.462240e-01 2.586508e+02 
8.631980e-01 2.530808e+02 
8.810700e-01 2.474755e+02 
8.989410e-01 2.421181e+02 
9.166330e-01 2.370145e+02 
9.345640e-01 2.320182e+02 
9.515980e-01 2.274532e+02 
9.688720e-01 2.230040e+02 
9.865640e-01 2.185991e+02 
1.031870e+00 2.079642e+02 
1.063490e+00 2.010555e+02 
1.097920e+00 1.939449e+02 
1.134370e+00 1.868713e+02 
1.167730e+00 1.807166e+02 
1.203830e+00 1.744268e+02 
1.240470e+00 1.683796e+02 
1.275790e+00 1.628241e+02 
1.309140e+00 1.578469e+02 
1.342970e+00 1.529954e+02 
1.378420e+00 1.481735e+02 
1.413200e+00 1.436388e+02 
1.448110e+00 1.392890e+02 
1.484090e+00 1.350105e+02 
1.518820e+00 1.310544e+02 
1.552880e+00 1.273198e+02 
1.588630e+00 1.235734e+02 
1.623230e+00 1.200988e+02 
1.657720e+00 1.167703e+02 
1.692450e+00 1.135728e+02 
1.726400e+00 1.105375e+02 
1.762200e+00 1.074571e+02 
1.797880e+00 1.045137e+02 
1.833270e+00 1.017084e+02 
1.869070e+00 9.897399e+01 
1.903200e+00 9.647077e+01 
1.937740e+00 9.402560e+01 
1.973190e+00 9.160347e+01 
2.007440e+00 8.934558e+01 
2.042160e+00 8.713726e+01 
2.077900e+00 8.493932e+01 
2.112390e+00 8.290470e+01 
2.146220e+00 8.095566e+01 
2.181600e+00 7.899772e+01 
2.216930e+00 7.710887e+01 
2.250760e+00 7.535554e+01 
2.286500e+00 7.356175e+01 
2.321770e+00 7.185172e+01 
2.355950e+00 7.024860e+01 
2.391280e+00 6.863761e+01 
2.426240e+00 6.709832e+01 
2.460670e+00 6.562801e+01 
2.495640e+00 6.417566e+01 
2.531080e+00 6.275656e+01 
2.566220e+00 6.138856e+01 
2.600830e+00 6.008169e+01 
2.635080e+00 5.882786e+01 
2.670340e+00 5.756864e+01 
2.705970e+00 5.633957e+01 
2.740040e+00 5.520034e+01 
2.774520e+00 5.407292e+01 
2.809730e+00 5.295738e+01 
2.844390e+00 5.189190e+01 
2.879960e+00 5.082753e+01 
2.914860e+00 4.981127e+01 
2.949410e+00 4.883400e+01 
2.984440e+00 4.787217e+01 
3.019760e+00 4.692632e+01 
3.054730e+00 4.601462e+01 
3.089030e+00 4.514411e+01 
3.124060e+00 4.427949e+01 
3.159560e+00 4.342702e+01 
3.194710e+00 4.260546e+01 
3.229010e+00 4.182519e+01 
3.263320e+00 4.106033e+01 
3.297930e+00 4.030972e+01 
3.332830e+00 3.957331e+01 
3.368040e+00 3.884855e+01 
3.403300e+00 3.814093e+01 
3.438450e+00 3.745166e+01 
3.473060e+00 3.679017e+01 
3.508440e+00 3.613321e+01 
3.543110e+00 3.550552e+01 
3.577470e+00 3.489580e+01 
3.613040e+00 3.428100e+01 
3.648120e+00 3.369107e+01 
3.682910e+00 3.311885e+01 
3.718050e+00 3.255185e+01 
3.753320e+00 3.199796e+01 
3.787980e+00 3.146857e+01 
3.822290e+00 3.095569e+01 
3.857020e+00 3.044678e+01 
3.891920e+00 2.994723e+01 
3.926650e+00 2.946130e+01 
3.961970e+00 2.897846e+01 
3.997360e+00 2.850545e+01 
4.031670e+00 2.805748e+01 
4.066330e+00 2.761553e+01 
4.101420e+00 2.717817e+01 
4.136200e+00 2.675356e+01 
4.170810e+00 2.634039e+01 
4.206250e+00 2.592711e+01 
4.241580e+00 2.552436e+01 
4.276300e+00 2.513651e+01 
4.310970e+00 2.475716e+01 
4.346120e+00 2.438112e+01 
4.380600e+00 2.402058e+01 
4.414730e+00 2.367109e+01 
4.450350e+00 2.331308e+01 
4.485320e+00 2.296902e+01 
4.519810e+00 2.263722e+01 
4.555430e+00 2.230187e+01 
4.590870e+00 2.197536e+01 
4.625480e+00 2.166345e+01 
4.659910e+00 2.135932e+01 
4.695230e+00 2.105305e+01 
4.729960e+00 2.075781e+01 
4.764450e+00 2.047015e+01 
4.799530e+00 2.018295e+01 
4.834910e+00 1.989898e+01 
4.869700e+00 1.962684e+01 
4.904370e+00 1.936109e+01 
4.939450e+00 1.909718e+01 
4.973940e+00 1.884228e+01 
5.008430e+00 1.859213e+01 
5.043810e+00 1.834010e+01 
5.078840e+00 1.809513e+01 
5.113500e+00 1.785721e+01 
5.148890e+00 1.762041e+01 
5.184210e+00 1.738851e+01 
5.219060e+00 1.716353e+01 
5.253660e+00 1.694323e+01 
5.288570e+00 1.672492e+01 
5.323420e+00 1.651163e+01 
5.358440e+00 1.630195e+01 
5.393590e+00 1.609521e+01 
5.428310e+00 1.589443e+01 
5.462800e+00 1.569834e+01 
5.497640e+00 1.550367e+01 
5.532670e+00 1.531241e+01 
5.567280e+00 1.512701e+01 
5.602000e+00 1.494415e+01 
5.637270e+00 1.476071e+01 
5.672410e+00 1.458085e+01 
5.707020e+00 1.440665e+01 
5.742040e+00 1.423448e+01 
5.777430e+00 1.406363e+01 
5.812210e+00 1.389848e+01 
5.846820e+00 1.373664e+01 
5.881610e+00 1.357654e+01 
5.916510e+00 1.341852e+01 
5.951600e+00 1.326262e+01 
5.986560e+00 1.310999e+01 
6.021830e+00 1.295846e+01 
6.056490e+00 1.281217e+01 
6.091160e+00 1.266837e+01 
6.125830e+00 1.252678e+01 
6.161090e+00 1.238499e+01 
6.195760e+00 1.224765e+01 
6.230420e+00 1.211245e+01 
6.265690e+00 1.197699e+01 
6.300950e+00 1.184420e+01 
6.335620e+00 1.171561e+01 
6.370880e+00 1.158679e+01 
6.405550e+00 1.146235e+01 
6.440220e+00 1.133988e+01 
6.475480e+00 1.121716e+01 
6.510150e+00 1.109843e+01 
6.544810e+00 1.098180e+01 
6.580080e+00 1.086484e+01 
6.614750e+00 1.075154e+01 
6.649410e+00 1.063987e+01 
6.684080e+00 1.052975e+01 
6.719340e+00 1.041935e+01 
6.754010e+00 1.031248e+01 
6.788680e+00 1.020740e+01 
6.823940e+00 1.010204e+01 
6.859800e+00 9.996417e+00 
6.894470e+00 9.896042e+00 
6.929140e+00 9.797160e+00 
6.963800e+00 9.699657e+00 
6.999070e+00 9.601802e+00 
7.033730e+00 9.506960e+00 
7.068400e+00 9.413371e+00 
7.103660e+00 9.319479e+00 
7.138330e+00 9.228657e+00 
7.173600e+00 9.138029e+00 
7.208260e+00 9.050155e+00 
7.243530e+00 8.961921e+00 
7.277600e+00 8.877609e+00 
7.312860e+00 8.791311e+00 
7.348120e+00 8.706155e+00 
7.382790e+00 8.623519e+00 
7.417460e+00 8.542422e+00 
7.452720e+00 8.461256e+00 
7.487390e+00 8.382475e+00 
7.522650e+00 8.303379e+00 
7.557320e+00 8.226607e+00 
7.591990e+00 8.150805e+00 
7.627250e+00 8.074688e+00 
7.662510e+00 7.999539e+00 
7.697180e+00 7.926810e+00 
7.731850e+00 7.855073e+00 
7.766510e+00 7.784240e+00 
7.801180e+00 7.714256e+00 
7.836440e+00 7.643962e+00 
7.871110e+00 7.575696e+00 
7.906380e+00 7.507098e+00 
7.941040e+00 7.440508e+00 
7.976310e+00 7.373716e+00 
8.011570e+00 7.307931e+00 
8.046240e+00 7.244025e+00 
8.080900e+00 7.180896e+00 
8.115570e+00 7.118529e+00 
8.150830e+00 7.055987e+00 
8.185500e+00 6.995219e+00 
8.220770e+00 6.934127e+00 
8.255430e+00 6.874796e+00 
8.290100e+00 6.816283e+00 
8.324770e+00 6.758462e+00 
8.359430e+00 6.701322e+00 
8.394700e+00 6.643849e+00 
8.429960e+00 6.587139e+00 
8.464630e+00 6.532099e+00 
8.499890e+00 6.476761e+00 
8.534560e+00 6.422968e+00 
8.569200e+00 6.369825e+00 
