# Parameters:
# omega_b = 0.023484, omega_m = 0.149213, n_s = 0.911417, h = 70.354331, w = -1.000000, sigma_8 = 0.832283
# z = 0.500000
#
# k[1/Mpc] # P(k):
8.694000e-04 1.065200e+04 
2.077466e-03 2.185702e+04 
3.285532e-03 3.037406e+04 
4.493598e-03 3.683571e+04 
5.701664e-03 4.158361e+04 
6.909730e-03 4.492250e+04 
8.117797e-03 4.717352e+04 
9.325863e-03 4.850127e+04 
1.053393e-02 4.906457e+04 
1.174199e-02 4.900652e+04 
1.295006e-02 4.841901e+04 
1.415813e-02 4.742518e+04 
1.536619e-02 4.612628e+04 
1.657426e-02 4.458906e+04 
1.778233e-02 4.284917e+04 
1.899039e-02 4.097186e+04 
2.019846e-02 3.905873e+04 
2.140652e-02 3.719953e+04 
2.261459e-02 3.540752e+04 
2.382266e-02 3.370084e+04 
2.503072e-02 3.209886e+04 
2.623879e-02 3.061011e+04 
2.744685e-02 2.923682e+04 
2.865492e-02 2.798323e+04 
2.986299e-02 2.684553e+04 
3.100100e-02 2.587715e+04 
3.220400e-02 2.495526e+04 
3.288100e-02 2.448110e+04 
3.424300e-02 2.361446e+04 
3.555100e-02 2.287695e+04 
3.686000e-02 2.222068e+04 
3.795000e-02 2.172530e+04 
3.929100e-02 2.117188e+04 
4.039800e-02 2.074818e+04 
4.164000e-02 2.029906e+04 
4.294400e-02 1.984342e+04 
4.415000e-02 1.943193e+04 
4.542900e-02 1.899014e+04 
4.660900e-02 1.858091e+04 
4.782300e-02 1.813933e+04 
4.892900e-02 1.772883e+04 
5.031200e-02 1.719757e+04 
5.155900e-02 1.669986e+04 
5.238100e-02 1.636488e+04 
5.378200e-02 1.578554e+04 
5.513400e-02 1.521799e+04 
5.627600e-02 1.473701e+04 
5.735300e-02 1.428748e+04 
5.870100e-02 1.373533e+04 
5.988700e-02 1.326474e+04 
6.113500e-02 1.278803e+04 
6.225900e-02 1.237798e+04 
6.340100e-02 1.198280e+04 
6.480200e-02 1.152841e+04 
6.601100e-02 1.116623e+04 
6.725500e-02 1.082241e+04 
6.829100e-02 1.056019e+04 
6.958600e-02 1.025798e+04 
7.071100e-02 1.002013e+04 
7.192300e-02 9.786608e+03 
7.307400e-02 9.584930e+03 
7.412300e-02 9.416510e+03 
7.550400e-02 9.216258e+03 
7.663100e-02 9.066293e+03 
7.791200e-02 8.911180e+03 
7.912700e-02 8.774910e+03 
8.027600e-02 8.652586e+03 
8.138400e-02 8.539017e+03 
8.272200e-02 8.405729e+03 
8.406100e-02 8.274210e+03 
8.534100e-02 8.146796e+03 
8.653800e-02 8.024561e+03 
8.759800e-02 7.914376e+03 
8.900300e-02 7.764176e+03 
9.009000e-02 7.643659e+03 
9.113300e-02 7.523732e+03 
9.239600e-02 7.376353e+03 
9.358000e-02 7.234668e+03 
9.496100e-02 7.064675e+03 
9.608400e-02 6.925910e+03 
9.727500e-02 6.779379e+03 
9.852600e-02 6.623635e+03 
9.973800e-02 6.475938e+03 
1.009000e-01 6.337368e+03 
1.020900e-01 6.198930e+03 
1.034000e-01 6.052143e+03 
1.046000e-01 5.922838e+03 
1.057200e-01 5.808887e+03 
1.069100e-01 5.692729e+03 
1.082500e-01 5.570741e+03 
1.093900e-01 5.473681e+03 
1.105400e-01 5.380493e+03 
1.116900e-01 5.295338e+03 
1.129600e-01 5.205791e+03 
1.142000e-01 5.125883e+03 
1.153300e-01 5.056841e+03 
1.166400e-01 4.981841e+03 
1.177800e-01 4.920585e+03 
1.190000e-01 4.857719e+03 
1.201200e-01 4.802793e+03 
1.213400e-01 4.744627e+03 
1.227100e-01 4.681258e+03 
1.238900e-01 4.627817e+03 
1.250700e-01 4.574731e+03 
1.263200e-01 4.519160e+03 
1.275500e-01 4.464314e+03 
1.287500e-01 4.410986e+03 
1.299900e-01 4.355475e+03 
1.311300e-01 4.304389e+03 
1.323500e-01 4.249127e+03 
1.335900e-01 4.193026e+03 
1.347100e-01 4.141856e+03 
1.359800e-01 4.084189e+03 
1.372100e-01 4.027777e+03 
1.384300e-01 3.972473e+03 
1.395700e-01 3.920476e+03 
1.407700e-01 3.866766e+03 
1.420300e-01 3.810282e+03 
1.432800e-01 3.755500e+03 
1.444500e-01 3.704863e+03 
1.456300e-01 3.654849e+03 
1.468900e-01 3.602912e+03 
1.480500e-01 3.556195e+03 
1.491700e-01 3.512441e+03 
1.503800e-01 3.466705e+03 
1.516400e-01 3.420368e+03 
1.528200e-01 3.379184e+03 
1.540200e-01 3.338115e+03 
1.551900e-01 3.300257e+03 
1.564300e-01 3.261248e+03 
1.576600e-01 3.224022e+03 
1.588700e-01 3.188958e+03 
1.600900e-01 3.154330e+03 
1.612700e-01 3.122588e+03 
1.625400e-01 3.089058e+03 
1.637600e-01 3.057814e+03 
1.649500e-01 3.028098e+03 
1.662200e-01 2.996966e+03 
1.674000e-01 2.968596e+03 
1.685000e-01 2.942588e+03 
1.697500e-01 2.913294e+03 
1.710300e-01 2.883600e+03 
1.722200e-01 2.856481e+03 
1.734400e-01 2.828423e+03 
1.746400e-01 2.801266e+03 
1.758700e-01 2.773645e+03 
1.770900e-01 2.746188e+03 
1.782700e-01 2.720073e+03 
1.794600e-01 2.693786e+03 
1.807000e-01 2.666593e+03 
1.819100e-01 2.640503e+03 
1.830100e-01 2.616845e+03 
1.842200e-01 2.591175e+03 
1.855000e-01 2.564469e+03 
1.867000e-01 2.539739e+03 
1.879200e-01 2.515001e+03 
1.890900e-01 2.491672e+03 
1.902800e-01 2.468423e+03 
1.915200e-01 2.444581e+03 
1.926900e-01 2.422498e+03 
1.939000e-01 2.400216e+03 
1.951700e-01 2.377198e+03 
1.963100e-01 2.356946e+03 
1.975100e-01 2.336190e+03 
1.987800e-01 2.314562e+03 
2.000100e-01 2.294035e+03 
2.012500e-01 2.273877e+03 
2.023400e-01 2.256410e+03 
2.036100e-01 2.236404e+03 
2.048900e-01 2.216755e+03 
2.060400e-01 2.199360e+03 
2.072200e-01 2.181770e+03 
2.084200e-01 2.164274e+03 
2.096900e-01 2.146027e+03 
2.109200e-01 2.128614e+03 
2.121100e-01 2.112059e+03 
2.132700e-01 2.096144e+03 
2.145200e-01 2.079232e+03 
2.157200e-01 2.063239e+03 
2.168800e-01 2.047994e+03 
2.180700e-01 2.032562e+03 
2.193400e-01 2.016317e+03 
2.206000e-01 2.000423e+03 
2.217500e-01 1.986111e+03 
2.229500e-01 1.971370e+03 
2.241400e-01 1.956960e+03 
2.253500e-01 1.942500e+03 
2.264900e-01 1.929052e+03 
2.277100e-01 1.914851e+03 
2.289900e-01 1.900162e+03 
2.301500e-01 1.887023e+03 
2.313600e-01 1.873492e+03 
2.325600e-01 1.860302e+03 
2.337700e-01 1.847171e+03 
2.350000e-01 1.833993e+03 
2.362000e-01 1.821336e+03 
2.374100e-01 1.808775e+03 
2.386500e-01 1.796066e+03 
2.399100e-01 1.783317e+03 
2.410400e-01 1.772095e+03 
2.422500e-01 1.760230e+03 
2.435000e-01 1.748125e+03 
2.447300e-01 1.736376e+03 
2.458700e-01 1.725670e+03 
2.470600e-01 1.714624e+03 
2.483300e-01 1.702978e+03 
2.495600e-01 1.691868e+03 
2.507600e-01 1.681198e+03 
2.519600e-01 1.670653e+03 
2.532200e-01 1.659712e+03 
2.543700e-01 1.649863e+03 
2.555500e-01 1.639883e+03 
2.568000e-01 1.629433e+03 
2.580100e-01 1.619436e+03 
2.592400e-01 1.609406e+03 
2.604100e-01 1.599979e+03 
2.616100e-01 1.590417e+03 
2.628400e-01 1.580728e+03 
2.640600e-01 1.571229e+03 
2.652200e-01 1.562298e+03 
2.664300e-01 1.553083e+03 
2.676500e-01 1.543896e+03 
2.688400e-01 1.535031e+03 
2.700700e-01 1.525966e+03 
2.712400e-01 1.517438e+03 
2.724800e-01 1.508497e+03 
2.736700e-01 1.499994e+03 
2.748800e-01 1.491424e+03 
2.761000e-01 1.482877e+03 
2.773200e-01 1.474422e+03 
2.785400e-01 1.466052e+03 
2.797000e-01 1.458165e+03 
2.808900e-01 1.450156e+03 
2.821400e-01 1.441832e+03 
2.833900e-01 1.433598e+03 
2.845500e-01 1.426013e+03 
2.857800e-01 1.418053e+03 
2.870300e-01 1.410049e+03 
2.882100e-01 1.402571e+03 
2.893900e-01 1.395155e+03 
2.906300e-01 1.387434e+03 
2.918900e-01 1.379671e+03 
2.930500e-01 1.372596e+03 
2.942500e-01 1.365346e+03 
2.954200e-01 1.358335e+03 
2.966500e-01 1.351038e+03 
2.978900e-01 1.343756e+03 
2.990400e-01 1.337069e+03 
3.002700e-01 1.329981e+03 
3.015100e-01 1.322906e+03 
3.026800e-01 1.316295e+03 
3.038500e-01 1.309747e+03 
3.050300e-01 1.303205e+03 
3.062600e-01 1.296450e+03 
3.075000e-01 1.289706e+03 
3.087000e-01 1.283244e+03 
3.099100e-01 1.276790e+03 
3.111200e-01 1.270400e+03 
3.123100e-01 1.264181e+03 
3.135300e-01 1.257865e+03 
3.147300e-01 1.251711e+03 
3.159900e-01 1.245311e+03 
3.171800e-01 1.239330e+03 
3.183700e-01 1.233408e+03 
3.196300e-01 1.227197e+03 
3.208400e-01 1.221288e+03 
3.220300e-01 1.215530e+03 
3.232000e-01 1.209935e+03 
3.244300e-01 1.204112e+03 
3.256700e-01 1.198296e+03 
3.269200e-01 1.192488e+03 
3.280800e-01 1.187146e+03 
3.292500e-01 1.181822e+03 
3.304800e-01 1.176279e+03 
3.317100e-01 1.170786e+03 
3.328900e-01 1.165564e+03 
3.340700e-01 1.160387e+03 
3.353600e-01 1.154797e+03 
3.365300e-01 1.149779e+03 
3.377100e-01 1.144762e+03 
3.389200e-01 1.139662e+03 
3.401600e-01 1.134481e+03 
3.413700e-01 1.129484e+03 
3.425300e-01 1.124743e+03 
3.437700e-01 1.119719e+03 
3.449800e-01 1.114858e+03 
3.461800e-01 1.110079e+03 
3.473600e-01 1.105426e+03 
3.485800e-01 1.100674e+03 
3.498100e-01 1.095923e+03 
3.510200e-01 1.091290e+03 
3.522000e-01 1.086809e+03 
3.533900e-01 1.082327e+03 
3.546400e-01 1.077683e+03 
3.558400e-01 1.073263e+03 
3.570600e-01 1.068807e+03 
3.582700e-01 1.064424e+03 
3.595000e-01 1.060006e+03 
3.607100e-01 1.055707e+03 
3.618900e-01 1.051557e+03 
3.631200e-01 1.047267e+03 
3.643200e-01 1.043116e+03 
3.655500e-01 1.038895e+03 
3.667300e-01 1.034879e+03 
3.679500e-01 1.030785e+03 
3.691900e-01 1.026658e+03 
3.703600e-01 1.022795e+03 
3.715700e-01 1.018831e+03 
3.727700e-01 1.014932e+03 
3.739900e-01 1.011001e+03 
3.752000e-01 1.007141e+03 
3.763900e-01 1.003373e+03 
3.775800e-01 9.996349e+02 
3.788200e-01 9.957701e+02 
3.800300e-01 9.920286e+02 
3.812100e-01 9.883972e+02 
3.824200e-01 9.846947e+02 
3.836100e-01 9.810813e+02 
3.848600e-01 9.773152e+02 
3.860400e-01 9.737874e+02 
3.872400e-01 9.702268e+02 
3.884600e-01 9.666647e+02 
3.896500e-01 9.632279e+02 
3.908700e-01 9.597311e+02 
3.920600e-01 9.563459e+02 
3.933100e-01 9.528171e+02 
3.945300e-01 9.493995e+02 
3.957200e-01 9.460794e+02 
3.969300e-01 9.427253e+02 
3.981700e-01 9.393140e+02 
3.993500e-01 9.360919e+02 
4.094840e-01 9.092565e+02 
4.272360e-01 8.661006e+02 
4.454600e-01 8.258011e+02 
4.630560e-01 7.902122e+02 
4.804610e-01 7.578090e+02 
4.980690e-01 7.276200e+02 
5.159230e-01 6.993398e+02 
5.317440e-01 6.761276e+02 
5.489640e-01 6.524988e+02 
5.671990e-01 6.292424e+02 
5.838690e-01 6.094619e+02 
6.018840e-01 5.895524e+02 
6.202330e-01 5.706608e+02 
6.379250e-01 5.535670e+02 
6.545410e-01 5.384938e+02 
6.714560e-01 5.240237e+02 
6.892080e-01 5.096741e+02 
7.066010e-01 4.963179e+02 
7.240540e-01 4.836435e+02 
7.420450e-01 4.713094e+02 
7.593780e-01 4.598960e+02 
7.764720e-01 4.491832e+02 
7.942840e-01 4.385478e+02 
8.116170e-01 4.285504e+02 
8.288310e-01 4.190631e+02 
8.462240e-01 4.098001e+02 
8.631980e-01 4.011035e+02 
8.810700e-01 3.922949e+02 
8.989410e-01 3.838228e+02 
9.166330e-01 3.756975e+02 
9.345640e-01 3.676972e+02 
9.515980e-01 3.603461e+02 
9.688720e-01 3.531439e+02 
9.865640e-01 3.459769e+02 
1.031870e+00 3.285581e+02 
1.063490e+00 3.171442e+02 
1.097920e+00 3.053336e+02 
1.134370e+00 2.935345e+02 
1.167730e+00 2.832348e+02 
1.203830e+00 2.726720e+02 
1.240470e+00 2.625072e+02 
1.275790e+00 2.531556e+02 
1.309140e+00 2.447767e+02 
1.342970e+00 2.366141e+02 
1.378420e+00 2.285044e+02 
1.413200e+00 2.208846e+02 
1.448110e+00 2.135866e+02 
1.484090e+00 2.064189e+02 
1.518820e+00 1.998096e+02 
1.552880e+00 1.935798e+02 
1.588630e+00 1.873489e+02 
1.623230e+00 1.815820e+02 
1.657720e+00 1.760729e+02 
1.692450e+00 1.707891e+02 
1.726400e+00 1.657907e+02 
1.762200e+00 1.607358e+02 
1.797880e+00 1.559183e+02 
1.833270e+00 1.513376e+02 
1.869070e+00 1.468884e+02 
1.903200e+00 1.428256e+02 
1.937740e+00 1.388687e+02 
1.973190e+00 1.349617e+02 
2.007440e+00 1.313308e+02 
2.042160e+00 1.277885e+02 
2.077900e+00 1.242736e+02 
2.112390e+00 1.210281e+02 
2.146220e+00 1.179310e+02 
2.181600e+00 1.148265e+02 
2.216930e+00 1.118408e+02 
2.250760e+00 1.090769e+02 
2.286500e+00 1.062570e+02 
2.321770e+00 1.035766e+02 
2.355950e+00 1.010702e+02 
2.391280e+00 9.855910e+01 
2.426240e+00 9.616600e+01 
2.460670e+00 9.388617e+01 
2.495640e+00 9.164018e+01 
2.531080e+00 8.945135e+01 
2.566220e+00 8.734744e+01 
2.600830e+00 8.534220e+01 
2.635080e+00 8.342234e+01 
2.670340e+00 8.150085e+01 
2.705970e+00 7.962937e+01 
2.740040e+00 7.789820e+01 
2.774520e+00 7.618959e+01 
2.809730e+00 7.450314e+01 
2.844390e+00 7.289556e+01 
2.879960e+00 7.129378e+01 
2.914860e+00 6.976842e+01 
2.949410e+00 6.830419e+01 
2.984440e+00 6.686658e+01 
3.019760e+00 6.545603e+01 
3.054730e+00 6.409871e+01 
3.089030e+00 6.280674e+01 
3.124060e+00 6.152551e+01 
3.159560e+00 6.026477e+01 
3.194710e+00 5.905267e+01 
3.229010e+00 5.790302e+01 
3.263320e+00 5.677943e+01 
3.297930e+00 5.567821e+01 
3.332830e+00 5.460012e+01 
3.368040e+00 5.354111e+01 
3.403300e+00 5.250877e+01 
3.438450e+00 5.150576e+01 
3.473060e+00 5.054418e+01 
3.508440e+00 4.959154e+01 
3.543110e+00 4.868220e+01 
3.577470e+00 4.780131e+01 
3.613040e+00 4.691396e+01 
3.648120e+00 4.606416e+01 
3.682910e+00 4.524097e+01 
3.718050e+00 4.442702e+01 
3.753320e+00 4.363288e+01 
3.787980e+00 4.287508e+01 
3.822290e+00 4.214190e+01 
3.857020e+00 4.141576e+01 
3.891920e+00 4.070380e+01 
3.926650e+00 4.001249e+01 
3.961970e+00 3.932630e+01 
3.997360e+00 3.865536e+01 
4.031670e+00 3.802045e+01 
4.066330e+00 3.739526e+01 
4.101420e+00 3.677688e+01 
4.136200e+00 3.617790e+01 
4.170810e+00 3.559528e+01 
4.206250e+00 3.501361e+01 
4.241580e+00 3.444712e+01 
4.276300e+00 3.390250e+01 
4.310970e+00 3.337039e+01 
4.346120e+00 3.284342e+01 
4.380600e+00 3.233888e+01 
4.414730e+00 3.184999e+01 
4.450350e+00 3.135025e+01 
4.485320e+00 3.087014e+01 
4.519810e+00 3.040784e+01 
4.555430e+00 2.994098e+01 
4.590870e+00 2.948677e+01 
4.625480e+00 2.905338e+01 
4.659910e+00 2.863096e+01 
4.695230e+00 2.820631e+01 
4.729960e+00 2.779719e+01 
4.764450e+00 2.739890e+01 
4.799530e+00 2.700172e+01 
4.834910e+00 2.660913e+01 
4.869700e+00 2.623339e+01 
4.904370e+00 2.586663e+01 
4.939450e+00 2.550267e+01 
4.973940e+00 2.515158e+01 
5.008430e+00 2.480712e+01 
5.043810e+00 2.446045e+01 
5.078840e+00 2.412372e+01 
5.113500e+00 2.379677e+01 
5.148890e+00 2.347177e+01 
5.184210e+00 2.315358e+01 
5.219060e+00 2.284507e+01 
5.253660e+00 2.254332e+01 
5.288570e+00 2.224437e+01 
5.323420e+00 2.195250e+01 
5.358440e+00 2.166577e+01 
5.393590e+00 2.138312e+01 
5.428310e+00 2.110886e+01 
5.462800e+00 2.084117e+01 
5.497640e+00 2.057545e+01 
5.532670e+00 2.031460e+01 
5.567280e+00 2.006183e+01 
5.602000e+00 1.981258e+01 
5.637270e+00 1.956280e+01 
5.672410e+00 1.931800e+01 
5.707020e+00 1.908095e+01 
5.742040e+00 1.884681e+01 
5.777430e+00 1.861452e+01 
5.812210e+00 1.839003e+01 
5.846820e+00 1.817023e+01 
5.881610e+00 1.795287e+01 
5.916510e+00 1.773837e+01 
5.951600e+00 1.752688e+01 
5.986560e+00 1.731988e+01 
6.021830e+00 1.711441e+01 
6.056490e+00 1.691616e+01 
6.091160e+00 1.672134e+01 
6.125830e+00 1.652958e+01 
6.161090e+00 1.633759e+01 
6.195760e+00 1.615174e+01 
6.230420e+00 1.596880e+01 
6.265690e+00 1.578555e+01 
6.300950e+00 1.560603e+01 
6.335620e+00 1.543222e+01 
6.370880e+00 1.525813e+01 
6.405550e+00 1.509001e+01 
6.440220e+00 1.492458e+01 
6.475480e+00 1.475885e+01 
6.510150e+00 1.459855e+01 
6.544810e+00 1.444115e+01 
6.580080e+00 1.428334e+01 
6.614750e+00 1.413048e+01 
6.649410e+00 1.397990e+01 
6.684080e+00 1.383144e+01 
6.719340e+00 1.368263e+01 
6.754010e+00 1.353860e+01 
6.788680e+00 1.339703e+01 
6.823940e+00 1.325510e+01 
6.859800e+00 1.311284e+01 
6.894470e+00 1.297768e+01 
6.929140e+00 1.284456e+01 
6.963800e+00 1.271332e+01 
6.999070e+00 1.258162e+01 
7.033730e+00 1.245402e+01 
7.068400e+00 1.232812e+01 
7.103660e+00 1.220184e+01 
7.138330e+00 1.207971e+01 
7.173600e+00 1.195786e+01 
7.208260e+00 1.183973e+01 
7.243530e+00 1.172113e+01 
7.277600e+00 1.160785e+01 
7.312860e+00 1.149192e+01 
7.348120e+00 1.137755e+01 
7.382790e+00 1.126658e+01 
7.417460e+00 1.115769e+01 
7.452720e+00 1.104871e+01 
7.487390e+00 1.094295e+01 
7.522650e+00 1.083679e+01 
7.557320e+00 1.073376e+01 
7.591990e+00 1.063206e+01 
7.627250e+00 1.052995e+01 
7.662510e+00 1.042916e+01 
7.697180e+00 1.033163e+01 
7.731850e+00 1.023544e+01 
7.766510e+00 1.014048e+01 
7.801180e+00 1.004667e+01 
7.836440e+00 9.952467e+00 
7.871110e+00 9.860998e+00 
7.906380e+00 9.769101e+00 
7.941040e+00 9.679909e+00 
7.976310e+00 9.590452e+00 
8.011570e+00 9.502350e+00 
8.046240e+00 9.416779e+00 
8.080900e+00 9.332262e+00 
8.115570e+00 9.248782e+00 
8.150830e+00 9.165083e+00 
8.185500e+00 9.083771e+00 
8.220770e+00 9.002041e+00 
8.255430e+00 8.922681e+00 
8.290100e+00 8.844416e+00 
8.324770e+00 8.767089e+00 
8.359430e+00 8.690686e+00 
8.394700e+00 8.613850e+00 
8.429960e+00 8.538049e+00 
8.464630e+00 8.464494e+00 
8.499890e+00 8.390554e+00 
8.534560e+00 8.318690e+00 
8.569200e+00 8.247707e+00 
