# Parameters:
# omega_b = 0.021909, omega_m = 0.131299, n_s = 0.892520, h = 76.496063, w = -1.000000, sigma_8 = 0.881102
# z = 0.500000
#
# k[1/Mpc] # P(k):
8.694000e-04 1.758689e+04 
2.077466e-03 3.494350e+04 
3.285532e-03 4.749475e+04 
4.493598e-03 5.649402e+04 
5.701664e-03 6.267861e+04 
6.909730e-03 6.663850e+04 
8.117797e-03 6.894095e+04 
9.325863e-03 6.987802e+04 
1.053393e-02 6.972033e+04 
1.174199e-02 6.870438e+04 
1.295006e-02 6.698204e+04 
1.415813e-02 6.474896e+04 
1.536619e-02 6.216410e+04 
1.657426e-02 5.933592e+04 
1.778233e-02 5.633708e+04 
1.899039e-02 5.324532e+04 
2.019846e-02 5.016975e+04 
2.140652e-02 4.723976e+04 
2.261459e-02 4.448872e+04 
2.382266e-02 4.193877e+04 
2.503072e-02 3.960568e+04 
2.623879e-02 3.749095e+04 
2.744685e-02 3.559297e+04 
2.865492e-02 3.390159e+04 
2.986299e-02 3.240154e+04 
3.100100e-02 3.115488e+04 
3.220400e-02 2.999287e+04 
3.288100e-02 2.940572e+04 
3.424300e-02 2.834745e+04 
3.555100e-02 2.745877e+04 
3.686000e-02 2.667410e+04 
3.795000e-02 2.608192e+04 
3.929100e-02 2.541418e+04 
4.039800e-02 2.489410e+04 
4.164000e-02 2.433212e+04 
4.294400e-02 2.374257e+04 
4.415000e-02 2.319829e+04 
4.542900e-02 2.259780e+04 
4.660900e-02 2.203365e+04 
4.782300e-02 2.141662e+04 
4.892900e-02 2.084165e+04 
5.031200e-02 2.009869e+04 
5.155900e-02 1.940793e+04 
5.238100e-02 1.894730e+04 
5.378200e-02 1.815965e+04 
5.513400e-02 1.740193e+04 
5.627600e-02 1.677153e+04 
5.735300e-02 1.619215e+04 
5.870100e-02 1.549393e+04 
5.988700e-02 1.491032e+04 
6.113500e-02 1.433036e+04 
6.225900e-02 1.384142e+04 
6.340100e-02 1.337902e+04 
6.480200e-02 1.285674e+04 
6.601100e-02 1.244992e+04 
6.725500e-02 1.207109e+04 
6.829100e-02 1.178806e+04 
6.958600e-02 1.146643e+04 
7.071100e-02 1.121776e+04 
7.192300e-02 1.097689e+04 
7.307400e-02 1.077119e+04 
7.412300e-02 1.060065e+04 
7.550400e-02 1.039866e+04 
7.663100e-02 1.024699e+04 
7.791200e-02 1.008797e+04 
7.912700e-02 9.944630e+03 
8.027600e-02 9.812226e+03 
8.138400e-02 9.685648e+03 
8.272200e-02 9.531579e+03 
8.406100e-02 9.373571e+03 
8.534100e-02 9.214060e+03 
8.653800e-02 9.056602e+03 
8.759800e-02 8.912544e+03 
8.900300e-02 8.713650e+03 
9.009000e-02 8.552903e+03 
9.113300e-02 8.393045e+03 
9.239600e-02 8.197302e+03 
9.358000e-02 8.010614e+03 
9.496100e-02 7.790200e+03 
9.608400e-02 7.612944e+03 
9.727500e-02 7.428027e+03 
9.852600e-02 7.237531e+03 
9.973800e-02 7.059951e+03 
1.009000e-01 6.895860e+03 
1.020900e-01 6.738076e+03 
1.034000e-01 6.573624e+03 
1.046000e-01 6.431694e+03 
1.057200e-01 6.311115e+03 
1.069100e-01 6.189703e+03 
1.082500e-01 6.066338e+03 
1.093900e-01 5.970261e+03 
1.105400e-01 5.879248e+03 
1.116900e-01 5.798175e+03 
1.129600e-01 5.713406e+03 
1.142000e-01 5.638551e+03 
1.153300e-01 5.573578e+03 
1.166400e-01 5.502551e+03 
1.177800e-01 5.443048e+03 
1.190000e-01 5.381263e+03 
1.201200e-01 5.324281e+03 
1.213400e-01 5.263388e+03 
1.227100e-01 5.192001e+03 
1.238900e-01 5.130782e+03 
1.250700e-01 5.066722e+03 
1.263200e-01 4.998643e+03 
1.275500e-01 4.929210e+03 
1.287500e-01 4.861052e+03 
1.299900e-01 4.789100e+03 
1.311300e-01 4.722955e+03 
1.323500e-01 4.651504e+03 
1.335900e-01 4.579691e+03 
1.347100e-01 4.515103e+03 
1.359800e-01 4.443266e+03 
1.372100e-01 4.374813e+03 
1.384300e-01 4.308625e+03 
1.395700e-01 4.248496e+03 
1.407700e-01 4.186688e+03 
1.420300e-01 4.124546e+03 
1.432800e-01 4.064283e+03 
1.444500e-01 4.011003e+03 
1.456300e-01 3.958370e+03 
1.468900e-01 3.904946e+03 
1.480500e-01 3.857248e+03 
1.491700e-01 3.812886e+03 
1.503800e-01 3.766916e+03 
1.516400e-01 3.720317e+03 
1.528200e-01 3.678844e+03 
1.540200e-01 3.637475e+03 
1.551900e-01 3.598805e+03 
1.564300e-01 3.558819e+03 
1.576600e-01 3.520195e+03 
1.588700e-01 3.483246e+03 
1.600900e-01 3.446694e+03 
1.612700e-01 3.412101e+03 
1.625400e-01 3.375559e+03 
1.637600e-01 3.340904e+03 
1.649500e-01 3.307586e+03 
1.662200e-01 3.272582e+03 
1.674000e-01 3.240119e+03 
1.685000e-01 3.210363e+03 
1.697500e-01 3.176718e+03 
1.710300e-01 3.142486e+03 
1.722200e-01 3.111227e+03 
1.734400e-01 3.078962e+03 
1.746400e-01 3.047740e+03 
1.758700e-01 3.016099e+03 
1.770900e-01 2.984870e+03 
1.782700e-01 2.955173e+03 
1.794600e-01 2.925539e+03 
1.807000e-01 2.895059e+03 
1.819100e-01 2.865818e+03 
1.830100e-01 2.839665e+03 
1.842200e-01 2.811349e+03 
1.855000e-01 2.781910e+03 
1.867000e-01 2.755027e+03 
1.879200e-01 2.728136e+03 
1.890900e-01 2.702823e+03 
1.902800e-01 2.677836e+03 
1.915200e-01 2.652210e+03 
1.926900e-01 2.628515e+03 
1.939000e-01 2.604739e+03 
1.951700e-01 2.580178e+03 
1.963100e-01 2.558581e+03 
1.975100e-01 2.536487e+03 
1.987800e-01 2.513463e+03 
2.000100e-01 2.491598e+03 
2.012500e-01 2.470093e+03 
2.023400e-01 2.451458e+03 
2.036100e-01 2.430089e+03 
2.048900e-01 2.409007e+03 
2.060400e-01 2.390342e+03 
2.072200e-01 2.371457e+03 
2.084200e-01 2.352538e+03 
2.096900e-01 2.332806e+03 
2.109200e-01 2.313974e+03 
2.121100e-01 2.295926e+03 
2.132700e-01 2.278567e+03 
2.145200e-01 2.260120e+03 
2.157200e-01 2.242579e+03 
2.168800e-01 2.225814e+03 
2.180700e-01 2.208845e+03 
2.193400e-01 2.190940e+03 
2.206000e-01 2.173346e+03 
2.217500e-01 2.157504e+03 
2.229500e-01 2.141187e+03 
2.241400e-01 2.125142e+03 
2.253500e-01 2.109039e+03 
2.264900e-01 2.094063e+03 
2.277100e-01 2.078215e+03 
2.289900e-01 2.061783e+03 
2.301500e-01 2.047086e+03 
2.313600e-01 2.031951e+03 
2.325600e-01 2.017144e+03 
2.337700e-01 2.002403e+03 
2.350000e-01 1.987612e+03 
2.362000e-01 1.973389e+03 
2.374100e-01 1.959257e+03 
2.386500e-01 1.944958e+03 
2.399100e-01 1.930615e+03 
2.410400e-01 1.917982e+03 
2.422500e-01 1.904625e+03 
2.435000e-01 1.890999e+03 
2.447300e-01 1.877778e+03 
2.458700e-01 1.865749e+03 
2.470600e-01 1.853339e+03 
2.483300e-01 1.840256e+03 
2.495600e-01 1.827795e+03 
2.507600e-01 1.815857e+03 
2.519600e-01 1.804058e+03 
2.532200e-01 1.791818e+03 
2.543700e-01 1.780839e+03 
2.555500e-01 1.769743e+03 
2.568000e-01 1.758125e+03 
2.580100e-01 1.747011e+03 
2.592400e-01 1.735915e+03 
2.604100e-01 1.725511e+03 
2.616100e-01 1.714958e+03 
2.628400e-01 1.704265e+03 
2.640600e-01 1.693838e+03 
2.652200e-01 1.684057e+03 
2.664300e-01 1.673966e+03 
2.676500e-01 1.663904e+03 
2.688400e-01 1.654233e+03 
2.700700e-01 1.644369e+03 
2.712400e-01 1.635088e+03 
2.724800e-01 1.625358e+03 
2.736700e-01 1.616129e+03 
2.748800e-01 1.606850e+03 
2.761000e-01 1.597596e+03 
2.773200e-01 1.588442e+03 
2.785400e-01 1.579390e+03 
2.797000e-01 1.570880e+03 
2.808900e-01 1.562239e+03 
2.821400e-01 1.553259e+03 
2.833900e-01 1.544375e+03 
2.845500e-01 1.536210e+03 
2.857800e-01 1.527640e+03 
2.870300e-01 1.519023e+03 
2.882100e-01 1.510973e+03 
2.893900e-01 1.502997e+03 
2.906300e-01 1.494697e+03 
2.918900e-01 1.486352e+03 
2.930500e-01 1.478747e+03 
2.942500e-01 1.470955e+03 
2.954200e-01 1.463426e+03 
2.966500e-01 1.455589e+03 
2.978900e-01 1.447768e+03 
2.990400e-01 1.440587e+03 
3.002700e-01 1.432979e+03 
3.015100e-01 1.425386e+03 
3.026800e-01 1.418292e+03 
3.038500e-01 1.411265e+03 
3.050300e-01 1.404244e+03 
3.062600e-01 1.397002e+03 
3.075000e-01 1.389772e+03 
3.087000e-01 1.382843e+03 
3.099100e-01 1.375922e+03 
3.111200e-01 1.369074e+03 
3.123100e-01 1.362413e+03 
3.135300e-01 1.355649e+03 
3.147300e-01 1.349057e+03 
3.159900e-01 1.342203e+03 
3.171800e-01 1.335801e+03 
3.183700e-01 1.329464e+03 
3.196300e-01 1.322817e+03 
3.208400e-01 1.316495e+03 
3.220300e-01 1.310334e+03 
3.232000e-01 1.304350e+03 
3.244300e-01 1.298124e+03 
3.256700e-01 1.291905e+03 
3.269200e-01 1.285695e+03 
3.280800e-01 1.279984e+03 
3.292500e-01 1.274294e+03 
3.304800e-01 1.268373e+03 
3.317100e-01 1.262505e+03 
3.328900e-01 1.256926e+03 
3.340700e-01 1.251395e+03 
3.353600e-01 1.245425e+03 
3.365300e-01 1.240066e+03 
3.377100e-01 1.234709e+03 
3.389200e-01 1.229262e+03 
3.401600e-01 1.223729e+03 
3.413700e-01 1.218393e+03 
3.425300e-01 1.213331e+03 
3.437700e-01 1.207966e+03 
3.449800e-01 1.202777e+03 
3.461800e-01 1.197674e+03 
3.473600e-01 1.192706e+03 
3.485800e-01 1.187630e+03 
3.498100e-01 1.182556e+03 
3.510200e-01 1.177607e+03 
3.522000e-01 1.172821e+03 
3.533900e-01 1.168034e+03 
3.546400e-01 1.163071e+03 
3.558400e-01 1.158347e+03 
3.570600e-01 1.153585e+03 
3.582700e-01 1.148901e+03 
3.595000e-01 1.144179e+03 
3.607100e-01 1.139583e+03 
3.618900e-01 1.135146e+03 
3.631200e-01 1.130558e+03 
3.643200e-01 1.126119e+03 
3.655500e-01 1.121606e+03 
3.667300e-01 1.117312e+03 
3.679500e-01 1.112929e+03 
3.691900e-01 1.108510e+03 
3.703600e-01 1.104374e+03 
3.715700e-01 1.100130e+03 
3.727700e-01 1.095955e+03 
3.739900e-01 1.091746e+03 
3.752000e-01 1.087610e+03 
3.763900e-01 1.083574e+03 
3.775800e-01 1.079569e+03 
3.788200e-01 1.075428e+03 
3.800300e-01 1.071419e+03 
3.812100e-01 1.067525e+03 
3.824200e-01 1.063552e+03 
3.836100e-01 1.059675e+03 
3.848600e-01 1.055633e+03 
3.860400e-01 1.051848e+03 
3.872400e-01 1.048027e+03 
3.884600e-01 1.044202e+03 
3.896500e-01 1.040511e+03 
3.908700e-01 1.036755e+03 
3.920600e-01 1.033119e+03 
3.933100e-01 1.029329e+03 
3.945300e-01 1.025658e+03 
3.957200e-01 1.022088e+03 
3.969300e-01 1.018481e+03 
3.981700e-01 1.014812e+03 
3.993500e-01 1.011347e+03 
4.094840e-01 9.824702e+02 
4.272360e-01 9.359641e+02 
4.454600e-01 8.925100e+02 
4.630560e-01 8.541172e+02 
4.804610e-01 8.191647e+02 
4.980690e-01 7.866047e+02 
5.159230e-01 7.561066e+02 
5.317440e-01 7.310715e+02 
5.489640e-01 7.055662e+02 
5.671990e-01 6.804485e+02 
5.838690e-01 6.590548e+02 
6.018840e-01 6.374969e+02 
6.202330e-01 6.169914e+02 
6.379250e-01 5.984246e+02 
6.545410e-01 5.820106e+02 
6.714560e-01 5.662325e+02 
6.892080e-01 5.505615e+02 
7.066010e-01 5.359506e+02 
7.240540e-01 5.220672e+02 
7.420450e-01 5.085423e+02 
7.593780e-01 4.960102e+02 
7.764720e-01 4.842368e+02 
7.942840e-01 4.725435e+02 
8.116170e-01 4.615454e+02 
8.288310e-01 4.510989e+02 
8.462240e-01 4.409032e+02 
8.631980e-01 4.313281e+02 
8.810700e-01 4.216316e+02 
8.989410e-01 4.123065e+02 
9.166330e-01 4.033632e+02 
9.345640e-01 3.945643e+02 
9.515980e-01 3.864836e+02 
9.688720e-01 3.785693e+02 
9.865640e-01 3.707006e+02 
1.031870e+00 3.515956e+02 
1.063490e+00 3.390954e+02 
1.097920e+00 3.261822e+02 
1.134370e+00 3.133006e+02 
1.167730e+00 3.020756e+02 
1.203830e+00 2.905807e+02 
1.240470e+00 2.795375e+02 
1.275790e+00 2.693934e+02 
1.309140e+00 2.603167e+02 
1.342970e+00 2.514894e+02 
1.378420e+00 2.427294e+02 
1.413200e+00 2.345069e+02 
1.448110e+00 2.266429e+02 
1.484090e+00 2.189262e+02 
1.518820e+00 2.118223e+02 
1.552880e+00 2.051307e+02 
1.588630e+00 1.984471e+02 
1.623230e+00 1.922646e+02 
1.657720e+00 1.863652e+02 
1.692450e+00 1.807099e+02 
1.726400e+00 1.753646e+02 
1.762200e+00 1.699653e+02 
1.797880e+00 1.648229e+02 
1.833270e+00 1.599354e+02 
1.869070e+00 1.551920e+02 
1.903200e+00 1.508631e+02 
1.937740e+00 1.466500e+02 
1.973190e+00 1.424928e+02 
2.007440e+00 1.386312e+02 
2.042160e+00 1.348652e+02 
2.077900e+00 1.311300e+02 
2.112390e+00 1.276836e+02 
2.146220e+00 1.243963e+02 
2.181600e+00 1.211019e+02 
2.216930e+00 1.179353e+02 
2.250760e+00 1.150051e+02 
2.286500e+00 1.120167e+02 
2.321770e+00 1.091773e+02 
2.355950e+00 1.065228e+02 
2.391280e+00 1.038645e+02 
2.426240e+00 1.013318e+02 
2.460670e+00 9.891981e+01 
2.495640e+00 9.654417e+01 
2.531080e+00 9.422955e+01 
2.566220e+00 9.200564e+01 
2.600830e+00 8.988658e+01 
2.635080e+00 8.785815e+01 
2.670340e+00 8.582856e+01 
2.705970e+00 8.385231e+01 
2.740040e+00 8.202457e+01 
2.774520e+00 8.022087e+01 
2.809730e+00 7.844098e+01 
2.844390e+00 7.674463e+01 
2.879960e+00 7.505477e+01 
2.914860e+00 7.344577e+01 
2.949410e+00 7.190143e+01 
2.984440e+00 7.038551e+01 
3.019760e+00 6.889842e+01 
3.054730e+00 6.746764e+01 
3.089030e+00 6.610580e+01 
3.124060e+00 6.475547e+01 
3.159560e+00 6.342704e+01 
3.194710e+00 6.214998e+01 
3.229010e+00 6.093879e+01 
3.263320e+00 5.975524e+01 
3.297930e+00 5.859534e+01 
3.332830e+00 5.745992e+01 
3.368040e+00 5.634468e+01 
3.403300e+00 5.525758e+01 
3.438450e+00 5.420151e+01 
3.473060e+00 5.318909e+01 
3.508440e+00 5.218626e+01 
3.543110e+00 5.122900e+01 
3.577470e+00 5.030168e+01 
3.613040e+00 4.936760e+01 
3.648120e+00 4.847322e+01 
3.682910e+00 4.760686e+01 
3.718050e+00 4.675025e+01 
3.753320e+00 4.591451e+01 
3.787980e+00 4.511706e+01 
3.822290e+00 4.434553e+01 
3.857020e+00 4.358143e+01 
3.891920e+00 4.283228e+01 
3.926650e+00 4.210495e+01 
3.961970e+00 4.138298e+01 
3.997360e+00 4.067704e+01 
4.031670e+00 4.000899e+01 
4.066330e+00 3.935120e+01 
4.101420e+00 3.870055e+01 
4.136200e+00 3.807034e+01 
4.170810e+00 3.745734e+01 
4.206250e+00 3.684539e+01 
4.241580e+00 3.624942e+01 
4.276300e+00 3.567645e+01 
4.310970e+00 3.511663e+01 
4.346120e+00 3.456220e+01 
4.380600e+00 3.403134e+01 
4.414730e+00 3.351696e+01 
4.450350e+00 3.299119e+01 
4.485320e+00 3.248607e+01 
4.519810e+00 3.199966e+01 
4.555430e+00 3.150844e+01 
4.590870e+00 3.103053e+01 
4.625480e+00 3.057452e+01 
4.659910e+00 3.013005e+01 
4.695230e+00 2.968322e+01 
4.729960e+00 2.925272e+01 
4.764450e+00 2.883363e+01 
4.799530e+00 2.841570e+01 
4.834910e+00 2.800261e+01 
4.869700e+00 2.760720e+01 
4.904370e+00 2.722124e+01 
4.939450e+00 2.683820e+01 
4.973940e+00 2.646869e+01 
5.008430e+00 2.610614e+01 
5.043810e+00 2.574128e+01 
5.078840e+00 2.538689e+01 
5.113500e+00 2.504281e+01 
5.148890e+00 2.470073e+01 
5.184210e+00 2.436582e+01 
5.219060e+00 2.404108e+01 
5.253660e+00 2.372343e+01 
5.288570e+00 2.340873e+01 
5.323420e+00 2.310147e+01 
5.358440e+00 2.279961e+01 
5.393590e+00 2.250204e+01 
5.428310e+00 2.221330e+01 
5.462800e+00 2.193146e+01 
5.497640e+00 2.165171e+01 
5.532670e+00 2.137705e+01 
5.567280e+00 2.111090e+01 
5.602000e+00 2.084845e+01 
5.637270e+00 2.058543e+01 
5.672410e+00 2.032764e+01 
5.707020e+00 2.007803e+01 
5.742040e+00 1.983147e+01 
5.777430e+00 1.958686e+01 
5.812210e+00 1.935046e+01 
5.846820e+00 1.911897e+01 
5.881610e+00 1.889003e+01 
5.916510e+00 1.866411e+01 
5.951600e+00 1.844135e+01 
5.986560e+00 1.822331e+01 
6.021830e+00 1.800688e+01 
6.056490e+00 1.779804e+01 
6.091160e+00 1.759282e+01 
6.125830e+00 1.739080e+01 
6.161090e+00 1.718856e+01 
6.195760e+00 1.699276e+01 
6.230420e+00 1.680004e+01 
6.265690e+00 1.660700e+01 
6.300950e+00 1.641784e+01 
6.335620e+00 1.623469e+01 
6.370880e+00 1.605125e+01 
6.405550e+00 1.587411e+01 
6.440220e+00 1.569982e+01 
6.475480e+00 1.552522e+01 
6.510150e+00 1.535631e+01 
6.544810e+00 1.519044e+01 
6.580080e+00 1.502414e+01 
6.614750e+00 1.486306e+01 
6.649410e+00 1.470436e+01 
6.684080e+00 1.454791e+01 
6.719340e+00 1.439109e+01 
6.754010e+00 1.423930e+01 
6.788680e+00 1.409008e+01 
6.823940e+00 1.394049e+01 
6.859800e+00 1.379054e+01 
6.894470e+00 1.364808e+01 
6.929140e+00 1.350776e+01 
6.963800e+00 1.336943e+01 
6.999070e+00 1.323063e+01 
7.033730e+00 1.309613e+01 
7.068400e+00 1.296344e+01 
7.103660e+00 1.283034e+01 
7.138330e+00 1.270161e+01 
7.173600e+00 1.257315e+01 
7.208260e+00 1.244862e+01 
7.243530e+00 1.232360e+01 
7.277600e+00 1.220417e+01 
7.312860e+00 1.208195e+01 
7.348120e+00 1.196137e+01 
7.382790e+00 1.184439e+01 
7.417460e+00 1.172959e+01 
7.452720e+00 1.161470e+01 
7.487390e+00 1.150322e+01 
7.522650e+00 1.139131e+01 
7.557320e+00 1.128269e+01 
7.591990e+00 1.117546e+01 
7.627250e+00 1.106780e+01 
7.662510e+00 1.096153e+01 
7.697180e+00 1.085870e+01 
7.731850e+00 1.075728e+01 
7.766510e+00 1.065717e+01 
7.801180e+00 1.055827e+01 
7.836440e+00 1.045895e+01 
7.871110e+00 1.036250e+01 
7.906380e+00 1.026561e+01 
7.941040e+00 1.017157e+01 
7.976310e+00 1.007725e+01 
8.011570e+00 9.984357e+00 
8.046240e+00 9.894135e+00 
8.080900e+00 9.805026e+00 
8.115570e+00 9.717011e+00 
8.150830e+00 9.628758e+00 
8.185500e+00 9.543024e+00 
8.220770e+00 9.456851e+00 
8.255430e+00 9.373179e+00 
8.290100e+00 9.290664e+00 
8.324770e+00 9.209140e+00 
8.359430e+00 9.128592e+00 
8.394700e+00 9.047590e+00 
8.429960e+00 8.967670e+00 
8.464630e+00 8.890110e+00 
8.499890e+00 8.812145e+00 
8.534560e+00 8.736372e+00 
8.569200e+00 8.661529e+00 
