# Parameters:
# omega_b = 0.022870, omega_m = 0.137913, n_s = 0.990157, h = 62.322835, w = -1.000000, sigma_8 = 0.829134
# z = 0.500000
#
# k[1/Mpc] # P(k):
8.694000e-04 1.018649e+04 
2.077466e-03 2.220430e+04 
3.285532e-03 3.172261e+04 
4.493598e-03 3.912260e+04 
5.701664e-03 4.466007e+04 
6.909730e-03 4.862035e+04 
8.117797e-03 5.133882e+04 
9.325863e-03 5.298639e+04 
1.053393e-02 5.373544e+04 
1.174199e-02 5.374713e+04 
1.295006e-02 5.312459e+04 
1.415813e-02 5.201227e+04 
1.536619e-02 5.053464e+04 
1.657426e-02 4.877876e+04 
1.778233e-02 4.684658e+04 
1.899039e-02 4.490521e+04 
2.019846e-02 4.297841e+04 
2.140652e-02 4.105467e+04 
2.261459e-02 3.916277e+04 
2.382266e-02 3.735192e+04 
2.503072e-02 3.565095e+04 
2.623879e-02 3.407058e+04 
2.744685e-02 3.261399e+04 
2.865492e-02 3.128507e+04 
2.986299e-02 3.007927e+04 
3.100100e-02 2.905245e+04 
3.220400e-02 2.807326e+04 
3.288100e-02 2.756811e+04 
3.424300e-02 2.664057e+04 
3.555100e-02 2.584467e+04 
3.686000e-02 2.512855e+04 
3.795000e-02 2.458159e+04 
3.929100e-02 2.396054e+04 
4.039800e-02 2.347816e+04 
4.164000e-02 2.296108e+04 
4.294400e-02 2.243016e+04 
4.415000e-02 2.194881e+04 
4.542900e-02 2.143211e+04 
4.660900e-02 2.095542e+04 
4.782300e-02 2.044650e+04 
4.892900e-02 1.997780e+04 
5.031200e-02 1.937861e+04 
5.155900e-02 1.882496e+04 
5.238100e-02 1.845589e+04 
5.378200e-02 1.782316e+04 
5.513400e-02 1.720940e+04 
5.627600e-02 1.669271e+04 
5.735300e-02 1.621159e+04 
5.870100e-02 1.562187e+04 
5.988700e-02 1.511930e+04 
6.113500e-02 1.460943e+04 
6.225900e-02 1.416954e+04 
6.340100e-02 1.374381e+04 
6.480200e-02 1.325183e+04 
6.601100e-02 1.285686e+04 
6.725500e-02 1.247939e+04 
6.829100e-02 1.218943e+04 
6.958600e-02 1.185347e+04 
7.071100e-02 1.158737e+04 
7.192300e-02 1.132484e+04 
7.307400e-02 1.109717e+04 
7.412300e-02 1.090648e+04 
7.550400e-02 1.067913e+04 
7.663100e-02 1.050862e+04 
7.791200e-02 1.033204e+04 
7.912700e-02 1.017677e+04 
8.027600e-02 1.003716e+04 
8.138400e-02 9.907254e+03 
8.272200e-02 9.754254e+03 
8.406100e-02 9.602500e+03 
8.534100e-02 9.454373e+03 
8.653800e-02 9.311273e+03 
8.759800e-02 9.181712e+03 
8.900300e-02 9.004337e+03 
9.009000e-02 8.861564e+03 
9.113300e-02 8.719452e+03 
9.239600e-02 8.544989e+03 
9.358000e-02 8.377743e+03 
9.496100e-02 8.178505e+03 
9.608400e-02 8.016963e+03 
9.727500e-02 7.847292e+03 
9.852600e-02 7.669764e+03 
9.973800e-02 7.502725e+03 
1.009000e-01 7.347075e+03 
1.020900e-01 7.194244e+03 
1.034000e-01 7.033215e+03 
1.046000e-01 6.892429e+03 
1.057200e-01 6.769740e+03 
1.069100e-01 6.644982e+03 
1.082500e-01 6.514751e+03 
1.093900e-01 6.411176e+03 
1.105400e-01 6.311745e+03 
1.116900e-01 6.220395e+03 
1.129600e-01 6.124006e+03 
1.142000e-01 6.036930e+03 
1.153300e-01 5.961023e+03 
1.166400e-01 5.877520e+03 
1.177800e-01 5.808083e+03 
1.190000e-01 5.736223e+03 
1.201200e-01 5.671918e+03 
1.213400e-01 5.603540e+03 
1.227100e-01 5.527248e+03 
1.238900e-01 5.462650e+03 
1.250700e-01 5.397696e+03 
1.263200e-01 5.329592e+03 
1.275500e-01 5.262135e+03 
1.287500e-01 5.196682e+03 
1.299900e-01 5.128762e+03 
1.311300e-01 5.066644e+03 
1.323500e-01 5.000016e+03 
1.335900e-01 4.932962e+03 
1.347100e-01 4.872552e+03 
1.359800e-01 4.805012e+03 
1.372100e-01 4.740008e+03 
1.384300e-01 4.676703e+03 
1.395700e-01 4.618189e+03 
1.407700e-01 4.557850e+03 
1.420300e-01 4.495564e+03 
1.432800e-01 4.435132e+03 
1.444500e-01 4.380078e+03 
1.456300e-01 4.325676e+03 
1.468900e-01 4.269376e+03 
1.480500e-01 4.218777e+03 
1.491700e-01 4.171297e+03 
1.503800e-01 4.121559e+03 
1.516400e-01 4.071037e+03 
1.528200e-01 4.025636e+03 
1.540200e-01 3.980350e+03 
1.551900e-01 3.937927e+03 
1.564300e-01 3.894039e+03 
1.576600e-01 3.851744e+03 
1.588700e-01 3.811403e+03 
1.600900e-01 3.771518e+03 
1.612700e-01 3.734200e+03 
1.625400e-01 3.694778e+03 
1.637600e-01 3.657721e+03 
1.649500e-01 3.622285e+03 
1.662200e-01 3.585135e+03 
1.674000e-01 3.551132e+03 
1.685000e-01 3.519961e+03 
1.697500e-01 3.484920e+03 
1.710300e-01 3.449472e+03 
1.722200e-01 3.417096e+03 
1.734400e-01 3.383948e+03 
1.746400e-01 3.351877e+03 
1.758700e-01 3.319399e+03 
1.770900e-01 3.287398e+03 
1.782700e-01 3.256961e+03 
1.794600e-01 3.226561e+03 
1.807000e-01 3.195272e+03 
1.819100e-01 3.165247e+03 
1.830100e-01 3.138261e+03 
1.842200e-01 3.109015e+03 
1.855000e-01 3.078593e+03 
1.867000e-01 3.050595e+03 
1.879200e-01 3.022584e+03 
1.890900e-01 2.996175e+03 
1.902800e-01 2.969909e+03 
1.915200e-01 2.942968e+03 
1.926900e-01 2.918006e+03 
1.939000e-01 2.892794e+03 
1.951700e-01 2.866745e+03 
1.963100e-01 2.843801e+03 
1.975100e-01 2.820223e+03 
1.987800e-01 2.795652e+03 
2.000100e-01 2.772295e+03 
2.012500e-01 2.749277e+03 
2.023400e-01 2.729330e+03 
2.036100e-01 2.706453e+03 
2.048900e-01 2.683875e+03 
2.060400e-01 2.663885e+03 
2.072200e-01 2.643658e+03 
2.084200e-01 2.623408e+03 
2.096900e-01 2.602286e+03 
2.109200e-01 2.582127e+03 
2.121100e-01 2.562804e+03 
2.132700e-01 2.544219e+03 
2.145200e-01 2.524467e+03 
2.157200e-01 2.505644e+03 
2.168800e-01 2.487634e+03 
2.180700e-01 2.469402e+03 
2.193400e-01 2.450103e+03 
2.206000e-01 2.431022e+03 
2.217500e-01 2.413839e+03 
2.229500e-01 2.396142e+03 
2.241400e-01 2.378485e+03 
2.253500e-01 2.360758e+03 
2.264900e-01 2.344271e+03 
2.277100e-01 2.326648e+03 
2.289900e-01 2.308180e+03 
2.301500e-01 2.291663e+03 
2.313600e-01 2.274649e+03 
2.325600e-01 2.257603e+03 
2.337700e-01 2.240635e+03 
2.350000e-01 2.223608e+03 
2.362000e-01 2.207061e+03 
2.374100e-01 2.190412e+03 
2.386500e-01 2.173567e+03 
2.399100e-01 2.156674e+03 
2.410400e-01 2.141543e+03 
2.422500e-01 2.125516e+03 
2.435000e-01 2.109168e+03 
2.447300e-01 2.093274e+03 
2.458700e-01 2.078680e+03 
2.470600e-01 2.063625e+03 
2.483300e-01 2.047756e+03 
2.495600e-01 2.032634e+03 
2.507600e-01 2.018133e+03 
2.519600e-01 2.003805e+03 
2.532200e-01 1.988942e+03 
2.543700e-01 1.975680e+03 
2.555500e-01 1.962324e+03 
2.568000e-01 1.948342e+03 
2.580100e-01 1.934967e+03 
2.592400e-01 1.921765e+03 
2.604100e-01 1.909452e+03 
2.616100e-01 1.896966e+03 
2.628400e-01 1.884313e+03 
2.640600e-01 1.872164e+03 
2.652200e-01 1.860840e+03 
2.664300e-01 1.849158e+03 
2.676500e-01 1.837512e+03 
2.688400e-01 1.826477e+03 
2.700700e-01 1.815323e+03 
2.712400e-01 1.804828e+03 
2.724800e-01 1.793826e+03 
2.736700e-01 1.783499e+03 
2.748800e-01 1.773230e+03 
2.761000e-01 1.762988e+03 
2.773200e-01 1.752857e+03 
2.785400e-01 1.742891e+03 
2.797000e-01 1.733634e+03 
2.808900e-01 1.724235e+03 
2.821400e-01 1.714466e+03 
2.833900e-01 1.704808e+03 
2.845500e-01 1.696035e+03 
2.857800e-01 1.686827e+03 
2.870300e-01 1.677569e+03 
2.882100e-01 1.668920e+03 
2.893900e-01 1.660394e+03 
2.906300e-01 1.651545e+03 
2.918900e-01 1.642648e+03 
2.930500e-01 1.634540e+03 
2.942500e-01 1.626241e+03 
2.954200e-01 1.618247e+03 
2.966500e-01 1.609925e+03 
2.978900e-01 1.601622e+03 
2.990400e-01 1.593996e+03 
3.002700e-01 1.585929e+03 
3.015100e-01 1.577882e+03 
3.026800e-01 1.570364e+03 
3.038500e-01 1.562917e+03 
3.050300e-01 1.555476e+03 
3.062600e-01 1.547802e+03 
3.075000e-01 1.540141e+03 
3.087000e-01 1.532800e+03 
3.099100e-01 1.525467e+03 
3.111200e-01 1.518208e+03 
3.123100e-01 1.511144e+03 
3.135300e-01 1.503970e+03 
3.147300e-01 1.496979e+03 
3.159900e-01 1.489709e+03 
3.171800e-01 1.482914e+03 
3.183700e-01 1.476186e+03 
3.196300e-01 1.469129e+03 
3.208400e-01 1.462415e+03 
3.220300e-01 1.455873e+03 
3.232000e-01 1.449513e+03 
3.244300e-01 1.442893e+03 
3.256700e-01 1.436281e+03 
3.269200e-01 1.429678e+03 
3.280800e-01 1.423606e+03 
3.292500e-01 1.417550e+03 
3.304800e-01 1.411245e+03 
3.317100e-01 1.404997e+03 
3.328900e-01 1.399056e+03 
3.340700e-01 1.393167e+03 
3.353600e-01 1.386804e+03 
3.365300e-01 1.381091e+03 
3.377100e-01 1.375378e+03 
3.389200e-01 1.369571e+03 
3.401600e-01 1.363672e+03 
3.413700e-01 1.357979e+03 
3.425300e-01 1.352575e+03 
3.437700e-01 1.346848e+03 
3.449800e-01 1.341308e+03 
3.461800e-01 1.335861e+03 
3.473600e-01 1.330555e+03 
3.485800e-01 1.325132e+03 
3.498100e-01 1.319712e+03 
3.510200e-01 1.314425e+03 
3.522000e-01 1.309311e+03 
3.533900e-01 1.304197e+03 
3.546400e-01 1.298891e+03 
3.558400e-01 1.293840e+03 
3.570600e-01 1.288748e+03 
3.582700e-01 1.283740e+03 
3.595000e-01 1.278692e+03 
3.607100e-01 1.273777e+03 
3.618900e-01 1.269030e+03 
3.631200e-01 1.264123e+03 
3.643200e-01 1.259374e+03 
3.655500e-01 1.254547e+03 
3.667300e-01 1.249953e+03 
3.679500e-01 1.245261e+03 
3.691900e-01 1.240531e+03 
3.703600e-01 1.236103e+03 
3.715700e-01 1.231560e+03 
3.727700e-01 1.227091e+03 
3.739900e-01 1.222586e+03 
3.752000e-01 1.218157e+03 
3.763900e-01 1.213836e+03 
3.775800e-01 1.209548e+03 
3.788200e-01 1.205116e+03 
3.800300e-01 1.200825e+03 
3.812100e-01 1.196653e+03 
3.824200e-01 1.192395e+03 
3.836100e-01 1.188240e+03 
3.848600e-01 1.183909e+03 
3.860400e-01 1.179853e+03 
3.872400e-01 1.175759e+03 
3.884600e-01 1.171660e+03 
3.896500e-01 1.167705e+03 
3.908700e-01 1.163680e+03 
3.920600e-01 1.159784e+03 
3.933100e-01 1.155723e+03 
3.945300e-01 1.151790e+03 
3.957200e-01 1.147963e+03 
3.969300e-01 1.144095e+03 
3.981700e-01 1.140161e+03 
3.993500e-01 1.136445e+03 
4.094840e-01 1.105462e+03 
4.272360e-01 1.055502e+03 
4.454600e-01 1.008707e+03 
4.630560e-01 9.672600e+02 
4.804610e-01 9.294329e+02 
4.980690e-01 8.941193e+02 
5.159230e-01 8.609825e+02 
5.317440e-01 8.337461e+02 
5.489640e-01 8.059656e+02 
5.671990e-01 7.785775e+02 
5.838690e-01 7.552341e+02 
6.018840e-01 7.316988e+02 
6.202330e-01 7.092944e+02 
6.379250e-01 6.889858e+02 
6.545410e-01 6.710105e+02 
6.714560e-01 6.537138e+02 
6.892080e-01 6.365038e+02 
7.066010e-01 6.204219e+02 
7.240540e-01 6.051159e+02 
7.420450e-01 5.901654e+02 
7.593780e-01 5.762729e+02 
7.764720e-01 5.631906e+02 
7.942840e-01 5.501642e+02 
8.116170e-01 5.378658e+02 
8.288310e-01 5.261504e+02 
8.462240e-01 5.146808e+02 
8.631980e-01 5.038773e+02 
8.810700e-01 4.929036e+02 
8.989410e-01 4.823203e+02 
9.166330e-01 4.721395e+02 
9.345640e-01 4.620912e+02 
9.515980e-01 4.528364e+02 
9.688720e-01 4.437491e+02 
9.865640e-01 4.346879e+02 
1.031870e+00 4.126047e+02 
1.063490e+00 3.980830e+02 
1.097920e+00 3.830261e+02 
1.134370e+00 3.679586e+02 
1.167730e+00 3.547894e+02 
1.203830e+00 3.412654e+02 
1.240470e+00 3.282466e+02 
1.275790e+00 3.162622e+02 
1.309140e+00 3.055242e+02 
1.342970e+00 2.950655e+02 
1.378420e+00 2.846764e+02 
1.413200e+00 2.749166e+02 
1.448110e+00 2.655744e+02 
1.484090e+00 2.564036e+02 
1.518820e+00 2.479562e+02 
1.552880e+00 2.399968e+02 
1.588630e+00 2.320456e+02 
1.623230e+00 2.246910e+02 
1.657720e+00 2.176726e+02 
1.692450e+00 2.109445e+02 
1.726400e+00 2.045871e+02 
1.762200e+00 1.981664e+02 
1.797880e+00 1.920525e+02 
1.833270e+00 1.862436e+02 
1.869070e+00 1.806084e+02 
1.903200e+00 1.754671e+02 
1.937740e+00 1.704651e+02 
1.973190e+00 1.655319e+02 
2.007440e+00 1.609520e+02 
2.042160e+00 1.564874e+02 
2.077900e+00 1.520619e+02 
2.112390e+00 1.479797e+02 
2.146220e+00 1.440889e+02 
2.181600e+00 1.401918e+02 
2.216930e+00 1.364479e+02 
2.250760e+00 1.329853e+02 
2.286500e+00 1.294559e+02 
2.321770e+00 1.261046e+02 
2.355950e+00 1.229734e+02 
2.391280e+00 1.198395e+02 
2.426240e+00 1.168557e+02 
2.460670e+00 1.140157e+02 
2.495640e+00 1.112203e+02 
2.531080e+00 1.084985e+02 
2.566220e+00 1.058850e+02 
2.600830e+00 1.033960e+02 
2.635080e+00 1.010147e+02 
2.670340e+00 9.863406e+01 
2.705970e+00 9.631717e+01 
2.740040e+00 9.417548e+01 
2.774520e+00 9.206352e+01 
2.809730e+00 8.998076e+01 
2.844390e+00 8.799677e+01 
2.879960e+00 8.602168e+01 
2.914860e+00 8.414248e+01 
2.949410e+00 8.233967e+01 
2.984440e+00 8.057114e+01 
3.019760e+00 7.883719e+01 
3.054730e+00 7.716964e+01 
3.089030e+00 7.558406e+01 
3.124060e+00 7.401248e+01 
3.159560e+00 7.246709e+01 
3.194710e+00 7.098254e+01 
3.229010e+00 6.957512e+01 
3.263320e+00 6.820094e+01 
3.297930e+00 6.685475e+01 
3.332830e+00 6.553780e+01 
3.368040e+00 6.424496e+01 
3.403300e+00 6.298534e+01 
3.438450e+00 6.176258e+01 
3.473060e+00 6.059073e+01 
3.508440e+00 5.943076e+01 
3.543110e+00 5.832385e+01 
3.577470e+00 5.725256e+01 
3.613040e+00 5.617376e+01 
3.648120e+00 5.514132e+01 
3.682910e+00 5.414165e+01 
3.718050e+00 5.315388e+01 
3.753320e+00 5.219055e+01 
3.787980e+00 5.127183e+01 
3.822290e+00 5.038334e+01 
3.857020e+00 4.950392e+01 
3.891920e+00 4.864199e+01 
3.926650e+00 4.780559e+01 
3.961970e+00 4.697565e+01 
3.997360e+00 4.616468e+01 
4.031670e+00 4.539744e+01 
4.066330e+00 4.464246e+01 
4.101420e+00 4.389578e+01 
4.136200e+00 4.317311e+01 
4.170810e+00 4.247025e+01 
4.206250e+00 4.176896e+01 
4.241580e+00 4.108612e+01 
4.276300e+00 4.043000e+01 
4.310970e+00 3.978919e+01 
4.346120e+00 3.915475e+01 
4.380600e+00 3.854757e+01 
4.414730e+00 3.795930e+01 
4.450350e+00 3.735840e+01 
4.485320e+00 3.678116e+01 
4.519810e+00 3.622560e+01 
4.555430e+00 3.566471e+01 
4.590870e+00 3.511914e+01 
4.625480e+00 3.459879e+01 
4.659910e+00 3.409163e+01 
4.695230e+00 3.358210e+01 
4.729960e+00 3.309128e+01 
4.764450e+00 3.261357e+01 
4.799530e+00 3.213737e+01 
4.834910e+00 3.166671e+01 
4.869700e+00 3.121643e+01 
4.904370e+00 3.077698e+01 
4.939450e+00 3.034096e+01 
4.973940e+00 2.992053e+01 
5.008430e+00 2.950806e+01 
5.043810e+00 2.909307e+01 
5.078840e+00 2.869006e+01 
5.113500e+00 2.829878e+01 
5.148890e+00 2.790999e+01 
5.184210e+00 2.752937e+01 
5.219060e+00 2.716037e+01 
5.253660e+00 2.679958e+01 
5.288570e+00 2.644216e+01 
5.323420e+00 2.609326e+01 
5.358440e+00 2.575059e+01 
5.393590e+00 2.541280e+01 
5.428310e+00 2.508512e+01 
5.462800e+00 2.476532e+01 
5.497640e+00 2.444790e+01 
5.532670e+00 2.413634e+01 
5.567280e+00 2.383448e+01 
5.602000e+00 2.353683e+01 
5.637270e+00 2.323862e+01 
5.672410e+00 2.294637e+01 
5.707020e+00 2.266339e+01 
5.742040e+00 2.238392e+01 
5.777430e+00 2.210668e+01 
5.812210e+00 2.183875e+01 
5.846820e+00 2.157647e+01 
5.881610e+00 2.131713e+01 
5.916510e+00 2.106120e+01 
5.951600e+00 2.080889e+01 
5.986560e+00 2.056194e+01 
6.021830e+00 2.031683e+01 
6.056490e+00 2.008035e+01 
6.091160e+00 1.984799e+01 
6.125830e+00 1.961926e+01 
6.161090e+00 1.939029e+01 
6.195760e+00 1.916864e+01 
6.230420e+00 1.895048e+01 
6.265690e+00 1.873196e+01 
6.300950e+00 1.851789e+01 
6.335620e+00 1.831063e+01 
6.370880e+00 1.810306e+01 
6.405550e+00 1.790259e+01 
6.440220e+00 1.770534e+01 
6.475480e+00 1.750774e+01 
6.510150e+00 1.731661e+01 
6.544810e+00 1.712894e+01 
6.580080e+00 1.694078e+01 
6.614750e+00 1.675854e+01 
6.649410e+00 1.657900e+01 
6.684080e+00 1.640201e+01 
6.719340e+00 1.622461e+01 
6.754010e+00 1.605290e+01 
6.788680e+00 1.588410e+01 
6.823940e+00 1.571489e+01 
6.859800e+00 1.554528e+01 
6.894470e+00 1.538413e+01 
6.929140e+00 1.522541e+01 
6.963800e+00 1.506893e+01 
6.999070e+00 1.491193e+01 
7.033730e+00 1.475977e+01 
7.068400e+00 1.460966e+01 
7.103660e+00 1.445909e+01 
7.138330e+00 1.431347e+01 
7.173600e+00 1.416817e+01 
7.208260e+00 1.402731e+01 
7.243530e+00 1.388590e+01 
7.277600e+00 1.375081e+01 
7.312860e+00 1.361257e+01 
7.348120e+00 1.347619e+01 
7.382790e+00 1.334388e+01 
7.417460e+00 1.321401e+01 
7.452720e+00 1.308404e+01 
7.487390e+00 1.295791e+01 
7.522650e+00 1.283131e+01 
7.557320e+00 1.270843e+01 
7.591990e+00 1.258712e+01 
7.627250e+00 1.246534e+01 
7.662510e+00 1.234513e+01 
7.697180e+00 1.222879e+01 
7.731850e+00 1.211405e+01 
7.766510e+00 1.200078e+01 
7.801180e+00 1.188889e+01 
7.836440e+00 1.177652e+01 
7.871110e+00 1.166740e+01 
7.906380e+00 1.155777e+01 
7.941040e+00 1.145138e+01 
7.976310e+00 1.134466e+01 
8.011570e+00 1.123954e+01 
8.046240e+00 1.113744e+01 
8.080900e+00 1.103661e+01 
8.115570e+00 1.093701e+01 
8.150830e+00 1.083714e+01 
8.185500e+00 1.074012e+01 
8.220770e+00 1.064260e+01 
8.255430e+00 1.054792e+01 
8.290100e+00 1.045452e+01 
8.324770e+00 1.036224e+01 
8.359430e+00 1.027107e+01 
8.394700e+00 1.017938e+01 
8.429960e+00 1.008893e+01 
8.464630e+00 1.000114e+01 
8.499890e+00 9.912898e+00 
8.534560e+00 9.827140e+00 
8.569200e+00 9.742438e+00 
