# Parameters:
# omega_b = 0.023500, omega_m = 0.143150, n_s = 0.895669, h = 82.637795, w = -1.000000, sigma_8 = 0.808661
# z = 0.500000
#
# k[1/Mpc] # P(k):
8.694000e-04 1.089370e+04 
2.077466e-03 2.192630e+04 
3.285532e-03 3.012864e+04 
4.493598e-03 3.620664e+04 
5.701664e-03 4.054229e+04 
6.909730e-03 4.347605e+04 
8.117797e-03 4.534947e+04 
9.325863e-03 4.633637e+04 
1.053393e-02 4.659802e+04 
1.174199e-02 4.627574e+04 
1.295006e-02 4.546344e+04 
1.415813e-02 4.428452e+04 
1.536619e-02 4.283668e+04 
1.657426e-02 4.118235e+04 
1.778233e-02 3.931895e+04 
1.899039e-02 3.725647e+04 
2.019846e-02 3.516284e+04 
2.140652e-02 3.319622e+04 
2.261459e-02 3.135741e+04 
2.382266e-02 2.964217e+04 
2.503072e-02 2.806018e+04 
2.623879e-02 2.661507e+04 
2.744685e-02 2.530773e+04 
2.865492e-02 2.413536e+04 
2.986299e-02 2.309012e+04 
3.100100e-02 2.221800e+04 
3.220400e-02 2.140355e+04 
3.288100e-02 2.099230e+04 
3.424300e-02 2.025331e+04 
3.555100e-02 1.963741e+04 
3.686000e-02 1.910003e+04 
3.795000e-02 1.870004e+04 
3.929100e-02 1.825790e+04 
4.039800e-02 1.791949e+04 
4.164000e-02 1.755839e+04 
4.294400e-02 1.718380e+04 
4.415000e-02 1.683823e+04 
4.542900e-02 1.645424e+04 
4.660900e-02 1.608982e+04 
4.782300e-02 1.568319e+04 
4.892900e-02 1.529818e+04 
5.031200e-02 1.479066e+04 
5.155900e-02 1.430842e+04 
5.238100e-02 1.398186e+04 
5.378200e-02 1.341536e+04 
5.513400e-02 1.286084e+04 
5.627600e-02 1.239331e+04 
5.735300e-02 1.195961e+04 
5.870100e-02 1.143272e+04 
5.988700e-02 1.098973e+04 
6.113500e-02 1.054777e+04 
6.225900e-02 1.017440e+04 
6.340100e-02 9.821314e+03 
6.480200e-02 9.423141e+03 
6.601100e-02 9.114255e+03 
6.725500e-02 8.828200e+03 
6.829100e-02 8.616088e+03 
6.958600e-02 8.376673e+03 
7.071100e-02 8.193410e+03 
7.192300e-02 8.017552e+03 
7.307400e-02 7.868868e+03 
7.412300e-02 7.746731e+03 
7.550400e-02 7.603642e+03 
7.663100e-02 7.497064e+03 
7.791200e-02 7.386349e+03 
7.912700e-02 7.287079e+03 
8.027600e-02 7.195629e+03 
8.138400e-02 7.108313e+03 
8.272200e-02 7.002074e+03 
8.406100e-02 6.893096e+03 
8.534100e-02 6.782995e+03 
8.653800e-02 6.674199e+03 
8.759800e-02 6.574543e+03 
8.900300e-02 6.436686e+03 
9.009000e-02 6.324938e+03 
9.113300e-02 6.213284e+03 
9.239600e-02 6.075965e+03 
9.358000e-02 5.944119e+03 
9.496100e-02 5.786697e+03 
9.608400e-02 5.658888e+03 
9.727500e-02 5.524558e+03 
9.852600e-02 5.383389e+03 
9.973800e-02 5.250472e+03 
1.009000e-01 5.126571e+03 
1.020900e-01 5.004797e+03 
1.034000e-01 4.876822e+03 
1.046000e-01 4.765261e+03 
1.057200e-01 4.668987e+03 
1.069100e-01 4.571667e+03 
1.082500e-01 4.471800e+03 
1.093900e-01 4.393826e+03 
1.105400e-01 4.319846e+03 
1.116900e-01 4.254245e+03 
1.129600e-01 4.185911e+03 
1.142000e-01 4.126502e+03 
1.153300e-01 4.075578e+03 
1.166400e-01 4.020919e+03 
1.177800e-01 3.976363e+03 
1.190000e-01 3.930681e+03 
1.201200e-01 3.890017e+03 
1.213400e-01 3.846819e+03 
1.227100e-01 3.797768e+03 
1.238900e-01 3.755900e+03 
1.250700e-01 3.712652e+03 
1.263200e-01 3.666711e+03 
1.275500e-01 3.619897e+03 
1.287500e-01 3.573721e+03 
1.299900e-01 3.524635e+03 
1.311300e-01 3.479074e+03 
1.323500e-01 3.429219e+03 
1.335900e-01 3.378500e+03 
1.347100e-01 3.332097e+03 
1.359800e-01 3.279925e+03 
1.372100e-01 3.229105e+03 
1.384300e-01 3.179517e+03 
1.395700e-01 3.133393e+03 
1.407700e-01 3.085867e+03 
1.420300e-01 3.036784e+03 
1.432800e-01 2.989212e+03 
1.444500e-01 2.946208e+03 
1.456300e-01 2.903752e+03 
1.468900e-01 2.860383e+03 
1.480500e-01 2.821593e+03 
1.491700e-01 2.785590e+03 
1.503800e-01 2.748371e+03 
1.516400e-01 2.710776e+03 
1.528200e-01 2.677836e+03 
1.540200e-01 2.644991e+03 
1.551900e-01 2.615017e+03 
1.564300e-01 2.584209e+03 
1.576600e-01 2.554886e+03 
1.588700e-01 2.527360e+03 
1.600900e-01 2.500172e+03 
1.612700e-01 2.475210e+03 
1.625400e-01 2.448842e+03 
1.637600e-01 2.424128e+03 
1.649500e-01 2.400538e+03 
1.662200e-01 2.375769e+03 
1.674000e-01 2.352890e+03 
1.685000e-01 2.331917e+03 
1.697500e-01 2.308088e+03 
1.710300e-01 2.283731e+03 
1.722200e-01 2.261488e+03 
1.734400e-01 2.238107e+03 
1.746400e-01 2.215465e+03 
1.758700e-01 2.192353e+03 
1.770900e-01 2.169210e+03 
1.782700e-01 2.147203e+03 
1.794600e-01 2.124968e+03 
1.807000e-01 2.101918e+03 
1.819100e-01 2.079808e+03 
1.830100e-01 2.059758e+03 
1.842200e-01 2.038006e+03 
1.855000e-01 2.015388e+03 
1.867000e-01 1.994532e+03 
1.879200e-01 1.973675e+03 
1.890900e-01 1.954036e+03 
1.902800e-01 1.934592e+03 
1.915200e-01 1.914657e+03 
1.926900e-01 1.896237e+03 
1.939000e-01 1.877784e+03 
1.951700e-01 1.858726e+03 
1.963100e-01 1.842000e+03 
1.975100e-01 1.824969e+03 
1.987800e-01 1.807224e+03 
2.000100e-01 1.790418e+03 
2.012500e-01 1.773993e+03 
2.023400e-01 1.759761e+03 
2.036100e-01 1.743476e+03 
2.048900e-01 1.727536e+03 
2.060400e-01 1.713424e+03 
2.072200e-01 1.699159e+03 
2.084200e-01 1.684999e+03 
2.096900e-01 1.670232e+03 
2.109200e-01 1.656140e+03 
2.121100e-01 1.642760e+03 
2.132700e-01 1.629899e+03 
2.145200e-01 1.616232e+03 
2.157200e-01 1.603332e+03 
2.168800e-01 1.591046e+03 
2.180700e-01 1.578611e+03 
2.193400e-01 1.565554e+03 
2.206000e-01 1.552838e+03 
2.217500e-01 1.541389e+03 
2.229500e-01 1.529598e+03 
2.241400e-01 1.518202e+03 
2.253500e-01 1.506771e+03 
2.264900e-01 1.496139e+03 
2.277100e-01 1.485009e+03 
2.289900e-01 1.473603e+03 
2.301500e-01 1.463401e+03 
2.313600e-01 1.452896e+03 
2.325600e-01 1.442883e+03 
2.337700e-01 1.432914e+03 
2.350000e-01 1.422909e+03 
2.362000e-01 1.413401e+03 
2.374100e-01 1.404087e+03 
2.386500e-01 1.394661e+03 
2.399100e-01 1.385206e+03 
2.410400e-01 1.377030e+03 
2.422500e-01 1.368404e+03 
2.435000e-01 1.359604e+03 
2.447300e-01 1.351081e+03 
2.458700e-01 1.343394e+03 
2.470600e-01 1.335463e+03 
2.483300e-01 1.327101e+03 
2.495600e-01 1.319126e+03 
2.507600e-01 1.311473e+03 
2.519600e-01 1.303908e+03 
2.532200e-01 1.296060e+03 
2.543700e-01 1.288949e+03 
2.555500e-01 1.281712e+03 
2.568000e-01 1.274135e+03 
2.580100e-01 1.266887e+03 
2.592400e-01 1.259515e+03 
2.604100e-01 1.252543e+03 
2.616100e-01 1.245471e+03 
2.628400e-01 1.238305e+03 
2.640600e-01 1.231159e+03 
2.652200e-01 1.224391e+03 
2.664300e-01 1.217408e+03 
2.676500e-01 1.210446e+03 
2.688400e-01 1.203625e+03 
2.700700e-01 1.196588e+03 
2.712400e-01 1.189966e+03 
2.724800e-01 1.183024e+03 
2.736700e-01 1.176353e+03 
2.748800e-01 1.169559e+03 
2.761000e-01 1.162782e+03 
2.773200e-01 1.156079e+03 
2.785400e-01 1.149410e+03 
2.797000e-01 1.143055e+03 
2.808900e-01 1.136603e+03 
2.821400e-01 1.129897e+03 
2.833900e-01 1.123260e+03 
2.845500e-01 1.117083e+03 
2.857800e-01 1.110600e+03 
2.870300e-01 1.104081e+03 
2.882100e-01 1.097991e+03 
2.893900e-01 1.091924e+03 
2.906300e-01 1.085593e+03 
2.918900e-01 1.079228e+03 
2.930500e-01 1.073428e+03 
2.942500e-01 1.067479e+03 
2.954200e-01 1.061710e+03 
2.966500e-01 1.055706e+03 
2.978900e-01 1.049715e+03 
2.990400e-01 1.044214e+03 
3.002700e-01 1.038376e+03 
3.015100e-01 1.032544e+03 
3.026800e-01 1.027096e+03 
3.038500e-01 1.021699e+03 
3.050300e-01 1.016308e+03 
3.062600e-01 1.010738e+03 
3.075000e-01 1.005178e+03 
3.087000e-01 9.998494e+02 
3.099100e-01 9.945281e+02 
3.111200e-01 9.892606e+02 
3.123100e-01 9.841339e+02 
3.135300e-01 9.789276e+02 
3.147300e-01 9.738551e+02 
3.159900e-01 9.685801e+02 
3.171800e-01 9.636522e+02 
3.183700e-01 9.587740e+02 
3.196300e-01 9.536576e+02 
3.208400e-01 9.487907e+02 
3.220300e-01 9.440482e+02 
3.232000e-01 9.394417e+02 
3.244300e-01 9.346487e+02 
3.256700e-01 9.298618e+02 
3.269200e-01 9.250815e+02 
3.280800e-01 9.206854e+02 
3.292500e-01 9.163053e+02 
3.304800e-01 9.117463e+02 
3.317100e-01 9.072289e+02 
3.328900e-01 9.029337e+02 
3.340700e-01 8.986758e+02 
3.353600e-01 8.940817e+02 
3.365300e-01 8.899595e+02 
3.377100e-01 8.858376e+02 
3.389200e-01 8.816475e+02 
3.401600e-01 8.773915e+02 
3.413700e-01 8.732884e+02 
3.425300e-01 8.693976e+02 
3.437700e-01 8.652740e+02 
3.449800e-01 8.612853e+02 
3.461800e-01 8.573634e+02 
3.473600e-01 8.535462e+02 
3.485800e-01 8.496500e+02 
3.498100e-01 8.457556e+02 
3.510200e-01 8.419571e+02 
3.522000e-01 8.382837e+02 
3.533900e-01 8.346096e+02 
3.546400e-01 8.308063e+02 
3.558400e-01 8.271872e+02 
3.570600e-01 8.235385e+02 
3.582700e-01 8.199497e+02 
3.595000e-01 8.163319e+02 
3.607100e-01 8.128136e+02 
3.618900e-01 8.094190e+02 
3.631200e-01 8.059093e+02 
3.643200e-01 8.025132e+02 
3.655500e-01 7.990605e+02 
3.667300e-01 7.957748e+02 
3.679500e-01 7.924323e+02 
3.691900e-01 7.890628e+02 
3.703600e-01 7.859088e+02 
3.715700e-01 7.826725e+02 
3.727700e-01 7.794884e+02 
3.739900e-01 7.762803e+02 
3.752000e-01 7.731301e+02 
3.763900e-01 7.700561e+02 
3.775800e-01 7.670058e+02 
3.788200e-01 7.638523e+02 
3.800300e-01 7.607994e+02 
3.812100e-01 7.578411e+02 
3.824200e-01 7.548280e+02 
3.836100e-01 7.518874e+02 
3.848600e-01 7.488225e+02 
3.860400e-01 7.459515e+02 
3.872400e-01 7.430539e+02 
3.884600e-01 7.401572e+02 
3.896500e-01 7.373632e+02 
3.908700e-01 7.345204e+02 
3.920600e-01 7.317683e+02 
3.933100e-01 7.288994e+02 
3.945300e-01 7.261209e+02 
3.957200e-01 7.234266e+02 
3.969300e-01 7.207060e+02 
3.981700e-01 7.179390e+02 
3.993500e-01 7.153254e+02 
4.094840e-01 6.935892e+02 
4.272360e-01 6.587568e+02 
4.454600e-01 6.263708e+02 
4.630560e-01 5.978889e+02 
4.804610e-01 5.720456e+02 
4.980690e-01 5.480362e+02 
5.159230e-01 5.255908e+02 
5.317440e-01 5.071965e+02 
5.489640e-01 4.885058e+02 
5.671990e-01 4.701362e+02 
5.838690e-01 4.545415e+02 
6.018840e-01 4.388663e+02 
6.202330e-01 4.240373e+02 
6.379250e-01 4.106459e+02 
6.545410e-01 3.988826e+02 
6.714560e-01 3.876198e+02 
6.892080e-01 3.764960e+02 
7.066010e-01 3.661929e+02 
7.240540e-01 3.564519e+02 
7.420450e-01 3.470224e+02 
7.593780e-01 3.383445e+02 
7.764720e-01 3.302370e+02 
7.942840e-01 3.222237e+02 
8.116170e-01 3.147384e+02 
8.288310e-01 3.076757e+02 
8.462240e-01 3.008106e+02 
8.631980e-01 2.943970e+02 
8.810700e-01 2.879307e+02 
8.989410e-01 2.817391e+02 
9.166330e-01 2.758290e+02 
9.345640e-01 2.700334e+02 
9.515980e-01 2.647293e+02 
9.688720e-01 2.595517e+02 
9.865640e-01 2.544180e+02 
1.031870e+00 2.419980e+02 
1.063490e+00 2.339077e+02 
1.097920e+00 2.255670e+02 
1.134370e+00 2.172576e+02 
1.167730e+00 2.100192e+02 
1.203830e+00 2.026126e+02 
1.240470e+00 1.954880e+02 
1.275790e+00 1.889379e+02 
1.309140e+00 1.830683e+02 
1.342970e+00 1.773462e+02 
1.378420e+00 1.716583e+02 
1.413200e+00 1.663088e+02 
1.448110e+00 1.611782e+02 
1.484090e+00 1.561327e+02 
1.518820e+00 1.514699e+02 
1.552880e+00 1.470685e+02 
1.588630e+00 1.426563e+02 
1.623230e+00 1.385654e+02 
1.657720e+00 1.346489e+02 
1.692450e+00 1.308872e+02 
1.726400e+00 1.273187e+02 
1.762200e+00 1.237002e+02 
1.797880e+00 1.202445e+02 
1.833270e+00 1.169522e+02 
1.869070e+00 1.137456e+02 
1.903200e+00 1.108117e+02 
1.937740e+00 1.079476e+02 
1.973190e+00 1.051125e+02 
2.007440e+00 1.024715e+02 
2.042160e+00 9.988964e+01 
2.077900e+00 9.732161e+01 
2.112390e+00 9.494589e+01 
2.146220e+00 9.267191e+01 
2.181600e+00 9.038863e+01 
2.216930e+00 8.818749e+01 
2.250760e+00 8.614546e+01 
2.286500e+00 8.405755e+01 
2.321770e+00 8.206852e+01 
2.355950e+00 8.020488e+01 
2.391280e+00 7.833326e+01 
2.426240e+00 7.654602e+01 
2.460670e+00 7.483991e+01 
2.495640e+00 7.315564e+01 
2.531080e+00 7.151089e+01 
2.566220e+00 6.992645e+01 
2.600830e+00 6.841358e+01 
2.635080e+00 6.696275e+01 
2.670340e+00 6.550685e+01 
2.705970e+00 6.408650e+01 
2.740040e+00 6.277057e+01 
2.774520e+00 6.146903e+01 
2.809730e+00 6.018196e+01 
2.844390e+00 5.895321e+01 
2.879960e+00 5.772645e+01 
2.914860e+00 5.655584e+01 
2.949410e+00 5.543059e+01 
2.984440e+00 5.432376e+01 
3.019760e+00 5.323585e+01 
3.054730e+00 5.218760e+01 
3.089030e+00 5.118746e+01 
3.124060e+00 5.019442e+01 
3.159560e+00 4.921577e+01 
3.194710e+00 4.827314e+01 
3.229010e+00 4.737815e+01 
3.263320e+00 4.650142e+01 
3.297930e+00 4.564127e+01 
3.332830e+00 4.479783e+01 
3.368040e+00 4.396808e+01 
3.403300e+00 4.315823e+01 
3.438450e+00 4.236985e+01 
3.473060e+00 4.161342e+01 
3.508440e+00 4.086260e+01 
3.543110e+00 4.014537e+01 
3.577470e+00 3.944913e+01 
3.613040e+00 3.874722e+01 
3.648120e+00 3.807403e+01 
3.682910e+00 3.742123e+01 
3.718050e+00 3.677467e+01 
3.753320e+00 3.614326e+01 
3.787980e+00 3.554001e+01 
3.822290e+00 3.495573e+01 
3.857020e+00 3.437623e+01 
3.891920e+00 3.380751e+01 
3.926650e+00 3.325454e+01 
3.961970e+00 3.270520e+01 
3.997360e+00 3.216728e+01 
4.031670e+00 3.165792e+01 
4.066330e+00 3.115563e+01 
4.101420e+00 3.065860e+01 
4.136200e+00 3.017632e+01 
4.170810e+00 2.970706e+01 
4.206250e+00 2.923788e+01 
4.241580e+00 2.878070e+01 
4.276300e+00 2.834060e+01 
4.310970e+00 2.791025e+01 
4.346120e+00 2.748374e+01 
4.380600e+00 2.707494e+01 
4.414730e+00 2.667869e+01 
4.450350e+00 2.627297e+01 
4.485320e+00 2.588308e+01 
4.519810e+00 2.550722e+01 
4.555430e+00 2.512739e+01 
4.590870e+00 2.475764e+01 
4.625480e+00 2.440451e+01 
4.659910e+00 2.406021e+01 
4.695230e+00 2.371361e+01 
4.729960e+00 2.337953e+01 
4.764450e+00 2.305408e+01 
4.799530e+00 2.272923e+01 
4.834910e+00 2.240806e+01 
4.869700e+00 2.210034e+01 
4.904370e+00 2.179988e+01 
4.939450e+00 2.150154e+01 
4.973940e+00 2.121346e+01 
5.008430e+00 2.093075e+01 
5.043810e+00 2.064598e+01 
5.078840e+00 2.036921e+01 
5.113500e+00 2.010043e+01 
5.148890e+00 1.983299e+01 
5.184210e+00 1.957108e+01 
5.219060e+00 1.931701e+01 
5.253660e+00 1.906828e+01 
5.288570e+00 1.882180e+01 
5.323420e+00 1.858103e+01 
5.358440e+00 1.834436e+01 
5.393590e+00 1.811101e+01 
5.428310e+00 1.788443e+01 
5.462800e+00 1.766316e+01 
5.497640e+00 1.744348e+01 
5.532670e+00 1.722769e+01 
5.567280e+00 1.701853e+01 
5.602000e+00 1.681223e+01 
5.637270e+00 1.660531e+01 
5.672410e+00 1.640244e+01 
5.707020e+00 1.620596e+01 
5.742040e+00 1.601178e+01 
5.777430e+00 1.581909e+01 
5.812210e+00 1.563284e+01 
5.846820e+00 1.545034e+01 
5.881610e+00 1.526982e+01 
5.916510e+00 1.509163e+01 
5.951600e+00 1.491586e+01 
5.986560e+00 1.474377e+01 
6.021830e+00 1.457292e+01 
6.056490e+00 1.440800e+01 
6.091160e+00 1.424588e+01 
6.125830e+00 1.408626e+01 
6.161090e+00 1.392642e+01 
6.195760e+00 1.377160e+01 
6.230420e+00 1.361918e+01 
6.265690e+00 1.346648e+01 
6.300950e+00 1.331680e+01 
6.335620e+00 1.317185e+01 
6.370880e+00 1.302665e+01 
6.405550e+00 1.288638e+01 
6.440220e+00 1.274832e+01 
6.475480e+00 1.260999e+01 
6.510150e+00 1.247615e+01 
6.544810e+00 1.234468e+01 
6.580080e+00 1.221285e+01 
6.614750e+00 1.208514e+01 
6.649410e+00 1.195926e+01 
6.684080e+00 1.183513e+01 
6.719340e+00 1.171070e+01 
6.754010e+00 1.159023e+01 
6.788680e+00 1.147178e+01 
6.823940e+00 1.135301e+01 
6.859800e+00 1.123394e+01 
6.894470e+00 1.112079e+01 
6.929140e+00 1.100931e+01 
6.963800e+00 1.089939e+01 
6.999070e+00 1.078908e+01 
7.033730e+00 1.068215e+01 
7.068400e+00 1.057663e+01 
7.103660e+00 1.047078e+01 
7.138330e+00 1.036838e+01 
7.173600e+00 1.026620e+01 
7.208260e+00 1.016712e+01 
7.243530e+00 1.006763e+01 
7.277600e+00 9.972568e+00 
7.312860e+00 9.875258e+00 
7.348120e+00 9.779238e+00 
7.382790e+00 9.686062e+00 
7.417460e+00 9.594608e+00 
7.452720e+00 9.503072e+00 
7.487390e+00 9.414227e+00 
7.522650e+00 9.325030e+00 
7.557320e+00 9.238442e+00 
7.591990e+00 9.152945e+00 
7.627250e+00 9.067096e+00 
7.662510e+00 8.982341e+00 
7.697180e+00 8.900304e+00 
7.731850e+00 8.819382e+00 
7.766510e+00 8.739483e+00 
7.801180e+00 8.660543e+00 
7.836440e+00 8.581246e+00 
7.871110e+00 8.504232e+00 
7.906380e+00 8.426845e+00 
7.941040e+00 8.351726e+00 
7.976310e+00 8.276371e+00 
8.011570e+00 8.202144e+00 
8.046240e+00 8.130037e+00 
8.080900e+00 8.058810e+00 
8.115570e+00 7.988442e+00 
8.150830e+00 7.917866e+00 
8.185500e+00 7.849293e+00 
8.220770e+00 7.780358e+00 
8.255430e+00 7.713412e+00 
8.290100e+00 7.647373e+00 
8.324770e+00 7.582115e+00 
8.359430e+00 7.517628e+00 
8.394700e+00 7.452766e+00 
8.429960e+00 7.388761e+00 
8.464630e+00 7.326635e+00 
8.499890e+00 7.264176e+00 
8.534560e+00 7.203462e+00 
8.569200e+00 7.143484e+00 
