# Parameters:
# omega_b = 0.022965, omega_m = 0.141772, n_s = 0.867323, h = 70.590551, w = -1.000000, sigma_8 = 0.772441
# z = 0.500000
#
# k[1/Mpc] # P(k):
8.694000e-04 1.309852e+04 
2.077466e-03 2.568747e+04 
3.285532e-03 3.479683e+04 
4.493598e-03 4.142231e+04 
5.701664e-03 4.605488e+04 
6.909730e-03 4.911033e+04 
8.117797e-03 5.098914e+04 
9.325863e-03 5.189393e+04 
1.053393e-02 5.200908e+04 
1.174199e-02 5.149431e+04 
1.295006e-02 5.045373e+04 
1.415813e-02 4.902345e+04 
1.536619e-02 4.731287e+04 
1.657426e-02 4.539258e+04 
1.778233e-02 4.329812e+04 
1.899039e-02 4.111138e+04 
2.019846e-02 3.894517e+04 
2.140652e-02 3.687706e+04 
2.261459e-02 3.491104e+04 
2.382266e-02 3.306111e+04 
2.503072e-02 3.134280e+04 
2.623879e-02 2.976111e+04 
2.744685e-02 2.831587e+04 
2.865492e-02 2.700687e+04 
2.986299e-02 2.582710e+04 
3.100100e-02 2.482952e+04 
3.220400e-02 2.388503e+04 
3.288100e-02 2.340132e+04 
3.424300e-02 2.252027e+04 
3.555100e-02 2.177312e+04 
3.686000e-02 2.110991e+04 
3.795000e-02 2.060991e+04 
3.929100e-02 2.005132e+04 
4.039800e-02 1.962326e+04 
4.164000e-02 1.916898e+04 
4.294400e-02 1.870692e+04 
4.415000e-02 1.828904e+04 
4.542900e-02 1.783974e+04 
4.660900e-02 1.742342e+04 
4.782300e-02 1.697442e+04 
4.892900e-02 1.655760e+04 
5.031200e-02 1.601947e+04 
5.155900e-02 1.551712e+04 
5.238100e-02 1.518013e+04 
5.378200e-02 1.459953e+04 
5.513400e-02 1.403398e+04 
5.627600e-02 1.355741e+04 
5.735300e-02 1.311432e+04 
5.870100e-02 1.257336e+04 
5.988700e-02 1.211524e+04 
6.113500e-02 1.165413e+04 
6.225900e-02 1.126016e+04 
6.340100e-02 1.088295e+04 
6.480200e-02 1.045198e+04 
6.601100e-02 1.011126e+04 
6.725500e-02 9.789975e+03 
6.829100e-02 9.546675e+03 
6.958600e-02 9.267640e+03 
7.071100e-02 9.049315e+03 
7.192300e-02 8.835851e+03 
7.307400e-02 8.652096e+03 
7.412300e-02 8.498918e+03 
7.550400e-02 8.316852e+03 
7.663100e-02 8.180310e+03 
7.791200e-02 8.038381e+03 
7.912700e-02 7.912662e+03 
8.027600e-02 7.798881e+03 
8.138400e-02 7.692387e+03 
8.272200e-02 7.566195e+03 
8.406100e-02 7.440513e+03 
8.534100e-02 7.317662e+03 
8.653800e-02 7.199241e+03 
8.759800e-02 7.092316e+03 
8.900300e-02 6.946487e+03 
9.009000e-02 6.829635e+03 
9.113300e-02 6.713696e+03 
9.239600e-02 6.571620e+03 
9.358000e-02 6.435617e+03 
9.496100e-02 6.273411e+03 
9.608400e-02 6.141631e+03 
9.727500e-02 6.003000e+03 
9.852600e-02 5.856806e+03 
9.973800e-02 5.718741e+03 
1.009000e-01 5.589687e+03 
1.020900e-01 5.461800e+03 
1.034000e-01 5.326718e+03 
1.046000e-01 5.208246e+03 
1.057200e-01 5.104645e+03 
1.069100e-01 4.999342e+03 
1.082500e-01 4.889533e+03 
1.093900e-01 4.802620e+03 
1.105400e-01 4.719449e+03 
1.116900e-01 4.643958e+03 
1.129600e-01 4.564729e+03 
1.142000e-01 4.494348e+03 
1.153300e-01 4.433568e+03 
1.166400e-01 4.367593e+03 
1.177800e-01 4.313559e+03 
1.190000e-01 4.258032e+03 
1.201200e-01 4.209104e+03 
1.213400e-01 4.157213e+03 
1.227100e-01 4.099871e+03 
1.238900e-01 4.051338e+03 
1.250700e-01 4.002557e+03 
1.263200e-01 3.951295e+03 
1.275500e-01 3.900264e+03 
1.287500e-01 3.850491e+03 
1.299900e-01 3.798441e+03 
1.311300e-01 3.750505e+03 
1.323500e-01 3.698601e+03 
1.335900e-01 3.645986e+03 
1.347100e-01 3.598092e+03 
1.359800e-01 3.544252e+03 
1.372100e-01 3.491839e+03 
1.384300e-01 3.440605e+03 
1.395700e-01 3.392764e+03 
1.407700e-01 3.343412e+03 
1.420300e-01 3.291995e+03 
1.432800e-01 3.242145e+03 
1.444500e-01 3.196505e+03 
1.456300e-01 3.151439e+03 
1.468900e-01 3.104918e+03 
1.480500e-01 3.063161e+03 
1.491700e-01 3.024152e+03 
1.503800e-01 2.983502e+03 
1.516400e-01 2.942347e+03 
1.528200e-01 2.905865e+03 
1.540200e-01 2.869492e+03 
1.551900e-01 2.835974e+03 
1.564300e-01 2.801444e+03 
1.576600e-01 2.768469e+03 
1.588700e-01 2.737378e+03 
1.600900e-01 2.706672e+03 
1.612700e-01 2.678419e+03 
1.625400e-01 2.648579e+03 
1.637600e-01 2.620700e+03 
1.649500e-01 2.594142e+03 
1.662200e-01 2.566302e+03 
1.674000e-01 2.540828e+03 
1.685000e-01 2.517477e+03 
1.697500e-01 2.491137e+03 
1.710300e-01 2.464400e+03 
1.722200e-01 2.439983e+03 
1.734400e-01 2.414677e+03 
1.746400e-01 2.390186e+03 
1.758700e-01 2.365281e+03 
1.770900e-01 2.340529e+03 
1.782700e-01 2.316993e+03 
1.794600e-01 2.293320e+03 
1.807000e-01 2.268847e+03 
1.819100e-01 2.245371e+03 
1.830100e-01 2.224133e+03 
1.842200e-01 2.201101e+03 
1.855000e-01 2.177147e+03 
1.867000e-01 2.155032e+03 
1.879200e-01 2.132914e+03 
1.890900e-01 2.112069e+03 
1.902800e-01 2.091349e+03 
1.915200e-01 2.070104e+03 
1.926900e-01 2.050444e+03 
1.939000e-01 2.030652e+03 
1.951700e-01 2.010210e+03 
1.963100e-01 1.992237e+03 
1.975100e-01 1.973847e+03 
1.987800e-01 1.954688e+03 
2.000100e-01 1.936512e+03 
2.012500e-01 1.918677e+03 
2.023400e-01 1.903225e+03 
2.036100e-01 1.885529e+03 
2.048900e-01 1.868158e+03 
2.060400e-01 1.852779e+03 
2.072200e-01 1.837230e+03 
2.084200e-01 1.821764e+03 
2.096900e-01 1.805635e+03 
2.109200e-01 1.790245e+03 
2.121100e-01 1.775612e+03 
2.132700e-01 1.761546e+03 
2.145200e-01 1.746600e+03 
2.157200e-01 1.732467e+03 
2.168800e-01 1.718997e+03 
2.180700e-01 1.705362e+03 
2.193400e-01 1.691017e+03 
2.206000e-01 1.676993e+03 
2.217500e-01 1.664366e+03 
2.229500e-01 1.651363e+03 
2.241400e-01 1.638672e+03 
2.253500e-01 1.625940e+03 
2.264900e-01 1.614098e+03 
2.277100e-01 1.601614e+03 
2.289900e-01 1.588720e+03 
2.301500e-01 1.577189e+03 
2.313600e-01 1.565314e+03 
2.325600e-01 1.553777e+03 
2.337700e-01 1.542292e+03 
2.350000e-01 1.530768e+03 
2.362000e-01 1.519716e+03 
2.374100e-01 1.508771e+03 
2.386500e-01 1.497696e+03 
2.399100e-01 1.486588e+03 
2.410400e-01 1.476839e+03 
2.422500e-01 1.466535e+03 
2.435000e-01 1.456024e+03 
2.447300e-01 1.445826e+03 
2.458700e-01 1.436552e+03 
2.470600e-01 1.426983e+03 
2.483300e-01 1.416896e+03 
2.495600e-01 1.407277e+03 
2.507600e-01 1.398045e+03 
2.519600e-01 1.388922e+03 
2.532200e-01 1.379457e+03 
2.543700e-01 1.370935e+03 
2.555500e-01 1.362300e+03 
2.568000e-01 1.353259e+03 
2.580100e-01 1.344610e+03 
2.592400e-01 1.335923e+03 
2.604100e-01 1.327756e+03 
2.616100e-01 1.319473e+03 
2.628400e-01 1.311079e+03 
2.640600e-01 1.302838e+03 
2.652200e-01 1.295086e+03 
2.664300e-01 1.287089e+03 
2.676500e-01 1.279115e+03 
2.688400e-01 1.271408e+03 
2.700700e-01 1.263520e+03 
2.712400e-01 1.256099e+03 
2.724800e-01 1.248320e+03 
2.736700e-01 1.240913e+03 
2.748800e-01 1.233439e+03 
2.761000e-01 1.225986e+03 
2.773200e-01 1.218613e+03 
2.785400e-01 1.211309e+03 
2.797000e-01 1.204416e+03 
2.808900e-01 1.197417e+03 
2.821400e-01 1.190144e+03 
2.833900e-01 1.182949e+03 
2.845500e-01 1.176309e+03 
2.857800e-01 1.169342e+03 
2.870300e-01 1.162336e+03 
2.882100e-01 1.155792e+03 
2.893900e-01 1.149296e+03 
2.906300e-01 1.142531e+03 
2.918900e-01 1.135729e+03 
2.930500e-01 1.129531e+03 
2.942500e-01 1.123178e+03 
2.954200e-01 1.117033e+03 
2.966500e-01 1.110637e+03 
2.978900e-01 1.104255e+03 
2.990400e-01 1.098395e+03 
3.002700e-01 1.092183e+03 
3.015100e-01 1.085981e+03 
3.026800e-01 1.080186e+03 
3.038500e-01 1.074447e+03 
3.050300e-01 1.068713e+03 
3.062600e-01 1.062794e+03 
3.075000e-01 1.056886e+03 
3.087000e-01 1.051224e+03 
3.099100e-01 1.045569e+03 
3.111200e-01 1.039973e+03 
3.123100e-01 1.034528e+03 
3.135300e-01 1.028998e+03 
3.147300e-01 1.023611e+03 
3.159900e-01 1.018009e+03 
3.171800e-01 1.012776e+03 
3.183700e-01 1.007596e+03 
3.196300e-01 1.002164e+03 
3.208400e-01 9.969968e+02 
3.220300e-01 9.919615e+02 
3.232000e-01 9.870724e+02 
3.244300e-01 9.819860e+02 
3.256700e-01 9.769062e+02 
3.269200e-01 9.718334e+02 
3.280800e-01 9.671684e+02 
3.292500e-01 9.625222e+02 
3.304800e-01 9.576870e+02 
3.317100e-01 9.528959e+02 
3.328900e-01 9.483405e+02 
3.340700e-01 9.438247e+02 
3.353600e-01 9.389543e+02 
3.365300e-01 9.345848e+02 
3.377100e-01 9.302156e+02 
3.389200e-01 9.257742e+02 
3.401600e-01 9.212629e+02 
3.413700e-01 9.169153e+02 
3.425300e-01 9.127937e+02 
3.437700e-01 9.084256e+02 
3.449800e-01 9.042004e+02 
3.461800e-01 9.000459e+02 
3.473600e-01 8.960030e+02 
3.485800e-01 8.918780e+02 
3.498100e-01 8.877549e+02 
3.510200e-01 8.837335e+02 
3.522000e-01 8.798444e+02 
3.533900e-01 8.759546e+02 
3.546400e-01 8.719313e+02 
3.558400e-01 8.681031e+02 
3.570600e-01 8.642435e+02 
3.582700e-01 8.604473e+02 
3.595000e-01 8.566205e+02 
3.607100e-01 8.529001e+02 
3.618900e-01 8.493113e+02 
3.631200e-01 8.456010e+02 
3.643200e-01 8.420107e+02 
3.655500e-01 8.383606e+02 
3.667300e-01 8.348871e+02 
3.679500e-01 8.313549e+02 
3.691900e-01 8.277940e+02 
3.703600e-01 8.244610e+02 
3.715700e-01 8.210410e+02 
3.727700e-01 8.176762e+02 
3.739900e-01 8.142866e+02 
3.752000e-01 8.109591e+02 
3.763900e-01 8.077121e+02 
3.775800e-01 8.044902e+02 
3.788200e-01 8.011593e+02 
3.800300e-01 7.979347e+02 
3.812100e-01 7.948106e+02 
3.824200e-01 7.916292e+02 
3.836100e-01 7.885244e+02 
3.848600e-01 7.852883e+02 
3.860400e-01 7.822570e+02 
3.872400e-01 7.791976e+02 
3.884600e-01 7.761388e+02 
3.896500e-01 7.731884e+02 
3.908700e-01 7.701864e+02 
3.920600e-01 7.672803e+02 
3.933100e-01 7.642508e+02 
3.945300e-01 7.613167e+02 
3.957200e-01 7.584715e+02 
3.969300e-01 7.555986e+02 
3.981700e-01 7.526767e+02 
3.993500e-01 7.499168e+02 
4.094840e-01 7.269622e+02 
4.272360e-01 6.901546e+02 
4.454600e-01 6.559032e+02 
4.630560e-01 6.257586e+02 
4.804610e-01 5.983953e+02 
4.980690e-01 5.729697e+02 
5.159230e-01 5.492114e+02 
5.317440e-01 5.297520e+02 
5.489640e-01 5.099996e+02 
5.671990e-01 4.906080e+02 
5.838690e-01 4.741599e+02 
6.018840e-01 4.576441e+02 
6.202330e-01 4.420330e+02 
6.379250e-01 4.279408e+02 
6.545410e-01 4.155672e+02 
6.714560e-01 4.037213e+02 
6.892080e-01 3.920170e+02 
7.066010e-01 3.811699e+02 
7.240540e-01 3.709097e+02 
7.420450e-01 3.609634e+02 
7.593780e-01 3.518020e+02 
7.764720e-01 3.432326e+02 
7.942840e-01 3.347525e+02 
8.116170e-01 3.268193e+02 
8.288310e-01 3.193210e+02 
8.462240e-01 3.120222e+02 
8.631980e-01 3.051948e+02 
8.810700e-01 2.983016e+02 
8.989410e-01 2.916920e+02 
9.166330e-01 2.853750e+02 
9.345640e-01 2.791736e+02 
9.515980e-01 2.734920e+02 
9.688720e-01 2.679396e+02 
9.865640e-01 2.624284e+02 
1.031870e+00 2.490832e+02 
1.063490e+00 2.403805e+02 
1.097920e+00 2.314023e+02 
1.134370e+00 2.224573e+02 
1.167730e+00 2.146672e+02 
1.203830e+00 2.066979e+02 
1.240470e+00 1.990393e+02 
1.275790e+00 1.920055e+02 
1.309140e+00 1.857084e+02 
1.342970e+00 1.795795e+02 
1.378420e+00 1.734939e+02 
1.413200e+00 1.677800e+02 
1.448110e+00 1.623094e+02 
1.484090e+00 1.569378e+02 
1.518820e+00 1.519833e+02 
1.552880e+00 1.473159e+02 
1.588630e+00 1.426449e+02 
1.623230e+00 1.383220e+02 
1.657720e+00 1.341907e+02 
1.692450e+00 1.302289e+02 
1.726400e+00 1.264797e+02 
1.762200e+00 1.226855e+02 
1.797880e+00 1.190683e+02 
1.833270e+00 1.156283e+02 
1.869070e+00 1.122848e+02 
1.903200e+00 1.092307e+02 
1.937740e+00 1.062544e+02 
1.973190e+00 1.033140e+02 
2.007440e+00 1.005797e+02 
2.042160e+00 9.791141e+01 
2.077900e+00 9.526230e+01 
2.112390e+00 9.281461e+01 
2.146220e+00 9.047739e+01 
2.181600e+00 8.813358e+01 
2.216930e+00 8.587788e+01 
2.250760e+00 8.378883e+01 
2.286500e+00 8.165628e+01 
2.321770e+00 7.962777e+01 
2.355950e+00 7.772987e+01 
2.391280e+00 7.582766e+01 
2.426240e+00 7.401362e+01 
2.460670e+00 7.228439e+01 
2.495640e+00 7.057991e+01 
2.531080e+00 6.891782e+01 
2.566220e+00 6.731913e+01 
2.600830e+00 6.579468e+01 
2.635080e+00 6.433456e+01 
2.670340e+00 6.287205e+01 
2.705970e+00 6.144687e+01 
2.740040e+00 6.012796e+01 
2.774520e+00 5.882556e+01 
2.809730e+00 5.753924e+01 
2.844390e+00 5.631251e+01 
2.879960e+00 5.508947e+01 
2.914860e+00 5.392410e+01 
2.949410e+00 5.280498e+01 
2.984440e+00 5.170552e+01 
3.019760e+00 5.062629e+01 
3.054730e+00 4.958743e+01 
3.089030e+00 4.859772e+01 
3.124060e+00 4.761592e+01 
3.159560e+00 4.664945e+01 
3.194710e+00 4.571966e+01 
3.229010e+00 4.483752e+01 
3.263320e+00 4.397481e+01 
3.297930e+00 4.312902e+01 
3.332830e+00 4.230051e+01 
3.368040e+00 4.148634e+01 
3.403300e+00 4.069242e+01 
3.438450e+00 3.992055e+01 
3.473060e+00 3.918039e+01 
3.508440e+00 3.844668e+01 
3.543110e+00 3.774619e+01 
3.577470e+00 3.706713e+01 
3.613040e+00 3.638294e+01 
3.648120e+00 3.572739e+01 
3.682910e+00 3.509220e+01 
3.718050e+00 3.446386e+01 
3.753320e+00 3.385061e+01 
3.787980e+00 3.326516e+01 
3.822290e+00 3.269858e+01 
3.857020e+00 3.213722e+01 
3.891920e+00 3.158669e+01 
3.926650e+00 3.105189e+01 
3.961970e+00 3.052093e+01 
3.997360e+00 3.000154e+01 
4.031670e+00 2.950995e+01 
4.066330e+00 2.902567e+01 
4.101420e+00 2.854663e+01 
4.136200e+00 2.808234e+01 
4.170810e+00 2.763073e+01 
4.206250e+00 2.717968e+01 
4.241580e+00 2.674036e+01 
4.276300e+00 2.631782e+01 
4.310970e+00 2.590489e+01 
4.346120e+00 2.549587e+01 
4.380600e+00 2.510414e+01 
4.414730e+00 2.472456e+01 
4.450350e+00 2.433636e+01 
4.485320e+00 2.396342e+01 
4.519810e+00 2.360417e+01 
4.555430e+00 2.324132e+01 
4.590870e+00 2.288827e+01 
4.625480e+00 2.255132e+01 
4.659910e+00 2.222290e+01 
4.695230e+00 2.189262e+01 
4.729960e+00 2.157439e+01 
4.764450e+00 2.126456e+01 
4.799530e+00 2.095553e+01 
4.834910e+00 2.065009e+01 
4.869700e+00 2.035764e+01 
4.904370e+00 2.007218e+01 
4.939450e+00 1.978887e+01 
4.973940e+00 1.951552e+01 
5.008430e+00 1.924734e+01 
5.043810e+00 1.897740e+01 
5.078840e+00 1.871519e+01 
5.113500e+00 1.846061e+01 
5.148890e+00 1.820747e+01 
5.184210e+00 1.795964e+01 
5.219060e+00 1.771934e+01 
5.253660e+00 1.748429e+01 
5.288570e+00 1.725142e+01 
5.323420e+00 1.702405e+01 
5.358440e+00 1.680066e+01 
5.393590e+00 1.658046e+01 
5.428310e+00 1.636679e+01 
5.462800e+00 1.615824e+01 
5.497640e+00 1.595123e+01 
5.532670e+00 1.574800e+01 
5.567280e+00 1.555108e+01 
5.602000e+00 1.535689e+01 
5.637270e+00 1.516230e+01 
5.672410e+00 1.497158e+01 
5.707020e+00 1.478692e+01 
5.742040e+00 1.460454e+01 
5.777430e+00 1.442361e+01 
5.812210e+00 1.424876e+01 
5.846820e+00 1.407756e+01 
5.881610e+00 1.390827e+01 
5.916510e+00 1.374121e+01 
5.951600e+00 1.357652e+01 
5.986560e+00 1.341533e+01 
6.021830e+00 1.325534e+01 
6.056490e+00 1.310099e+01 
6.091160e+00 1.294933e+01 
6.125830e+00 1.280004e+01 
6.161090e+00 1.265061e+01 
6.195760e+00 1.250597e+01 
6.230420e+00 1.236360e+01 
6.265690e+00 1.222101e+01 
6.300950e+00 1.208134e+01 
6.335620e+00 1.194611e+01 
6.370880e+00 1.181068e+01 
6.405550e+00 1.167992e+01 
6.440220e+00 1.155128e+01 
6.475480e+00 1.142242e+01 
6.510150e+00 1.129778e+01 
6.544810e+00 1.117543e+01 
6.580080e+00 1.105276e+01 
6.614750e+00 1.093395e+01 
6.649410e+00 1.081694e+01 
6.684080e+00 1.070160e+01 
6.719340e+00 1.058599e+01 
6.754010e+00 1.047411e+01 
6.788680e+00 1.036417e+01 
6.823940e+00 1.025396e+01 
6.859800e+00 1.014349e+01 
6.894470e+00 1.003858e+01 
6.929140e+00 9.935271e+00 
6.963800e+00 9.833420e+00 
6.999070e+00 9.731225e+00 
7.033730e+00 9.632261e+00 
7.068400e+00 9.534624e+00 
7.103660e+00 9.436689e+00 
7.138330e+00 9.341989e+00 
7.173600e+00 9.247538e+00 
7.208260e+00 9.155975e+00 
7.243530e+00 9.064053e+00 
7.277600e+00 8.976272e+00 
7.312860e+00 8.886476e+00 
7.348120e+00 8.797885e+00 
7.382790e+00 8.711931e+00 
7.417460e+00 8.627621e+00 
7.452720e+00 8.543271e+00 
7.487390e+00 8.461412e+00 
7.522650e+00 8.379242e+00 
7.557320e+00 8.299541e+00 
7.591990e+00 8.220877e+00 
7.627250e+00 8.141899e+00 
7.662510e+00 8.063939e+00 
7.697180e+00 7.988541e+00 
7.731850e+00 7.914198e+00 
7.766510e+00 7.840804e+00 
7.801180e+00 7.768301e+00 
7.836440e+00 7.695525e+00 
7.871110e+00 7.624881e+00 
7.906380e+00 7.553906e+00 
7.941040e+00 7.485019e+00 
7.976310e+00 7.415955e+00 
8.011570e+00 7.347969e+00 
8.046240e+00 7.281934e+00 
8.080900e+00 7.216713e+00 
8.115570e+00 7.152301e+00 
8.150830e+00 7.087758e+00 
8.185500e+00 7.025055e+00 
8.220770e+00 6.962028e+00 
8.255430e+00 6.900828e+00 
8.290100e+00 6.840523e+00 
8.324770e+00 6.780946e+00 
8.359430e+00 6.722079e+00 
8.394700e+00 6.662878e+00 
8.429960e+00 6.604494e+00 
8.464630e+00 6.547862e+00 
8.499890e+00 6.490931e+00 
8.534560e+00 6.435597e+00 
8.569200e+00 6.380940e+00 
