# Parameters:
# omega_b = 0.022366, omega_m = 0.146457, n_s = 0.979134, h = 67.283465, w = -1.000000, sigma_8 = 0.860630
# z = 0.500000
#
# k[1/Mpc] # P(k):
8.694000e-04 8.785481e+03 
2.077466e-03 1.907813e+04 
3.285532e-03 2.729017e+04 
4.493598e-03 3.374794e+04 
5.701664e-03 3.866270e+04 
6.909730e-03 4.226019e+04 
8.117797e-03 4.481089e+04 
9.325863e-03 4.645295e+04 
1.053393e-02 4.732791e+04 
1.174199e-02 4.756906e+04 
1.295006e-02 4.726083e+04 
1.415813e-02 4.652210e+04 
1.536619e-02 4.545399e+04 
1.657426e-02 4.412613e+04 
1.778233e-02 4.259570e+04 
1.899039e-02 4.094509e+04 
2.019846e-02 3.923805e+04 
2.140652e-02 3.753958e+04 
2.261459e-02 3.587525e+04 
2.382266e-02 3.427532e+04 
2.503072e-02 3.276368e+04 
2.623879e-02 3.135128e+04 
2.744685e-02 3.004204e+04 
2.865492e-02 2.884231e+04 
2.986299e-02 2.774987e+04 
3.100100e-02 2.681713e+04 
3.220400e-02 2.592666e+04 
3.288100e-02 2.546752e+04 
3.424300e-02 2.462608e+04 
3.555100e-02 2.390732e+04 
3.686000e-02 2.326503e+04 
3.795000e-02 2.277818e+04 
3.929100e-02 2.223134e+04 
4.039800e-02 2.181059e+04 
4.164000e-02 2.136269e+04 
4.294400e-02 2.090598e+04 
4.415000e-02 2.049245e+04 
4.542900e-02 2.004742e+04 
4.660900e-02 1.963490e+04 
4.782300e-02 1.918989e+04 
4.892900e-02 1.877643e+04 
5.031200e-02 1.824175e+04 
5.155900e-02 1.774129e+04 
5.238100e-02 1.740456e+04 
5.378200e-02 1.682214e+04 
5.513400e-02 1.625111e+04 
5.627600e-02 1.576647e+04 
5.735300e-02 1.531264e+04 
5.870100e-02 1.475366e+04 
5.988700e-02 1.427563e+04 
6.113500e-02 1.378954e+04 
6.225900e-02 1.336965e+04 
6.340100e-02 1.296324e+04 
6.480200e-02 1.249386e+04 
6.601100e-02 1.211767e+04 
6.725500e-02 1.175892e+04 
6.829100e-02 1.148409e+04 
6.958600e-02 1.116636e+04 
7.071100e-02 1.091550e+04 
7.192300e-02 1.066869e+04 
7.307400e-02 1.045526e+04 
7.412300e-02 1.027696e+04 
7.550400e-02 1.006510e+04 
7.663100e-02 9.906639e+03 
7.791200e-02 9.743205e+03 
7.912700e-02 9.600112e+03 
8.027600e-02 9.471963e+03 
8.138400e-02 9.353189e+03 
8.272200e-02 9.213953e+03 
8.406100e-02 9.076535e+03 
8.534100e-02 8.943120e+03 
8.653800e-02 8.814687e+03 
8.759800e-02 8.698584e+03 
8.900300e-02 8.539763e+03 
9.009000e-02 8.411851e+03 
9.113300e-02 8.284205e+03 
9.239600e-02 8.127075e+03 
9.358000e-02 7.975758e+03 
9.496100e-02 7.794090e+03 
9.608400e-02 7.645812e+03 
9.727500e-02 7.489258e+03 
9.852600e-02 7.323233e+03 
9.973800e-02 7.165958e+03 
1.009000e-01 7.018532e+03 
1.020900e-01 6.871686e+03 
1.034000e-01 6.716105e+03 
1.046000e-01 6.579190e+03 
1.057200e-01 6.458671e+03 
1.069100e-01 6.335794e+03 
1.082500e-01 6.206723e+03 
1.093900e-01 6.103867e+03 
1.105400e-01 6.005010e+03 
1.116900e-01 5.914340e+03 
1.129600e-01 5.818828e+03 
1.142000e-01 5.733146e+03 
1.153300e-01 5.658890e+03 
1.166400e-01 5.577881e+03 
1.177800e-01 5.511385e+03 
1.190000e-01 5.442983e+03 
1.201200e-01 5.382884e+03 
1.213400e-01 5.319180e+03 
1.227100e-01 5.249493e+03 
1.238900e-01 5.190704e+03 
1.250700e-01 5.132250e+03 
1.263200e-01 5.071091e+03 
1.275500e-01 5.010794e+03 
1.287500e-01 4.952254e+03 
1.299900e-01 4.891452e+03 
1.311300e-01 4.835616e+03 
1.323500e-01 4.775389e+03 
1.335900e-01 4.714386e+03 
1.347100e-01 4.658925e+03 
1.359800e-01 4.596526e+03 
1.372100e-01 4.535703e+03 
1.384300e-01 4.476138e+03 
1.395700e-01 4.420304e+03 
1.407700e-01 4.362634e+03 
1.420300e-01 4.302139e+03 
1.432800e-01 4.243448e+03 
1.444500e-01 4.189264e+03 
1.456300e-01 4.135731e+03 
1.468900e-01 4.080077e+03 
1.480500e-01 4.029988e+03 
1.491700e-01 3.983004e+03 
1.503800e-01 3.933802e+03 
1.516400e-01 3.883898e+03 
1.528200e-01 3.839342e+03 
1.540200e-01 3.794902e+03 
1.551900e-01 3.753717e+03 
1.564300e-01 3.711221e+03 
1.576600e-01 3.670546e+03 
1.588700e-01 3.632087e+03 
1.600900e-01 3.594092e+03 
1.612700e-01 3.559068e+03 
1.625400e-01 3.522070e+03 
1.637600e-01 3.487517e+03 
1.649500e-01 3.454608e+03 
1.662200e-01 3.420129e+03 
1.674000e-01 3.388701e+03 
1.685000e-01 3.359889e+03 
1.697500e-01 3.327467e+03 
1.710300e-01 3.294632e+03 
1.722200e-01 3.264643e+03 
1.734400e-01 3.233728e+03 
1.746400e-01 3.203809e+03 
1.758700e-01 3.173414e+03 
1.770900e-01 3.143273e+03 
1.782700e-01 3.114603e+03 
1.794600e-01 3.085799e+03 
1.807000e-01 3.056039e+03 
1.819100e-01 3.027482e+03 
1.830100e-01 3.001625e+03 
1.842200e-01 2.973572e+03 
1.855000e-01 2.944385e+03 
1.867000e-01 2.917366e+03 
1.879200e-01 2.890335e+03 
1.890900e-01 2.864838e+03 
1.902800e-01 2.839414e+03 
1.915200e-01 2.813337e+03 
1.926900e-01 2.789172e+03 
1.939000e-01 2.764755e+03 
1.951700e-01 2.739529e+03 
1.963100e-01 2.717318e+03 
1.975100e-01 2.694521e+03 
1.987800e-01 2.670763e+03 
2.000100e-01 2.648201e+03 
2.012500e-01 2.626015e+03 
2.023400e-01 2.606789e+03 
2.036100e-01 2.584759e+03 
2.048900e-01 2.563089e+03 
2.060400e-01 2.543902e+03 
2.072200e-01 2.524496e+03 
2.084200e-01 2.505159e+03 
2.096900e-01 2.484990e+03 
2.109200e-01 2.465740e+03 
2.121100e-01 2.447395e+03 
2.132700e-01 2.429754e+03 
2.145200e-01 2.411007e+03 
2.157200e-01 2.393235e+03 
2.168800e-01 2.376273e+03 
2.180700e-01 2.359102e+03 
2.193400e-01 2.340989e+03 
2.206000e-01 2.323199e+03 
2.217500e-01 2.307178e+03 
2.229500e-01 2.290677e+03 
2.241400e-01 2.274423e+03 
2.253500e-01 2.258109e+03 
2.264900e-01 2.242935e+03 
2.277100e-01 2.226835e+03 
2.289900e-01 2.210095e+03 
2.301500e-01 2.195122e+03 
2.313600e-01 2.179699e+03 
2.325600e-01 2.164501e+03 
2.337700e-01 2.149370e+03 
2.350000e-01 2.134185e+03 
2.362000e-01 2.119530e+03 
2.374100e-01 2.104904e+03 
2.386500e-01 2.090104e+03 
2.399100e-01 2.075259e+03 
2.410400e-01 2.062094e+03 
2.422500e-01 2.048162e+03 
2.435000e-01 2.033949e+03 
2.447300e-01 2.020143e+03 
2.458700e-01 2.007517e+03 
2.470600e-01 1.994490e+03 
2.483300e-01 1.980757e+03 
2.495600e-01 1.967656e+03 
2.507600e-01 1.955077e+03 
2.519600e-01 1.942645e+03 
2.532200e-01 1.929747e+03 
2.543700e-01 1.918170e+03 
2.555500e-01 1.906465e+03 
2.568000e-01 1.894209e+03 
2.580100e-01 1.882484e+03 
2.592400e-01 1.870790e+03 
2.604100e-01 1.859829e+03 
2.616100e-01 1.848712e+03 
2.628400e-01 1.837446e+03 
2.640600e-01 1.826484e+03 
2.652200e-01 1.816209e+03 
2.664300e-01 1.805607e+03 
2.676500e-01 1.795037e+03 
2.688400e-01 1.784906e+03 
2.700700e-01 1.774590e+03 
2.712400e-01 1.764884e+03 
2.724800e-01 1.754708e+03 
2.736700e-01 1.745077e+03 
2.748800e-01 1.735416e+03 
2.761000e-01 1.725780e+03 
2.773200e-01 1.716248e+03 
2.785400e-01 1.706834e+03 
2.797000e-01 1.698009e+03 
2.808900e-01 1.689048e+03 
2.821400e-01 1.679735e+03 
2.833900e-01 1.670523e+03 
2.845500e-01 1.662082e+03 
2.857800e-01 1.653224e+03 
2.870300e-01 1.644317e+03 
2.882100e-01 1.635995e+03 
2.893900e-01 1.627761e+03 
2.906300e-01 1.619198e+03 
2.918900e-01 1.610589e+03 
2.930500e-01 1.602744e+03 
2.942500e-01 1.594706e+03 
2.954200e-01 1.586945e+03 
2.966500e-01 1.578867e+03 
2.978900e-01 1.570805e+03 
2.990400e-01 1.563402e+03 
3.002700e-01 1.555561e+03 
3.015100e-01 1.547735e+03 
3.026800e-01 1.540423e+03 
3.038500e-01 1.533180e+03 
3.050300e-01 1.525944e+03 
3.062600e-01 1.518474e+03 
3.075000e-01 1.511017e+03 
3.087000e-01 1.503870e+03 
3.099100e-01 1.496732e+03 
3.111200e-01 1.489664e+03 
3.123100e-01 1.482783e+03 
3.135300e-01 1.475795e+03 
3.147300e-01 1.468986e+03 
3.159900e-01 1.461904e+03 
3.171800e-01 1.455284e+03 
3.183700e-01 1.448728e+03 
3.196300e-01 1.441850e+03 
3.208400e-01 1.435308e+03 
3.220300e-01 1.428933e+03 
3.232000e-01 1.422734e+03 
3.244300e-01 1.416280e+03 
3.256700e-01 1.409834e+03 
3.269200e-01 1.403397e+03 
3.280800e-01 1.397477e+03 
3.292500e-01 1.391571e+03 
3.304800e-01 1.385422e+03 
3.317100e-01 1.379328e+03 
3.328900e-01 1.373534e+03 
3.340700e-01 1.367790e+03 
3.353600e-01 1.361582e+03 
3.365300e-01 1.356008e+03 
3.377100e-01 1.350434e+03 
3.389200e-01 1.344768e+03 
3.401600e-01 1.339012e+03 
3.413700e-01 1.333456e+03 
3.425300e-01 1.328181e+03 
3.437700e-01 1.322591e+03 
3.449800e-01 1.317184e+03 
3.461800e-01 1.311867e+03 
3.473600e-01 1.306688e+03 
3.485800e-01 1.301393e+03 
3.498100e-01 1.296101e+03 
3.510200e-01 1.290939e+03 
3.522000e-01 1.285947e+03 
3.533900e-01 1.280954e+03 
3.546400e-01 1.275771e+03 
3.558400e-01 1.270839e+03 
3.570600e-01 1.265866e+03 
3.582700e-01 1.260975e+03 
3.595000e-01 1.256044e+03 
3.607100e-01 1.251243e+03 
3.618900e-01 1.246607e+03 
3.631200e-01 1.241813e+03 
3.643200e-01 1.237174e+03 
3.655500e-01 1.232458e+03 
3.667300e-01 1.227971e+03 
3.679500e-01 1.223387e+03 
3.691900e-01 1.218766e+03 
3.703600e-01 1.214441e+03 
3.715700e-01 1.210003e+03 
3.727700e-01 1.205637e+03 
3.739900e-01 1.201236e+03 
3.752000e-01 1.196909e+03 
3.763900e-01 1.192687e+03 
3.775800e-01 1.188498e+03 
3.788200e-01 1.184168e+03 
3.800300e-01 1.179975e+03 
3.812100e-01 1.175899e+03 
3.824200e-01 1.171739e+03 
3.836100e-01 1.167680e+03 
3.848600e-01 1.163448e+03 
3.860400e-01 1.159485e+03 
3.872400e-01 1.155485e+03 
3.884600e-01 1.151481e+03 
3.896500e-01 1.147617e+03 
3.908700e-01 1.143685e+03 
3.920600e-01 1.139879e+03 
3.933100e-01 1.135912e+03 
3.945300e-01 1.132070e+03 
3.957200e-01 1.128332e+03 
3.969300e-01 1.124554e+03 
3.981700e-01 1.120711e+03 
3.993500e-01 1.117082e+03 
4.094840e-01 1.086821e+03 
4.272360e-01 1.038042e+03 
4.454600e-01 9.923649e+02 
4.630560e-01 9.519153e+02 
4.804610e-01 9.149970e+02 
4.980690e-01 8.805282e+02 
5.159230e-01 8.481736e+02 
5.317440e-01 8.215723e+02 
5.489640e-01 7.944287e+02 
5.671990e-01 7.676564e+02 
5.838690e-01 7.448331e+02 
6.018840e-01 7.218151e+02 
6.202330e-01 6.999012e+02 
6.379250e-01 6.800342e+02 
6.545410e-01 6.624506e+02 
6.714560e-01 6.455318e+02 
6.892080e-01 6.287010e+02 
7.066010e-01 6.129776e+02 
7.240540e-01 5.980160e+02 
7.420450e-01 5.834087e+02 
7.593780e-01 5.698383e+02 
7.764720e-01 5.570639e+02 
7.942840e-01 5.443479e+02 
8.116170e-01 5.323459e+02 
8.288310e-01 5.209184e+02 
8.462240e-01 5.097327e+02 
8.631980e-01 4.991990e+02 
8.810700e-01 4.885014e+02 
8.989410e-01 4.781865e+02 
9.166330e-01 4.682654e+02 
9.345640e-01 4.584731e+02 
9.515980e-01 4.494542e+02 
9.688720e-01 4.405994e+02 
9.865640e-01 4.317696e+02 
1.031870e+00 4.102456e+02 
1.063490e+00 3.960863e+02 
1.097920e+00 3.813996e+02 
1.134370e+00 3.666944e+02 
1.167730e+00 3.538333e+02 
1.203830e+00 3.406174e+02 
1.240470e+00 3.278850e+02 
1.275790e+00 3.161545e+02 
1.309140e+00 3.056368e+02 
1.342970e+00 2.953826e+02 
1.378420e+00 2.851898e+02 
1.413200e+00 2.756062e+02 
1.448110e+00 2.664244e+02 
1.484090e+00 2.574043e+02 
1.518820e+00 2.490878e+02 
1.552880e+00 2.412449e+02 
1.588630e+00 2.334038e+02 
1.623230e+00 2.261458e+02 
1.657720e+00 2.192139e+02 
1.692450e+00 2.125646e+02 
1.726400e+00 2.062755e+02 
1.762200e+00 1.999185e+02 
1.797880e+00 1.938610e+02 
1.833270e+00 1.881019e+02 
1.869070e+00 1.825104e+02 
1.903200e+00 1.774057e+02 
1.937740e+00 1.724359e+02 
1.973190e+00 1.675308e+02 
2.007440e+00 1.629741e+02 
2.042160e+00 1.585293e+02 
2.077900e+00 1.541204e+02 
2.112390e+00 1.500515e+02 
2.146220e+00 1.461700e+02 
2.181600e+00 1.422806e+02 
2.216930e+00 1.385418e+02 
2.250760e+00 1.350817e+02 
2.286500e+00 1.315528e+02 
2.321770e+00 1.282003e+02 
2.355950e+00 1.250664e+02 
2.391280e+00 1.219275e+02 
2.426240e+00 1.189376e+02 
2.460670e+00 1.160904e+02 
2.495640e+00 1.132865e+02 
2.531080e+00 1.105550e+02 
2.566220e+00 1.079308e+02 
2.600830e+00 1.054305e+02 
2.635080e+00 1.030373e+02 
2.670340e+00 1.006434e+02 
2.705970e+00 9.831264e+01 
2.740040e+00 9.615729e+01 
2.774520e+00 9.403075e+01 
2.809730e+00 9.193274e+01 
2.844390e+00 8.993351e+01 
2.879960e+00 8.794233e+01 
2.914860e+00 8.604692e+01 
2.949410e+00 8.422799e+01 
2.984440e+00 8.244291e+01 
3.019760e+00 8.069195e+01 
3.054730e+00 7.900747e+01 
3.089030e+00 7.740510e+01 
3.124060e+00 7.581638e+01 
3.159560e+00 7.425352e+01 
3.194710e+00 7.275163e+01 
3.229010e+00 7.132744e+01 
3.263320e+00 6.993613e+01 
3.297930e+00 6.857285e+01 
3.332830e+00 6.723874e+01 
3.368040e+00 6.592860e+01 
3.403300e+00 6.465175e+01 
3.438450e+00 6.341176e+01 
3.473060e+00 6.222316e+01 
3.508440e+00 6.104613e+01 
3.543110e+00 5.992272e+01 
3.577470e+00 5.883503e+01 
3.613040e+00 5.773951e+01 
3.648120e+00 5.669072e+01 
3.682910e+00 5.567497e+01 
3.718050e+00 5.467092e+01 
3.753320e+00 5.369152e+01 
3.787980e+00 5.275726e+01 
3.822290e+00 5.185352e+01 
3.857020e+00 5.095869e+01 
3.891920e+00 5.008149e+01 
3.926650e+00 4.923000e+01 
3.961970e+00 4.838492e+01 
3.997360e+00 4.755893e+01 
4.031670e+00 4.677735e+01 
4.066330e+00 4.600804e+01 
4.101420e+00 4.524710e+01 
4.136200e+00 4.451036e+01 
4.170810e+00 4.379373e+01 
4.206250e+00 4.307848e+01 
4.241580e+00 4.238192e+01 
4.276300e+00 4.171247e+01 
4.310970e+00 4.105850e+01 
4.346120e+00 4.041093e+01 
4.380600e+00 3.979105e+01 
4.414730e+00 3.919040e+01 
4.450350e+00 3.857663e+01 
4.485320e+00 3.798696e+01 
4.519810e+00 3.741931e+01 
4.555430e+00 3.684614e+01 
4.590870e+00 3.628854e+01 
4.625480e+00 3.575658e+01 
4.659910e+00 3.523806e+01 
4.695230e+00 3.471697e+01 
4.729960e+00 3.421494e+01 
4.764450e+00 3.372623e+01 
4.799530e+00 3.323895e+01 
4.834910e+00 3.275729e+01 
4.869700e+00 3.229641e+01 
4.904370e+00 3.184656e+01 
4.939450e+00 3.140015e+01 
4.973940e+00 3.096961e+01 
5.008430e+00 3.054718e+01 
5.043810e+00 3.012206e+01 
5.078840e+00 2.970914e+01 
5.113500e+00 2.930821e+01 
5.148890e+00 2.890974e+01 
5.184210e+00 2.851963e+01 
5.219060e+00 2.814136e+01 
5.253660e+00 2.777141e+01 
5.288570e+00 2.740488e+01 
5.323420e+00 2.704704e+01 
5.358440e+00 2.669553e+01 
5.393590e+00 2.634901e+01 
5.428310e+00 2.601277e+01 
5.462800e+00 2.568457e+01 
5.497640e+00 2.535878e+01 
5.532670e+00 2.503897e+01 
5.567280e+00 2.472907e+01 
5.602000e+00 2.442347e+01 
5.637270e+00 2.411720e+01 
5.672410e+00 2.381702e+01 
5.707020e+00 2.352634e+01 
5.742040e+00 2.323920e+01 
5.777430e+00 2.295431e+01 
5.812210e+00 2.267898e+01 
5.846820e+00 2.240940e+01 
5.881610e+00 2.214279e+01 
5.916510e+00 2.187969e+01 
5.951600e+00 2.162024e+01 
5.986560e+00 2.136628e+01 
6.021830e+00 2.111419e+01 
6.056490e+00 2.087093e+01 
6.091160e+00 2.063187e+01 
6.125830e+00 2.039653e+01 
6.161090e+00 2.016091e+01 
6.195760e+00 1.993277e+01 
6.230420e+00 1.970819e+01 
6.265690e+00 1.948323e+01 
6.300950e+00 1.926281e+01 
6.335620e+00 1.904937e+01 
6.370880e+00 1.883560e+01 
6.405550e+00 1.862909e+01 
6.440220e+00 1.842587e+01 
6.475480e+00 1.822227e+01 
6.510150e+00 1.802532e+01 
6.544810e+00 1.783189e+01 
6.580080e+00 1.763794e+01 
6.614750e+00 1.745009e+01 
6.649410e+00 1.726496e+01 
6.684080e+00 1.708244e+01 
6.719340e+00 1.689948e+01 
6.754010e+00 1.672237e+01 
6.788680e+00 1.654823e+01 
6.823940e+00 1.637364e+01 
6.859800e+00 1.619864e+01 
6.894470e+00 1.603232e+01 
6.929140e+00 1.586848e+01 
6.963800e+00 1.570695e+01 
6.999070e+00 1.554486e+01 
7.033730e+00 1.538772e+01 
7.068400e+00 1.523268e+01 
7.103660e+00 1.507716e+01 
7.138330e+00 1.492672e+01 
7.173600e+00 1.477659e+01 
7.208260e+00 1.463104e+01 
7.243530e+00 1.448492e+01 
7.277600e+00 1.434529e+01 
7.312860e+00 1.420237e+01 
7.348120e+00 1.406137e+01 
7.382790e+00 1.392456e+01 
7.417460e+00 1.379024e+01 
7.452720e+00 1.365580e+01 
7.487390e+00 1.352533e+01 
7.522650e+00 1.339435e+01 
7.557320e+00 1.326720e+01 
7.591990e+00 1.314165e+01 
7.627250e+00 1.301560e+01 
7.662510e+00 1.289117e+01 
7.697180e+00 1.277071e+01 
7.731850e+00 1.265189e+01 
7.766510e+00 1.253459e+01 
7.801180e+00 1.241871e+01 
7.836440e+00 1.230229e+01 
7.871110e+00 1.218923e+01 
7.906380e+00 1.207564e+01 
7.941040e+00 1.196539e+01 
7.976310e+00 1.185477e+01 
8.011570e+00 1.174579e+01 
8.046240e+00 1.163994e+01 
8.080900e+00 1.153539e+01 
8.115570e+00 1.143211e+01 
8.150830e+00 1.132851e+01 
8.185500e+00 1.122786e+01 
8.220770e+00 1.112670e+01 
8.255430e+00 1.102847e+01 
8.290100e+00 1.093153e+01 
8.324770e+00 1.083574e+01 
8.359430e+00 1.074109e+01 
8.394700e+00 1.064592e+01 
8.429960e+00 1.055199e+01 
8.464630e+00 1.046082e+01 
8.499890e+00 1.036917e+01 
8.534560e+00 1.028010e+01 
8.569200e+00 1.019212e+01 
