# Parameters:
# omega_b = 0.023122, omega_m = 0.134882, n_s = 1.040551, h = 64.921260, w = -1.000000, sigma_8 = 0.885827
# z = 0.500000
#
# k[1/Mpc] # P(k):
8.694000e-04 9.427144e+03 
2.077466e-03 2.142090e+04 
3.285532e-03 3.125883e+04 
4.493598e-03 3.909860e+04 
5.701664e-03 4.508498e+04 
6.909730e-03 4.946236e+04 
8.117797e-03 5.255291e+04 
9.325863e-03 5.451760e+04 
1.053393e-02 5.552334e+04 
1.174199e-02 5.572921e+04 
1.295006e-02 5.523984e+04 
1.415813e-02 5.420715e+04 
1.536619e-02 5.276266e+04 
1.657426e-02 5.099755e+04 
1.778233e-02 4.900343e+04 
1.899039e-02 4.694913e+04 
2.019846e-02 4.490097e+04 
2.140652e-02 4.287299e+04 
2.261459e-02 4.088782e+04 
2.382266e-02 3.899126e+04 
2.503072e-02 3.721355e+04 
2.623879e-02 3.556673e+04 
2.744685e-02 3.405581e+04 
2.865492e-02 3.268423e+04 
2.986299e-02 3.144691e+04 
3.100100e-02 3.040099e+04 
3.220400e-02 2.941132e+04 
3.288100e-02 2.890485e+04 
3.424300e-02 2.798194e+04 
3.555100e-02 2.719752e+04 
3.686000e-02 2.649816e+04 
3.795000e-02 2.596744e+04 
3.929100e-02 2.536784e+04 
4.039800e-02 2.490214e+04 
4.164000e-02 2.440134e+04 
4.294400e-02 2.388189e+04 
4.415000e-02 2.340621e+04 
4.542900e-02 2.288699e+04 
4.660900e-02 2.240202e+04 
4.782300e-02 2.187482e+04 
4.892900e-02 2.138393e+04 
5.031200e-02 2.074873e+04 
5.155900e-02 2.015534e+04 
5.238100e-02 1.975729e+04 
5.378200e-02 1.907138e+04 
5.513400e-02 1.840311e+04 
5.627600e-02 1.783949e+04 
5.735300e-02 1.731466e+04 
5.870100e-02 1.667225e+04 
5.988700e-02 1.612622e+04 
6.113500e-02 1.557424e+04 
6.225900e-02 1.510030e+04 
6.340100e-02 1.464403e+04 
6.480200e-02 1.411965e+04 
6.601100e-02 1.370196e+04 
6.725500e-02 1.330567e+04 
6.829100e-02 1.300371e+04 
6.958600e-02 1.265590e+04 
7.071100e-02 1.238259e+04 
7.192300e-02 1.211474e+04 
7.307400e-02 1.188393e+04 
7.412300e-02 1.169164e+04 
7.550400e-02 1.146372e+04 
7.663100e-02 1.129338e+04 
7.791200e-02 1.111747e+04 
7.912700e-02 1.096271e+04 
8.027600e-02 1.082314e+04 
8.138400e-02 1.069274e+04 
8.272200e-02 1.053817e+04 
8.406100e-02 1.038353e+04 
8.534100e-02 1.023090e+04 
8.653800e-02 1.008195e+04 
8.759800e-02 9.946176e+03 
8.900300e-02 9.758883e+03 
9.009000e-02 9.606992e+03 
9.113300e-02 9.454867e+03 
9.239600e-02 9.267347e+03 
9.358000e-02 9.086707e+03 
9.496100e-02 8.870432e+03 
9.608400e-02 8.694553e+03 
9.727500e-02 8.509443e+03 
9.852600e-02 8.315089e+03 
9.973800e-02 8.132083e+03 
1.009000e-01 7.961451e+03 
1.020900e-01 7.793978e+03 
1.034000e-01 7.617757e+03 
1.046000e-01 7.463956e+03 
1.057200e-01 7.330649e+03 
1.069100e-01 7.195442e+03 
1.082500e-01 7.055445e+03 
1.093900e-01 6.944942e+03 
1.105400e-01 6.839361e+03 
1.116900e-01 6.743662e+03 
1.129600e-01 6.643131e+03 
1.142000e-01 6.553458e+03 
1.153300e-01 6.475654e+03 
1.166400e-01 6.390646e+03 
1.177800e-01 6.320227e+03 
1.190000e-01 6.247483e+03 
1.201200e-01 6.182174e+03 
1.213400e-01 6.112694e+03 
1.227100e-01 6.034290e+03 
1.238900e-01 5.967656e+03 
1.250700e-01 5.899824e+03 
1.263200e-01 5.828345e+03 
1.275500e-01 5.756763e+03 
1.287500e-01 5.686927e+03 
1.299900e-01 5.613867e+03 
1.311300e-01 5.546780e+03 
1.323500e-01 5.474425e+03 
1.335900e-01 5.401463e+03 
1.347100e-01 5.335548e+03 
1.359800e-01 5.261836e+03 
1.372100e-01 5.190858e+03 
1.384300e-01 5.121784e+03 
1.395700e-01 5.058060e+03 
1.407700e-01 4.992373e+03 
1.420300e-01 4.924861e+03 
1.432800e-01 4.859353e+03 
1.444500e-01 4.800048e+03 
1.456300e-01 4.741441e+03 
1.468900e-01 4.681063e+03 
1.480500e-01 4.626877e+03 
1.491700e-01 4.576160e+03 
1.503800e-01 4.523193e+03 
1.516400e-01 4.469428e+03 
1.528200e-01 4.421286e+03 
1.540200e-01 4.373261e+03 
1.551900e-01 4.328374e+03 
1.564300e-01 4.281958e+03 
1.576600e-01 4.237239e+03 
1.588700e-01 4.194600e+03 
1.600900e-01 4.152438e+03 
1.612700e-01 4.112937e+03 
1.625400e-01 4.071209e+03 
1.637600e-01 4.031899e+03 
1.649500e-01 3.994260e+03 
1.662200e-01 3.954773e+03 
1.674000e-01 3.918497e+03 
1.685000e-01 3.885240e+03 
1.697500e-01 3.847764e+03 
1.710300e-01 3.809760e+03 
1.722200e-01 3.775050e+03 
1.734400e-01 3.739363e+03 
1.746400e-01 3.704829e+03 
1.758700e-01 3.669821e+03 
1.770900e-01 3.635257e+03 
1.782700e-01 3.602380e+03 
1.794600e-01 3.569518e+03 
1.807000e-01 3.535677e+03 
1.819100e-01 3.503202e+03 
1.830100e-01 3.474017e+03 
1.842200e-01 3.442389e+03 
1.855000e-01 3.409489e+03 
1.867000e-01 3.379256e+03 
1.879200e-01 3.349007e+03 
1.890900e-01 3.320498e+03 
1.902800e-01 3.292203e+03 
1.915200e-01 3.263179e+03 
1.926900e-01 3.236301e+03 
1.939000e-01 3.209202e+03 
1.951700e-01 3.181202e+03 
1.963100e-01 3.156550e+03 
1.975100e-01 3.131249e+03 
1.987800e-01 3.104881e+03 
2.000100e-01 3.079822e+03 
2.012500e-01 3.055141e+03 
2.023400e-01 3.033752e+03 
2.036100e-01 3.009218e+03 
2.048900e-01 2.984997e+03 
2.060400e-01 2.963550e+03 
2.072200e-01 2.941847e+03 
2.084200e-01 2.920092e+03 
2.096900e-01 2.897401e+03 
2.109200e-01 2.875742e+03 
2.121100e-01 2.854944e+03 
2.132700e-01 2.834936e+03 
2.145200e-01 2.813672e+03 
2.157200e-01 2.793386e+03 
2.168800e-01 2.773965e+03 
2.180700e-01 2.754304e+03 
2.193400e-01 2.733483e+03 
2.206000e-01 2.712881e+03 
2.217500e-01 2.694329e+03 
2.229500e-01 2.675220e+03 
2.241400e-01 2.656150e+03 
2.253500e-01 2.637004e+03 
2.264900e-01 2.619195e+03 
2.277100e-01 2.600161e+03 
2.289900e-01 2.580217e+03 
2.301500e-01 2.562379e+03 
2.313600e-01 2.544003e+03 
2.325600e-01 2.525608e+03 
2.337700e-01 2.507295e+03 
2.350000e-01 2.488919e+03 
2.362000e-01 2.471064e+03 
2.374100e-01 2.453104e+03 
2.386500e-01 2.434933e+03 
2.399100e-01 2.416706e+03 
2.410400e-01 2.400382e+03 
2.422500e-01 2.383089e+03 
2.435000e-01 2.365447e+03 
2.447300e-01 2.348295e+03 
2.458700e-01 2.332541e+03 
2.470600e-01 2.316288e+03 
2.483300e-01 2.299156e+03 
2.495600e-01 2.282824e+03 
2.507600e-01 2.267156e+03 
2.519600e-01 2.251673e+03 
2.532200e-01 2.235611e+03 
2.543700e-01 2.221272e+03 
2.555500e-01 2.206826e+03 
2.568000e-01 2.191702e+03 
2.580100e-01 2.177234e+03 
2.592400e-01 2.162946e+03 
2.604100e-01 2.149618e+03 
2.616100e-01 2.136102e+03 
2.628400e-01 2.122405e+03 
2.640600e-01 2.109248e+03 
2.652200e-01 2.096984e+03 
2.664300e-01 2.084331e+03 
2.676500e-01 2.071717e+03 
2.688400e-01 2.059766e+03 
2.700700e-01 2.047685e+03 
2.712400e-01 2.036318e+03 
2.724800e-01 2.024402e+03 
2.736700e-01 2.013217e+03 
2.748800e-01 2.002097e+03 
2.761000e-01 1.991006e+03 
2.773200e-01 1.980034e+03 
2.785400e-01 1.969244e+03 
2.797000e-01 1.959225e+03 
2.808900e-01 1.949052e+03 
2.821400e-01 1.938478e+03 
2.833900e-01 1.928024e+03 
2.845500e-01 1.918535e+03 
2.857800e-01 1.908576e+03 
2.870300e-01 1.898563e+03 
2.882100e-01 1.889207e+03 
2.893900e-01 1.879989e+03 
2.906300e-01 1.870424e+03 
2.918900e-01 1.860808e+03 
2.930500e-01 1.852044e+03 
2.942500e-01 1.843073e+03 
2.954200e-01 1.834435e+03 
2.966500e-01 1.825443e+03 
2.978900e-01 1.816471e+03 
2.990400e-01 1.808231e+03 
3.002700e-01 1.799516e+03 
3.015100e-01 1.790824e+03 
3.026800e-01 1.782702e+03 
3.038500e-01 1.774657e+03 
3.050300e-01 1.766620e+03 
3.062600e-01 1.758331e+03 
3.075000e-01 1.750057e+03 
3.087000e-01 1.742126e+03 
3.099100e-01 1.734206e+03 
3.111200e-01 1.726366e+03 
3.123100e-01 1.718734e+03 
3.135300e-01 1.710984e+03 
3.147300e-01 1.703432e+03 
3.159900e-01 1.695578e+03 
3.171800e-01 1.688237e+03 
3.183700e-01 1.680965e+03 
3.196300e-01 1.673339e+03 
3.208400e-01 1.666084e+03 
3.220300e-01 1.659014e+03 
3.232000e-01 1.652138e+03 
3.244300e-01 1.644980e+03 
3.256700e-01 1.637830e+03 
3.269200e-01 1.630690e+03 
3.280800e-01 1.624124e+03 
3.292500e-01 1.617572e+03 
3.304800e-01 1.610749e+03 
3.317100e-01 1.603989e+03 
3.328900e-01 1.597560e+03 
3.340700e-01 1.591188e+03 
3.353600e-01 1.584297e+03 
3.365300e-01 1.578109e+03 
3.377100e-01 1.571920e+03 
3.389200e-01 1.565630e+03 
3.401600e-01 1.559240e+03 
3.413700e-01 1.553068e+03 
3.425300e-01 1.547207e+03 
3.437700e-01 1.540996e+03 
3.449800e-01 1.534988e+03 
3.461800e-01 1.529080e+03 
3.473600e-01 1.523324e+03 
3.485800e-01 1.517435e+03 
3.498100e-01 1.511548e+03 
3.510200e-01 1.505807e+03 
3.522000e-01 1.500255e+03 
3.533900e-01 1.494702e+03 
3.546400e-01 1.488929e+03 
3.558400e-01 1.483435e+03 
3.570600e-01 1.477896e+03 
3.582700e-01 1.472448e+03 
3.595000e-01 1.466957e+03 
3.607100e-01 1.461606e+03 
3.618900e-01 1.456436e+03 
3.631200e-01 1.451091e+03 
3.643200e-01 1.445919e+03 
3.655500e-01 1.440661e+03 
3.667300e-01 1.435658e+03 
3.679500e-01 1.430537e+03 
3.691900e-01 1.425374e+03 
3.703600e-01 1.420542e+03 
3.715700e-01 1.415585e+03 
3.727700e-01 1.410707e+03 
3.739900e-01 1.405789e+03 
3.752000e-01 1.400951e+03 
3.763900e-01 1.396230e+03 
3.775800e-01 1.391546e+03 
3.788200e-01 1.386704e+03 
3.800300e-01 1.382017e+03 
3.812100e-01 1.377453e+03 
3.824200e-01 1.372789e+03 
3.836100e-01 1.368237e+03 
3.848600e-01 1.363494e+03 
3.860400e-01 1.359051e+03 
3.872400e-01 1.354567e+03 
3.884600e-01 1.350075e+03 
3.896500e-01 1.345740e+03 
3.908700e-01 1.341329e+03 
3.920600e-01 1.337059e+03 
3.933100e-01 1.332608e+03 
3.945300e-01 1.328298e+03 
3.957200e-01 1.324097e+03 
3.969300e-01 1.319849e+03 
3.981700e-01 1.315529e+03 
3.993500e-01 1.311448e+03 
4.094840e-01 1.277393e+03 
4.272360e-01 1.222366e+03 
4.454600e-01 1.170716e+03 
4.630560e-01 1.124876e+03 
4.804610e-01 1.082967e+03 
4.980690e-01 1.043782e+03 
5.159230e-01 1.006954e+03 
5.317440e-01 9.766401e+02 
5.489640e-01 9.456480e+02 
5.671990e-01 9.150304e+02 
5.838690e-01 8.888720e+02 
6.018840e-01 8.624424e+02 
6.202330e-01 8.371938e+02 
6.379250e-01 8.142655e+02 
6.545410e-01 7.938945e+02 
6.714560e-01 7.742488e+02 
6.892080e-01 7.546459e+02 
7.066010e-01 7.362675e+02 
7.240540e-01 7.187332e+02 
7.420450e-01 7.015626e+02 
7.593780e-01 6.855539e+02 
7.764720e-01 6.704444e+02 
7.942840e-01 6.553699e+02 
8.116170e-01 6.410945e+02 
8.288310e-01 6.274619e+02 
8.462240e-01 6.140940e+02 
8.631980e-01 6.014749e+02 
8.810700e-01 5.886347e+02 
8.989410e-01 5.762309e+02 
9.166330e-01 5.642753e+02 
9.345640e-01 5.524576e+02 
9.515980e-01 5.415568e+02 
9.688720e-01 5.308395e+02 
9.865640e-01 5.201402e+02 
1.031870e+00 4.940150e+02 
1.063490e+00 4.767927e+02 
1.097920e+00 4.589115e+02 
1.134370e+00 4.409928e+02 
1.167730e+00 4.253135e+02 
1.203830e+00 4.091909e+02 
1.240470e+00 3.936594e+02 
1.275790e+00 3.793478e+02 
1.309140e+00 3.665187e+02 
1.342970e+00 3.540159e+02 
1.378420e+00 3.415914e+02 
1.413200e+00 3.299117e+02 
1.448110e+00 3.187281e+02 
1.484090e+00 3.077457e+02 
1.518820e+00 2.976301e+02 
1.552880e+00 2.880919e+02 
1.588630e+00 2.785659e+02 
1.623230e+00 2.697514e+02 
1.657720e+00 2.613400e+02 
1.692450e+00 2.532736e+02 
1.726400e+00 2.456501e+02 
1.762200e+00 2.379520e+02 
1.797880e+00 2.306210e+02 
1.833270e+00 2.236541e+02 
1.869070e+00 2.168958e+02 
1.903200e+00 2.107293e+02 
1.937740e+00 2.047302e+02 
1.973190e+00 1.988136e+02 
2.007440e+00 1.933209e+02 
2.042160e+00 1.879655e+02 
2.077900e+00 1.826566e+02 
2.112390e+00 1.777609e+02 
2.146220e+00 1.730940e+02 
2.181600e+00 1.684195e+02 
2.216930e+00 1.639294e+02 
2.250760e+00 1.597763e+02 
2.286500e+00 1.555429e+02 
2.321770e+00 1.515239e+02 
2.355950e+00 1.477689e+02 
2.391280e+00 1.440100e+02 
2.426240e+00 1.404315e+02 
2.460670e+00 1.370258e+02 
2.495640e+00 1.336736e+02 
2.531080e+00 1.304098e+02 
2.566220e+00 1.272762e+02 
2.600830e+00 1.242919e+02 
2.635080e+00 1.214366e+02 
2.670340e+00 1.185823e+02 
2.705970e+00 1.158047e+02 
2.740040e+00 1.132371e+02 
2.774520e+00 1.107051e+02 
2.809730e+00 1.082083e+02 
2.844390e+00 1.058300e+02 
2.879960e+00 1.034626e+02 
2.914860e+00 1.012101e+02 
2.949410e+00 9.904921e+01 
2.984440e+00 9.692968e+01 
3.019760e+00 9.485152e+01 
3.054730e+00 9.285290e+01 
3.089030e+00 9.095285e+01 
3.124060e+00 8.906955e+01 
3.159560e+00 8.721763e+01 
3.194710e+00 8.543881e+01 
3.229010e+00 8.375242e+01 
3.263320e+00 8.210586e+01 
3.297930e+00 8.049288e+01 
3.332830e+00 7.891510e+01 
3.368040e+00 7.736618e+01 
3.403300e+00 7.585701e+01 
3.438450e+00 7.439217e+01 
3.473060e+00 7.298828e+01 
3.508440e+00 7.159874e+01 
3.543110e+00 7.027271e+01 
3.577470e+00 6.898944e+01 
3.613040e+00 6.769717e+01 
3.648120e+00 6.646055e+01 
3.682910e+00 6.526312e+01 
3.718050e+00 6.407990e+01 
3.753320e+00 6.292602e+01 
3.787980e+00 6.182566e+01 
3.822290e+00 6.076148e+01 
3.857020e+00 5.970812e+01 
3.891920e+00 5.867571e+01 
3.926650e+00 5.767392e+01 
3.961970e+00 5.667984e+01 
3.997360e+00 5.570852e+01 
4.031670e+00 5.478952e+01 
4.066330e+00 5.388527e+01 
4.101420e+00 5.299090e+01 
4.136200e+00 5.212534e+01 
4.170810e+00 5.128344e+01 
4.206250e+00 5.044343e+01 
4.241580e+00 4.962546e+01 
4.276300e+00 4.883953e+01 
4.310970e+00 4.807192e+01 
4.346120e+00 4.731191e+01 
4.380600e+00 4.658456e+01 
4.414730e+00 4.587979e+01 
4.450350e+00 4.515990e+01 
4.485320e+00 4.446830e+01 
4.519810e+00 4.380269e+01 
4.555430e+00 4.313067e+01 
4.590870e+00 4.247697e+01 
4.625480e+00 4.185345e+01 
4.659910e+00 4.124569e+01 
4.695230e+00 4.063509e+01 
4.729960e+00 4.004685e+01 
4.764450e+00 3.947429e+01 
4.799530e+00 3.890348e+01 
4.834910e+00 3.833926e+01 
4.869700e+00 3.779951e+01 
4.904370e+00 3.727269e+01 
4.939450e+00 3.674993e+01 
4.973940e+00 3.624583e+01 
5.008430e+00 3.575122e+01 
5.043810e+00 3.525354e+01 
5.078840e+00 3.477017e+01 
5.113500e+00 3.430084e+01 
5.148890e+00 3.383448e+01 
5.184210e+00 3.337789e+01 
5.219060e+00 3.293517e+01 
5.253660e+00 3.250223e+01 
5.288570e+00 3.207329e+01 
5.323420e+00 3.165456e+01 
5.358440e+00 3.124326e+01 
5.393590e+00 3.083780e+01 
5.428310e+00 3.044438e+01 
5.462800e+00 3.006038e+01 
5.497640e+00 2.967920e+01 
5.532670e+00 2.930503e+01 
5.567280e+00 2.894246e+01 
5.602000e+00 2.858492e+01 
5.637270e+00 2.822661e+01 
5.672410e+00 2.787542e+01 
5.707020e+00 2.753535e+01 
5.742040e+00 2.719942e+01 
5.777430e+00 2.686613e+01 
5.812210e+00 2.654401e+01 
5.846820e+00 2.622861e+01 
5.881610e+00 2.591670e+01 
5.916510e+00 2.560888e+01 
5.951600e+00 2.530532e+01 
5.986560e+00 2.500818e+01 
6.021830e+00 2.471322e+01 
6.056490e+00 2.442858e+01 
6.091160e+00 2.414885e+01 
6.125830e+00 2.387347e+01 
6.161090e+00 2.359775e+01 
6.195760e+00 2.333077e+01 
6.230420e+00 2.306796e+01 
6.265690e+00 2.280470e+01 
6.300950e+00 2.254670e+01 
6.335620e+00 2.229688e+01 
6.370880e+00 2.204667e+01 
6.405550e+00 2.180494e+01 
6.440220e+00 2.156705e+01 
6.475480e+00 2.132872e+01 
6.510150e+00 2.109815e+01 
6.544810e+00 2.087167e+01 
6.580080e+00 2.064459e+01 
6.614750e+00 2.042464e+01 
6.649410e+00 2.020785e+01 
6.684080e+00 1.999410e+01 
6.719340e+00 1.977985e+01 
6.754010e+00 1.957243e+01 
6.788680e+00 1.936844e+01 
6.823940e+00 1.916394e+01 
6.859800e+00 1.895894e+01 
6.894470e+00 1.876409e+01 
6.929140e+00 1.857213e+01 
6.963800e+00 1.838287e+01 
6.999070e+00 1.819296e+01 
7.033730e+00 1.800880e+01 
7.068400e+00 1.782710e+01 
7.103660e+00 1.764484e+01 
7.138330e+00 1.746852e+01 
7.173600e+00 1.729252e+01 
7.208260e+00 1.712190e+01 
7.243530e+00 1.695060e+01 
7.277600e+00 1.678689e+01 
7.312860e+00 1.661930e+01 
7.348120e+00 1.645395e+01 
7.382790e+00 1.629353e+01 
7.417460e+00 1.613600e+01 
7.452720e+00 1.597830e+01 
7.487390e+00 1.582527e+01 
7.522650e+00 1.567165e+01 
7.557320e+00 1.552246e+01 
7.591990e+00 1.537514e+01 
7.627250e+00 1.522724e+01 
7.662510e+00 1.508125e+01 
7.697180e+00 1.493988e+01 
7.731850e+00 1.480041e+01 
7.766510e+00 1.466274e+01 
7.801180e+00 1.452674e+01 
7.836440e+00 1.439007e+01 
7.871110e+00 1.425733e+01 
7.906380e+00 1.412396e+01 
7.941040e+00 1.399453e+01 
7.976310e+00 1.386464e+01 
8.011570e+00 1.373664e+01 
8.046240e+00 1.361232e+01 
8.080900e+00 1.348954e+01 
8.115570e+00 1.336824e+01 
8.150830e+00 1.324653e+01 
8.185500e+00 1.312829e+01 
8.220770e+00 1.300945e+01 
8.255430e+00 1.289405e+01 
8.290100e+00 1.278013e+01 
8.324770e+00 1.266756e+01 
8.359430e+00 1.255634e+01 
8.394700e+00 1.244450e+01 
8.429960e+00 1.233411e+01 
8.464630e+00 1.222693e+01 
8.499890e+00 1.211920e+01 
8.534560e+00 1.201449e+01 
8.569200e+00 1.191108e+01 
