# Parameters:
# omega_b = 0.022461, omega_m = 0.133504, n_s = 0.952362, h = 80.275591, w = -1.000000, sigma_8 = 0.862205
# z = 0.500000
#
# k[1/Mpc] # P(k):
8.694000e-04 1.162829e+04 
2.077466e-03 2.439663e+04 
3.285532e-03 3.414865e+04 
4.493598e-03 4.146566e+04 
5.701664e-03 4.673730e+04 
6.909730e-03 5.033208e+04 
8.117797e-03 5.264091e+04 
9.325863e-03 5.386493e+04 
1.053393e-02 5.419751e+04 
1.174199e-02 5.381269e+04 
1.295006e-02 5.282474e+04 
1.415813e-02 5.138616e+04 
1.536619e-02 4.962157e+04 
1.657426e-02 4.761575e+04 
1.778233e-02 4.540666e+04 
1.899039e-02 4.303727e+04 
2.019846e-02 4.064058e+04 
2.140652e-02 3.836004e+04 
2.261459e-02 3.621678e+04 
2.382266e-02 3.422240e+04 
2.503072e-02 3.239106e+04 
2.623879e-02 3.072667e+04 
2.744685e-02 2.923061e+04 
2.865492e-02 2.789701e+04 
2.986299e-02 2.671528e+04 
3.100100e-02 2.573585e+04 
3.220400e-02 2.482662e+04 
3.288100e-02 2.436978e+04 
3.424300e-02 2.355169e+04 
3.555100e-02 2.287138e+04 
3.686000e-02 2.227752e+04 
3.795000e-02 2.183384e+04 
3.929100e-02 2.133891e+04 
4.039800e-02 2.095549e+04 
4.164000e-02 2.054137e+04 
4.294400e-02 2.010393e+04 
4.415000e-02 1.969613e+04 
4.542900e-02 1.923799e+04 
4.660900e-02 1.880127e+04 
4.782300e-02 1.831288e+04 
4.892900e-02 1.785103e+04 
5.031200e-02 1.724413e+04 
5.155900e-02 1.667045e+04 
5.238100e-02 1.628376e+04 
5.378200e-02 1.561615e+04 
5.513400e-02 1.496703e+04 
5.627600e-02 1.442293e+04 
5.735300e-02 1.392055e+04 
5.870100e-02 1.331305e+04 
5.988700e-02 1.280440e+04 
6.113500e-02 1.229882e+04 
6.225900e-02 1.187319e+04 
6.340100e-02 1.147185e+04 
6.480200e-02 1.102037e+04 
6.601100e-02 1.067122e+04 
6.725500e-02 1.034873e+04 
6.829100e-02 1.011032e+04 
6.958600e-02 9.841772e+03 
7.071100e-02 9.636835e+03 
7.192300e-02 9.440722e+03 
7.307400e-02 9.275357e+03 
7.412300e-02 9.139813e+03 
7.550400e-02 8.981310e+03 
7.663100e-02 8.863270e+03 
7.791200e-02 8.740320e+03 
7.912700e-02 8.629339e+03 
8.027600e-02 8.526205e+03 
8.138400e-02 8.426814e+03 
8.272200e-02 8.304419e+03 
8.406100e-02 8.177169e+03 
8.534100e-02 8.046651e+03 
8.653800e-02 7.916182e+03 
8.759800e-02 7.795884e+03 
8.900300e-02 7.628424e+03 
9.009000e-02 7.492040e+03 
9.113300e-02 7.355552e+03 
9.239600e-02 7.187701e+03 
9.358000e-02 7.026771e+03 
9.496100e-02 6.835555e+03 
9.608400e-02 6.681090e+03 
9.727500e-02 6.519413e+03 
9.852600e-02 6.351572e+03 
9.973800e-02 6.194590e+03 
1.009000e-01 6.049109e+03 
1.020900e-01 5.908354e+03 
1.034000e-01 5.761410e+03 
1.046000e-01 5.634344e+03 
1.057200e-01 5.526260e+03 
1.069100e-01 5.417485e+03 
1.082500e-01 5.307260e+03 
1.093900e-01 5.221828e+03 
1.105400e-01 5.141150e+03 
1.116900e-01 5.070175e+03 
1.129600e-01 4.996336e+03 
1.142000e-01 4.932188e+03 
1.153300e-01 4.876976e+03 
1.166400e-01 4.817363e+03 
1.177800e-01 4.768034e+03 
1.190000e-01 4.717109e+03 
1.201200e-01 4.670492e+03 
1.213400e-01 4.620744e+03 
1.227100e-01 4.562341e+03 
1.238900e-01 4.512152e+03 
1.250700e-01 4.459253e+03 
1.263200e-01 4.402789e+03 
1.275500e-01 4.344671e+03 
1.287500e-01 4.287263e+03 
1.299900e-01 4.226114e+03 
1.311300e-01 4.169525e+03 
1.323500e-01 4.107849e+03 
1.335900e-01 4.045486e+03 
1.347100e-01 3.988915e+03 
1.359800e-01 3.925722e+03 
1.372100e-01 3.864969e+03 
1.384300e-01 3.806046e+03 
1.395700e-01 3.752087e+03 
1.407700e-01 3.696585e+03 
1.420300e-01 3.640358e+03 
1.432800e-01 3.585840e+03 
1.444500e-01 3.537439e+03 
1.456300e-01 3.489634e+03 
1.468900e-01 3.441171e+03 
1.480500e-01 3.397926e+03 
1.491700e-01 3.357832e+03 
1.503800e-01 3.316449e+03 
1.516400e-01 3.274591e+03 
1.528200e-01 3.237723e+03 
1.540200e-01 3.200950e+03 
1.551900e-01 3.167012e+03 
1.564300e-01 3.132027e+03 
1.576600e-01 3.098458e+03 
1.588700e-01 3.066615e+03 
1.600900e-01 3.035131e+03 
1.612700e-01 3.005670e+03 
1.625400e-01 2.974549e+03 
1.637600e-01 2.945110e+03 
1.649500e-01 2.916852e+03 
1.662200e-01 2.887150e+03 
1.674000e-01 2.859536e+03 
1.685000e-01 2.834222e+03 
1.697500e-01 2.805464e+03 
1.710300e-01 2.776073e+03 
1.722200e-01 2.749233e+03 
1.734400e-01 2.721186e+03 
1.746400e-01 2.694032e+03 
1.758700e-01 2.666396e+03 
1.770900e-01 2.638886e+03 
1.782700e-01 2.612725e+03 
1.794600e-01 2.586447e+03 
1.807000e-01 2.559304e+03 
1.819100e-01 2.533265e+03 
1.830100e-01 2.509821e+03 
1.842200e-01 2.484414e+03 
1.855000e-01 2.457995e+03 
1.867000e-01 2.433782e+03 
1.879200e-01 2.409563e+03 
1.890900e-01 2.386768e+03 
1.902800e-01 2.364269e+03 
1.915200e-01 2.341197e+03 
1.926900e-01 2.319880e+03 
1.939000e-01 2.298539e+03 
1.951700e-01 2.276494e+03 
1.963100e-01 2.257136e+03 
1.975100e-01 2.237403e+03 
1.987800e-01 2.216840e+03 
2.000100e-01 2.197344e+03 
2.012500e-01 2.178245e+03 
2.023400e-01 2.161696e+03 
2.036100e-01 2.142739e+03 
2.048900e-01 2.124112e+03 
2.060400e-01 2.107621e+03 
2.072200e-01 2.090941e+03 
2.084200e-01 2.074299e+03 
2.096900e-01 2.056942e+03 
2.109200e-01 2.040377e+03 
2.121100e-01 2.024553e+03 
2.132700e-01 2.009337e+03 
2.145200e-01 1.993166e+03 
2.157200e-01 1.977828e+03 
2.168800e-01 1.963186e+03 
2.180700e-01 1.948364e+03 
2.193400e-01 1.932754e+03 
2.206000e-01 1.917463e+03 
2.217500e-01 1.903695e+03 
2.229500e-01 1.889515e+03 
2.241400e-01 1.875665e+03 
2.253500e-01 1.861767e+03 
2.264900e-01 1.848841e+03 
2.277100e-01 1.835225e+03 
2.289900e-01 1.821175e+03 
2.301500e-01 1.808609e+03 
2.313600e-01 1.795667e+03 
2.325600e-01 1.783150e+03 
2.337700e-01 1.770688e+03 
2.350000e-01 1.758183e+03 
2.362000e-01 1.746220e+03 
2.374100e-01 1.734406e+03 
2.386500e-01 1.722453e+03 
2.399100e-01 1.710462e+03 
2.410400e-01 1.699985e+03 
2.422500e-01 1.688917e+03 
2.435000e-01 1.677625e+03 
2.447300e-01 1.666678e+03 
2.458700e-01 1.656758e+03 
2.470600e-01 1.646522e+03 
2.483300e-01 1.635731e+03 
2.495600e-01 1.625447e+03 
2.507600e-01 1.615586e+03 
2.519600e-01 1.605840e+03 
2.532200e-01 1.595729e+03 
2.543700e-01 1.586619e+03 
2.555500e-01 1.577385e+03 
2.568000e-01 1.567717e+03 
2.580100e-01 1.558467e+03 
2.592400e-01 1.549156e+03 
2.604100e-01 1.540392e+03 
2.616100e-01 1.531503e+03 
2.628400e-01 1.522495e+03 
2.640600e-01 1.513622e+03 
2.652200e-01 1.505261e+03 
2.664300e-01 1.496635e+03 
2.676500e-01 1.488035e+03 
2.688400e-01 1.479696e+03 
2.700700e-01 1.471145e+03 
2.712400e-01 1.463100e+03 
2.724800e-01 1.454665e+03 
2.736700e-01 1.446616e+03 
2.748800e-01 1.438474e+03 
2.761000e-01 1.430354e+03 
2.773200e-01 1.422321e+03 
2.785400e-01 1.414354e+03 
2.797000e-01 1.406818e+03 
2.808900e-01 1.399165e+03 
2.821400e-01 1.391213e+03 
2.833900e-01 1.383344e+03 
2.845500e-01 1.376068e+03 
2.857800e-01 1.368433e+03 
2.870300e-01 1.360756e+03 
2.882100e-01 1.353584e+03 
2.893900e-01 1.346460e+03 
2.906300e-01 1.339037e+03 
2.918900e-01 1.331574e+03 
2.930500e-01 1.324772e+03 
2.942500e-01 1.317800e+03 
2.954200e-01 1.311052e+03 
2.966500e-01 1.304028e+03 
2.978900e-01 1.297019e+03 
2.990400e-01 1.290582e+03 
3.002700e-01 1.283758e+03 
3.015100e-01 1.276944e+03 
3.026800e-01 1.270578e+03 
3.038500e-01 1.264272e+03 
3.050300e-01 1.257972e+03 
3.062600e-01 1.251466e+03 
3.075000e-01 1.244973e+03 
3.087000e-01 1.238749e+03 
3.099100e-01 1.232534e+03 
3.111200e-01 1.226381e+03 
3.123100e-01 1.220394e+03 
3.135300e-01 1.214313e+03 
3.147300e-01 1.208389e+03 
3.159900e-01 1.202227e+03 
3.171800e-01 1.196470e+03 
3.183700e-01 1.190771e+03 
3.196300e-01 1.184793e+03 
3.208400e-01 1.179107e+03 
3.220300e-01 1.173565e+03 
3.232000e-01 1.168181e+03 
3.244300e-01 1.162578e+03 
3.256700e-01 1.156981e+03 
3.269200e-01 1.151392e+03 
3.280800e-01 1.146252e+03 
3.292500e-01 1.141128e+03 
3.304800e-01 1.135795e+03 
3.317100e-01 1.130510e+03 
3.328900e-01 1.125485e+03 
3.340700e-01 1.120503e+03 
3.353600e-01 1.115124e+03 
3.365300e-01 1.110295e+03 
3.377100e-01 1.105467e+03 
3.389200e-01 1.100559e+03 
3.401600e-01 1.095573e+03 
3.413700e-01 1.090764e+03 
3.425300e-01 1.086200e+03 
3.437700e-01 1.081364e+03 
3.449800e-01 1.076685e+03 
3.461800e-01 1.072085e+03 
3.473600e-01 1.067606e+03 
3.485800e-01 1.063029e+03 
3.498100e-01 1.058455e+03 
3.510200e-01 1.053993e+03 
3.522000e-01 1.049678e+03 
3.533900e-01 1.045362e+03 
3.546400e-01 1.040886e+03 
3.558400e-01 1.036626e+03 
3.570600e-01 1.032332e+03 
3.582700e-01 1.028108e+03 
3.595000e-01 1.023849e+03 
3.607100e-01 1.019705e+03 
3.618900e-01 1.015703e+03 
3.631200e-01 1.011566e+03 
3.643200e-01 1.007563e+03 
3.655500e-01 1.003493e+03 
3.667300e-01 9.996202e+02 
3.679500e-01 9.956700e+02 
3.691900e-01 9.916878e+02 
3.703600e-01 9.879603e+02 
3.715700e-01 9.841357e+02 
3.727700e-01 9.803726e+02 
3.739900e-01 9.765796e+02 
3.752000e-01 9.728520e+02 
3.763900e-01 9.692146e+02 
3.775800e-01 9.656053e+02 
3.788200e-01 9.618739e+02 
3.800300e-01 9.582615e+02 
3.812100e-01 9.547540e+02 
3.824200e-01 9.511768e+02 
3.836100e-01 9.476858e+02 
3.848600e-01 9.440471e+02 
3.860400e-01 9.406387e+02 
3.872400e-01 9.371987e+02 
3.884600e-01 9.337567e+02 
3.896500e-01 9.304355e+02 
3.908700e-01 9.270564e+02 
3.920600e-01 9.237851e+02 
3.933100e-01 9.203751e+02 
3.945300e-01 9.170724e+02 
3.957200e-01 9.138634e+02 
3.969300e-01 9.106212e+02 
3.981700e-01 9.073237e+02 
3.993500e-01 9.042091e+02 
4.094840e-01 8.782689e+02 
4.272360e-01 8.365652e+02 
4.454600e-01 7.976604e+02 
4.630560e-01 7.633359e+02 
4.804610e-01 7.321113e+02 
4.980690e-01 7.030379e+02 
5.159230e-01 6.758028e+02 
5.317440e-01 6.534430e+02 
5.489640e-01 6.306607e+02 
5.671990e-01 6.082169e+02 
5.838690e-01 5.891072e+02 
6.018840e-01 5.698506e+02 
6.202330e-01 5.515532e+02 
6.379250e-01 5.349913e+02 
6.545410e-01 5.203723e+02 
6.714560e-01 5.063335e+02 
6.892080e-01 4.924133e+02 
7.066010e-01 4.794607e+02 
7.240540e-01 4.671724e+02 
7.420450e-01 4.552296e+02 
7.593780e-01 4.441864e+02 
7.764720e-01 4.338326e+02 
7.942840e-01 4.235668e+02 
8.116170e-01 4.139332e+02 
8.288310e-01 4.048057e+02 
8.462240e-01 3.959101e+02 
8.631980e-01 3.875705e+02 
8.810700e-01 3.791379e+02 
8.989410e-01 3.710408e+02 
9.166330e-01 3.632870e+02 
9.345640e-01 3.556652e+02 
9.515980e-01 3.486726e+02 
9.688720e-01 3.418314e+02 
9.865640e-01 3.350347e+02 
1.031870e+00 3.185436e+02 
1.063490e+00 3.077611e+02 
1.097920e+00 2.966228e+02 
1.134370e+00 2.855068e+02 
1.167730e+00 2.758116e+02 
1.203830e+00 2.658760e+02 
1.240470e+00 2.563158e+02 
1.275790e+00 2.475206e+02 
1.309140e+00 2.396392e+02 
1.342970e+00 2.319577e+02 
1.378420e+00 2.243232e+02 
1.413200e+00 2.171432e+02 
1.448110e+00 2.102612e+02 
1.484090e+00 2.034958e+02 
1.518820e+00 1.972519e+02 
1.552880e+00 1.913583e+02 
1.588630e+00 1.854587e+02 
1.623230e+00 1.799911e+02 
1.657720e+00 1.747625e+02 
1.692450e+00 1.697422e+02 
1.726400e+00 1.649848e+02 
1.762200e+00 1.601678e+02 
1.797880e+00 1.555712e+02 
1.833270e+00 1.511948e+02 
1.869070e+00 1.469376e+02 
1.903200e+00 1.430454e+02 
1.937740e+00 1.392501e+02 
1.973190e+00 1.354974e+02 
2.007440e+00 1.320050e+02 
2.042160e+00 1.285931e+02 
2.077900e+00 1.252027e+02 
2.112390e+00 1.220696e+02 
2.146220e+00 1.190741e+02 
2.181600e+00 1.160682e+02 
2.216930e+00 1.131737e+02 
2.250760e+00 1.104907e+02 
2.286500e+00 1.077498e+02 
2.321770e+00 1.051414e+02 
2.355950e+00 1.026994e+02 
2.391280e+00 1.002489e+02 
2.426240e+00 9.791115e+01 
2.460670e+00 9.568144e+01 
2.495640e+00 9.348203e+01 
2.531080e+00 9.133603e+01 
2.566220e+00 8.927080e+01 
2.600830e+00 8.730031e+01 
2.635080e+00 8.541177e+01 
2.670340e+00 8.351870e+01 
2.705970e+00 8.167320e+01 
2.740040e+00 7.996446e+01 
2.774520e+00 7.827565e+01 
2.809730e+00 7.660701e+01 
2.844390e+00 7.501500e+01 
2.879960e+00 7.342688e+01 
2.914860e+00 7.191265e+01 
2.949410e+00 7.045788e+01 
2.984440e+00 6.902810e+01 
3.019760e+00 6.762369e+01 
3.054730e+00 6.627115e+01 
3.089030e+00 6.498198e+01 
3.124060e+00 6.370256e+01 
3.159560e+00 6.244245e+01 
3.194710e+00 6.122966e+01 
3.229010e+00 6.007861e+01 
3.263320e+00 5.895205e+01 
3.297930e+00 5.784723e+01 
3.332830e+00 5.676463e+01 
3.368040e+00 5.570017e+01 
3.403300e+00 5.466168e+01 
3.438450e+00 5.365158e+01 
3.473060e+00 5.268267e+01 
3.508440e+00 5.172172e+01 
3.543110e+00 5.080396e+01 
3.577470e+00 4.991379e+01 
3.613040e+00 4.901663e+01 
3.648120e+00 4.815673e+01 
3.682910e+00 4.732317e+01 
3.718050e+00 4.649807e+01 
3.753320e+00 4.569259e+01 
3.787980e+00 4.492344e+01 
3.822290e+00 4.417875e+01 
3.857020e+00 4.344050e+01 
3.891920e+00 4.271625e+01 
3.926650e+00 4.201244e+01 
3.961970e+00 4.131344e+01 
3.997360e+00 4.062934e+01 
4.031670e+00 3.998168e+01 
4.066330e+00 3.934337e+01 
4.101420e+00 3.871181e+01 
4.136200e+00 3.809941e+01 
4.170810e+00 3.750357e+01 
4.206250e+00 3.690815e+01 
4.241580e+00 3.632805e+01 
4.276300e+00 3.576989e+01 
4.310970e+00 3.522425e+01 
4.346120e+00 3.468360e+01 
4.380600e+00 3.416557e+01 
4.414730e+00 3.366349e+01 
4.450350e+00 3.314972e+01 
4.485320e+00 3.265600e+01 
4.519810e+00 3.218025e+01 
4.555430e+00 3.169958e+01 
4.590870e+00 3.123173e+01 
4.625480e+00 3.078504e+01 
4.659910e+00 3.034953e+01 
4.695230e+00 2.991133e+01 
4.729960e+00 2.948900e+01 
4.764450e+00 2.907764e+01 
4.799530e+00 2.866715e+01 
4.834910e+00 2.826131e+01 
4.869700e+00 2.787263e+01 
4.904370e+00 2.749312e+01 
4.939450e+00 2.711634e+01 
4.973940e+00 2.675262e+01 
5.008430e+00 2.639568e+01 
5.043810e+00 2.603622e+01 
5.078840e+00 2.568690e+01 
5.113500e+00 2.534767e+01 
5.148890e+00 2.501022e+01 
5.184210e+00 2.467976e+01 
5.219060e+00 2.435922e+01 
5.253660e+00 2.404545e+01 
5.288570e+00 2.373454e+01 
5.323420e+00 2.343085e+01 
5.358440e+00 2.313238e+01 
5.393590e+00 2.283810e+01 
5.428310e+00 2.255238e+01 
5.462800e+00 2.227337e+01 
5.497640e+00 2.199637e+01 
5.532670e+00 2.172429e+01 
5.567280e+00 2.146058e+01 
5.602000e+00 2.120048e+01 
5.637270e+00 2.093962e+01 
5.672410e+00 2.068387e+01 
5.707020e+00 2.043617e+01 
5.742040e+00 2.019139e+01 
5.777430e+00 1.994847e+01 
5.812210e+00 1.971367e+01 
5.846820e+00 1.948361e+01 
5.881610e+00 1.925603e+01 
5.916510e+00 1.903141e+01 
5.951600e+00 1.880981e+01 
5.986560e+00 1.859285e+01 
6.021830e+00 1.837745e+01 
6.056490e+00 1.816952e+01 
6.091160e+00 1.796510e+01 
6.125830e+00 1.776385e+01 
6.161090e+00 1.756230e+01 
6.195760e+00 1.736707e+01 
6.230420e+00 1.717488e+01 
6.265690e+00 1.698232e+01 
6.300950e+00 1.679353e+01 
6.335620e+00 1.661071e+01 
6.370880e+00 1.642758e+01 
6.405550e+00 1.625063e+01 
6.440220e+00 1.607646e+01 
6.475480e+00 1.590196e+01 
6.510150e+00 1.573311e+01 
6.544810e+00 1.556721e+01 
6.580080e+00 1.540085e+01 
6.614750e+00 1.523970e+01 
6.649410e+00 1.508082e+01 
6.684080e+00 1.492415e+01 
6.719340e+00 1.476709e+01 
6.754010e+00 1.461502e+01 
6.788680e+00 1.446546e+01 
6.823940e+00 1.431550e+01 
6.859800e+00 1.416516e+01 
6.894470e+00 1.402225e+01 
6.929140e+00 1.388145e+01 
6.963800e+00 1.374261e+01 
6.999070e+00 1.360328e+01 
7.033730e+00 1.346816e+01 
7.068400e+00 1.333484e+01 
7.103660e+00 1.320108e+01 
7.138330e+00 1.307168e+01 
7.173600e+00 1.294251e+01 
7.208260e+00 1.281727e+01 
7.243530e+00 1.269152e+01 
7.277600e+00 1.257132e+01 
7.312860e+00 1.244826e+01 
7.348120e+00 1.232683e+01 
7.382790e+00 1.220900e+01 
7.417460e+00 1.209332e+01 
7.452720e+00 1.197751e+01 
7.487390e+00 1.186511e+01 
7.522650e+00 1.175227e+01 
7.557320e+00 1.164268e+01 
7.591990e+00 1.153446e+01 
7.627250e+00 1.142579e+01 
7.662510e+00 1.131851e+01 
7.697180e+00 1.121464e+01 
7.731850e+00 1.111216e+01 
7.766510e+00 1.101099e+01 
7.801180e+00 1.091103e+01 
7.836440e+00 1.081058e+01 
7.871110e+00 1.071301e+01 
7.906380e+00 1.061497e+01 
7.941040e+00 1.051980e+01 
7.976310e+00 1.042431e+01 
8.011570e+00 1.033022e+01 
8.046240e+00 1.023882e+01 
8.080900e+00 1.014853e+01 
8.115570e+00 1.005933e+01 
8.150830e+00 9.969830e+00 
8.185500e+00 9.882872e+00 
8.220770e+00 9.795457e+00 
8.255430e+00 9.710569e+00 
8.290100e+00 9.626782e+00 
8.324770e+00 9.543984e+00 
8.359430e+00 9.462168e+00 
8.394700e+00 9.379880e+00 
8.429960e+00 9.298656e+00 
8.464630e+00 9.219795e+00 
8.499890e+00 9.140514e+00 
8.534560e+00 9.063452e+00 
8.569200e+00 8.987328e+00 
