# Parameters:
# omega_b = 0.022571, omega_m = 0.152244, n_s = 0.916142, h = 60.905512, w = -1.000000, sigma_8 = 0.737795
# z = 0.500000
#
# k[1/Mpc] # P(k):
8.694000e-04 8.492005e+03 
2.077466e-03 1.753802e+04 
3.285532e-03 2.449087e+04 
4.493598e-03 2.982289e+04 
5.701664e-03 3.380381e+04 
6.909730e-03 3.665764e+04 
8.117797e-03 3.862788e+04 
9.325863e-03 3.984150e+04 
1.053393e-02 4.042607e+04 
1.174199e-02 4.050042e+04 
1.295006e-02 4.013677e+04 
1.415813e-02 3.943348e+04 
1.536619e-02 3.847448e+04 
1.657426e-02 3.731873e+04 
1.778233e-02 3.603889e+04 
1.899039e-02 3.473234e+04 
2.019846e-02 3.339650e+04 
2.140652e-02 3.203383e+04 
2.261459e-02 3.067261e+04 
2.382266e-02 2.934930e+04 
2.503072e-02 2.808629e+04 
2.623879e-02 2.689306e+04 
2.744685e-02 2.577136e+04 
2.865492e-02 2.472970e+04 
2.986299e-02 2.376808e+04 
3.100100e-02 2.293423e+04 
3.220400e-02 2.212647e+04 
3.288100e-02 2.170436e+04 
3.424300e-02 2.092202e+04 
3.555100e-02 2.024558e+04 
3.686000e-02 1.963530e+04 
3.795000e-02 1.917065e+04 
3.929100e-02 1.864894e+04 
4.039800e-02 1.825061e+04 
4.164000e-02 1.783142e+04 
4.294400e-02 1.741432e+04 
4.415000e-02 1.704419e+04 
4.542900e-02 1.665782e+04 
4.660900e-02 1.630697e+04 
4.782300e-02 1.593872e+04 
4.892900e-02 1.560150e+04 
5.031200e-02 1.517148e+04 
5.155900e-02 1.477293e+04 
5.238100e-02 1.450571e+04 
5.378200e-02 1.404407e+04 
5.513400e-02 1.359032e+04 
5.627600e-02 1.320314e+04 
5.735300e-02 1.283819e+04 
5.870100e-02 1.238485e+04 
5.988700e-02 1.199338e+04 
6.113500e-02 1.159125e+04 
6.225900e-02 1.123992e+04 
6.340100e-02 1.089611e+04 
6.480200e-02 1.049488e+04 
6.601100e-02 1.016885e+04 
6.725500e-02 9.854227e+03 
6.829100e-02 9.610138e+03 
6.958600e-02 9.325502e+03 
7.071100e-02 9.098220e+03 
7.192300e-02 8.872570e+03 
7.307400e-02 8.675829e+03 
7.412300e-02 8.510407e+03 
7.550400e-02 8.312622e+03 
7.663100e-02 8.164311e+03 
7.791200e-02 8.011395e+03 
7.912700e-02 7.878365e+03 
8.027600e-02 7.760450e+03 
8.138400e-02 7.652480e+03 
8.272200e-02 7.528092e+03 
8.406100e-02 7.407966e+03 
8.534100e-02 7.294496e+03 
8.653800e-02 7.187798e+03 
8.759800e-02 7.092769e+03 
8.900300e-02 6.964792e+03 
9.009000e-02 6.863128e+03 
9.113300e-02 6.762530e+03 
9.239600e-02 6.639227e+03 
9.358000e-02 6.520877e+03 
9.496100e-02 6.378686e+03 
9.608400e-02 6.262288e+03 
9.727500e-02 6.139054e+03 
9.852600e-02 6.006965e+03 
9.973800e-02 5.880979e+03 
1.009000e-01 5.762172e+03 
1.020900e-01 5.641753e+03 
1.034000e-01 5.513090e+03 
1.046000e-01 5.398722e+03 
1.057200e-01 5.296098e+03 
1.069100e-01 5.190776e+03 
1.082500e-01 5.078082e+03 
1.093900e-01 4.987132e+03 
1.105400e-01 4.899053e+03 
1.116900e-01 4.816877e+03 
1.129600e-01 4.729944e+03 
1.142000e-01 4.651130e+03 
1.153300e-01 4.582766e+03 
1.166400e-01 4.508061e+03 
1.177800e-01 4.447115e+03 
1.190000e-01 4.384604e+03 
1.201200e-01 4.330808e+03 
1.213400e-01 4.273990e+03 
1.227100e-01 4.213967e+03 
1.238900e-01 4.163800e+03 
1.250700e-01 4.115434e+03 
1.263200e-01 4.065360e+03 
1.275500e-01 4.017160e+03 
1.287500e-01 3.970793e+03 
1.299900e-01 3.923302e+03 
1.311300e-01 3.879828e+03 
1.323500e-01 3.833141e+03 
1.335900e-01 3.785706e+03 
1.347100e-01 3.742389e+03 
1.359800e-01 3.693359e+03 
1.372100e-01 3.644986e+03 
1.384300e-01 3.597289e+03 
1.395700e-01 3.551816e+03 
1.407700e-01 3.504741e+03 
1.420300e-01 3.454257e+03 
1.432800e-01 3.405289e+03 
1.444500e-01 3.359080e+03 
1.456300e-01 3.313441e+03 
1.468900e-01 3.265472e+03 
1.480500e-01 3.222157e+03 
1.491700e-01 3.181380e+03 
1.503800e-01 3.138487e+03 
1.516400e-01 3.094995e+03 
1.528200e-01 3.056145e+03 
1.540200e-01 3.017412e+03 
1.551900e-01 2.981689e+03 
1.564300e-01 2.944881e+03 
1.576600e-01 2.909827e+03 
1.588700e-01 2.876892e+03 
1.600900e-01 2.844384e+03 
1.612700e-01 2.814838e+03 
1.625400e-01 2.783630e+03 
1.637600e-01 2.754745e+03 
1.649500e-01 2.727388e+03 
1.662200e-01 2.698775e+03 
1.674000e-01 2.672950e+03 
1.685000e-01 2.649276e+03 
1.697500e-01 2.622728e+03 
1.710300e-01 2.595932e+03 
1.722200e-01 2.571459e+03 
1.734400e-01 2.546275e+03 
1.746400e-01 2.521905e+03 
1.758700e-01 2.497129e+03 
1.770900e-01 2.472519e+03 
1.782700e-01 2.449113e+03 
1.794600e-01 2.425521e+03 
1.807000e-01 2.401096e+03 
1.819100e-01 2.377662e+03 
1.830100e-01 2.356325e+03 
1.842200e-01 2.333158e+03 
1.855000e-01 2.309051e+03 
1.867000e-01 2.286594e+03 
1.879200e-01 2.264131e+03 
1.890900e-01 2.242926e+03 
1.902800e-01 2.221679e+03 
1.915200e-01 2.199891e+03 
1.926900e-01 2.179686e+03 
1.939000e-01 2.159215e+03 
1.951700e-01 2.138071e+03 
1.963100e-01 2.119450e+03 
1.975100e-01 2.100320e+03 
1.987800e-01 2.080388e+03 
2.000100e-01 2.061466e+03 
2.012500e-01 2.042872e+03 
2.023400e-01 2.026762e+03 
2.036100e-01 2.008315e+03 
2.048900e-01 1.990220e+03 
2.060400e-01 1.974200e+03 
2.072200e-01 1.958004e+03 
2.084200e-01 1.941938e+03 
2.096900e-01 1.925182e+03 
2.109200e-01 1.909191e+03 
2.121100e-01 1.894036e+03 
2.132700e-01 1.879469e+03 
2.145200e-01 1.863989e+03 
2.157200e-01 1.849369e+03 
2.168800e-01 1.835442e+03 
2.180700e-01 1.821344e+03 
2.193400e-01 1.806501e+03 
2.206000e-01 1.791972e+03 
2.217500e-01 1.778889e+03 
2.229500e-01 1.765415e+03 
2.241400e-01 1.752199e+03 
2.253500e-01 1.738937e+03 
2.264900e-01 1.726603e+03 
2.277100e-01 1.713541e+03 
2.289900e-01 1.699987e+03 
2.301500e-01 1.687865e+03 
2.313600e-01 1.675380e+03 
2.325600e-01 1.663112e+03 
2.337700e-01 1.650899e+03 
2.350000e-01 1.638644e+03 
2.362000e-01 1.626829e+03 
2.374100e-01 1.615054e+03 
2.386500e-01 1.603140e+03 
2.399100e-01 1.591190e+03 
2.410400e-01 1.580612e+03 
2.422500e-01 1.569421e+03 
2.435000e-01 1.558004e+03 
2.447300e-01 1.546916e+03 
2.458700e-01 1.536779e+03 
2.470600e-01 1.526322e+03 
2.483300e-01 1.515298e+03 
2.495600e-01 1.504779e+03 
2.507600e-01 1.494676e+03 
2.519600e-01 1.484692e+03 
2.532200e-01 1.474334e+03 
2.543700e-01 1.465026e+03 
2.555500e-01 1.455606e+03 
2.568000e-01 1.445744e+03 
2.580100e-01 1.436310e+03 
2.592400e-01 1.426878e+03 
2.604100e-01 1.418028e+03 
2.616100e-01 1.409053e+03 
2.628400e-01 1.399958e+03 
2.640600e-01 1.391084e+03 
2.652200e-01 1.382756e+03 
2.664300e-01 1.374164e+03 
2.676500e-01 1.365599e+03 
2.688400e-01 1.357367e+03 
2.700700e-01 1.348971e+03 
2.712400e-01 1.341072e+03 
2.724800e-01 1.332791e+03 
2.736700e-01 1.324939e+03 
2.748800e-01 1.317049e+03 
2.761000e-01 1.309179e+03 
2.773200e-01 1.301395e+03 
2.785400e-01 1.293700e+03 
2.797000e-01 1.286469e+03 
2.808900e-01 1.279128e+03 
2.821400e-01 1.271499e+03 
2.833900e-01 1.263952e+03 
2.845500e-01 1.257020e+03 
2.857800e-01 1.249745e+03 
2.870300e-01 1.242430e+03 
2.882100e-01 1.235596e+03 
2.893900e-01 1.228826e+03 
2.906300e-01 1.221781e+03 
2.918900e-01 1.214698e+03 
2.930500e-01 1.208244e+03 
2.942500e-01 1.201630e+03 
2.954200e-01 1.195239e+03 
2.966500e-01 1.188588e+03 
2.978900e-01 1.181950e+03 
2.990400e-01 1.175855e+03 
3.002700e-01 1.169396e+03 
3.015100e-01 1.162948e+03 
3.026800e-01 1.156924e+03 
3.038500e-01 1.150957e+03 
3.050300e-01 1.144996e+03 
3.062600e-01 1.138840e+03 
3.075000e-01 1.132695e+03 
3.087000e-01 1.126806e+03 
3.099100e-01 1.120925e+03 
3.111200e-01 1.115103e+03 
3.123100e-01 1.109434e+03 
3.135300e-01 1.103677e+03 
3.147300e-01 1.098069e+03 
3.159900e-01 1.092236e+03 
3.171800e-01 1.086784e+03 
3.183700e-01 1.081386e+03 
3.196300e-01 1.075725e+03 
3.208400e-01 1.070339e+03 
3.220300e-01 1.065091e+03 
3.232000e-01 1.059992e+03 
3.244300e-01 1.054685e+03 
3.256700e-01 1.049385e+03 
3.269200e-01 1.044093e+03 
3.280800e-01 1.039225e+03 
3.292500e-01 1.034373e+03 
3.304800e-01 1.029323e+03 
3.317100e-01 1.024319e+03 
3.328900e-01 1.019560e+03 
3.340700e-01 1.014843e+03 
3.353600e-01 1.009752e+03 
3.365300e-01 1.005183e+03 
3.377100e-01 1.000615e+03 
3.389200e-01 9.959712e+02 
3.401600e-01 9.912541e+02 
3.413700e-01 9.867059e+02 
3.425300e-01 9.823925e+02 
3.437700e-01 9.778211e+02 
3.449800e-01 9.733991e+02 
3.461800e-01 9.690511e+02 
3.473600e-01 9.648193e+02 
3.485800e-01 9.605001e+02 
3.498100e-01 9.561829e+02 
3.510200e-01 9.519721e+02 
3.522000e-01 9.478998e+02 
3.533900e-01 9.438267e+02 
3.546400e-01 9.396121e+02 
3.558400e-01 9.356018e+02 
3.570600e-01 9.315585e+02 
3.582700e-01 9.275817e+02 
3.595000e-01 9.235727e+02 
3.607100e-01 9.196745e+02 
3.618900e-01 9.159138e+02 
3.631200e-01 9.120256e+02 
3.643200e-01 9.082632e+02 
3.655500e-01 9.044382e+02 
3.667300e-01 9.007981e+02 
3.679500e-01 8.970955e+02 
3.691900e-01 8.933628e+02 
3.703600e-01 8.898689e+02 
3.715700e-01 8.862839e+02 
3.727700e-01 8.827567e+02 
3.739900e-01 8.792034e+02 
3.752000e-01 8.757153e+02 
3.763900e-01 8.723115e+02 
3.775800e-01 8.689340e+02 
3.788200e-01 8.654422e+02 
3.800300e-01 8.620618e+02 
3.812100e-01 8.587860e+02 
3.824200e-01 8.554494e+02 
3.836100e-01 8.521932e+02 
3.848600e-01 8.487993e+02 
3.860400e-01 8.456201e+02 
3.872400e-01 8.424114e+02 
3.884600e-01 8.392037e+02 
3.896500e-01 8.361098e+02 
3.908700e-01 8.329617e+02 
3.920600e-01 8.299142e+02 
3.933100e-01 8.267373e+02 
3.945300e-01 8.236605e+02 
3.957200e-01 8.206761e+02 
3.969300e-01 8.176624e+02 
3.981700e-01 8.145973e+02 
3.993500e-01 8.117021e+02 
4.094840e-01 7.876132e+02 
4.272360e-01 7.489569e+02 
4.454600e-01 7.129231e+02 
4.630560e-01 6.811542e+02 
4.804610e-01 6.522631e+02 
4.980690e-01 6.253749e+02 
5.159230e-01 6.002163e+02 
5.317440e-01 5.795900e+02 
5.489640e-01 5.586379e+02 
5.671990e-01 5.380538e+02 
5.838690e-01 5.205886e+02 
6.018840e-01 5.030471e+02 
6.202330e-01 4.864631e+02 
6.379250e-01 4.714821e+02 
6.545410e-01 4.583225e+02 
6.714560e-01 4.457173e+02 
6.892080e-01 4.332504e+02 
7.066010e-01 4.216816e+02 
7.240540e-01 4.107287e+02 
7.420450e-01 4.000927e+02 
7.593780e-01 3.902788e+02 
7.764720e-01 3.810852e+02 
7.942840e-01 3.719716e+02 
8.116170e-01 3.634239e+02 
8.288310e-01 3.553291e+02 
8.462240e-01 3.474320e+02 
8.631980e-01 3.400295e+02 
8.810700e-01 3.325392e+02 
8.989410e-01 3.253422e+02 
9.166330e-01 3.184486e+02 
9.345640e-01 3.116650e+02 
9.515980e-01 3.054362e+02 
9.688720e-01 2.993376e+02 
9.865640e-01 2.932705e+02 
1.031870e+00 2.785365e+02 
1.063490e+00 2.688904e+02 
1.097920e+00 2.589093e+02 
1.134370e+00 2.489400e+02 
1.167730e+00 2.402367e+02 
1.203830e+00 2.313126e+02 
1.240470e+00 2.227220e+02 
1.275790e+00 2.148181e+02 
1.309140e+00 2.077339e+02 
1.342970e+00 2.008300e+02 
1.378420e+00 1.939689e+02 
1.413200e+00 1.875225e+02 
1.448110e+00 1.813457e+02 
1.484090e+00 1.752785e+02 
1.518820e+00 1.696793e+02 
1.552880e+00 1.644033e+02 
1.588630e+00 1.591219e+02 
1.623230e+00 1.542343e+02 
1.657720e+00 1.495626e+02 
1.692450e+00 1.450825e+02 
1.726400e+00 1.408437e+02 
1.762200e+00 1.365541e+02 
1.797880e+00 1.324652e+02 
1.833270e+00 1.285776e+02 
1.869070e+00 1.248001e+02 
1.903200e+00 1.213502e+02 
1.937740e+00 1.179892e+02 
1.973190e+00 1.146697e+02 
2.007440e+00 1.115843e+02 
2.042160e+00 1.085744e+02 
2.077900e+00 1.055873e+02 
2.112390e+00 1.028279e+02 
2.146220e+00 1.001946e+02 
2.181600e+00 9.755493e+01 
2.216930e+00 9.501554e+01 
2.250760e+00 9.266467e+01 
2.286500e+00 9.026591e+01 
2.321770e+00 8.798526e+01 
2.355950e+00 8.585242e+01 
2.391280e+00 8.371578e+01 
2.426240e+00 8.167909e+01 
2.460670e+00 7.973856e+01 
2.495640e+00 7.782676e+01 
2.531080e+00 7.596347e+01 
2.566220e+00 7.417208e+01 
2.600830e+00 7.246459e+01 
2.635080e+00 7.082979e+01 
2.670340e+00 6.919345e+01 
2.705970e+00 6.759949e+01 
2.740040e+00 6.612496e+01 
2.774520e+00 6.466976e+01 
2.809730e+00 6.323323e+01 
2.844390e+00 6.186380e+01 
2.879960e+00 6.049919e+01 
2.914860e+00 5.919969e+01 
2.949410e+00 5.795224e+01 
2.984440e+00 5.672729e+01 
3.019760e+00 5.552540e+01 
3.054730e+00 5.436888e+01 
3.089030e+00 5.326796e+01 
3.124060e+00 5.217618e+01 
3.159560e+00 5.110182e+01 
3.194710e+00 5.006883e+01 
3.229010e+00 4.908909e+01 
3.263320e+00 4.813154e+01 
3.297930e+00 4.719307e+01 
3.332830e+00 4.627423e+01 
3.368040e+00 4.537169e+01 
3.403300e+00 4.449192e+01 
3.438450e+00 4.363709e+01 
3.473060e+00 4.281758e+01 
3.508440e+00 4.200565e+01 
3.543110e+00 4.123067e+01 
3.577470e+00 4.047996e+01 
3.613040e+00 3.972375e+01 
3.648120e+00 3.899947e+01 
3.682910e+00 3.829793e+01 
3.718050e+00 3.760431e+01 
3.753320e+00 3.692757e+01 
3.787980e+00 3.628175e+01 
3.822290e+00 3.565697e+01 
3.857020e+00 3.503824e+01 
3.891920e+00 3.443159e+01 
3.926650e+00 3.384252e+01 
3.961970e+00 3.325784e+01 
3.997360e+00 3.268621e+01 
4.031670e+00 3.214530e+01 
4.066330e+00 3.161269e+01 
4.101420e+00 3.108590e+01 
4.136200e+00 3.057565e+01 
4.170810e+00 3.007938e+01 
4.206250e+00 2.958393e+01 
4.241580e+00 2.910144e+01 
4.276300e+00 2.863759e+01 
4.310970e+00 2.818443e+01 
4.346120e+00 2.773568e+01 
4.380600e+00 2.730605e+01 
4.414730e+00 2.688979e+01 
4.450350e+00 2.646431e+01 
4.485320e+00 2.605558e+01 
4.519810e+00 2.566203e+01 
4.555430e+00 2.526462e+01 
4.590870e+00 2.487802e+01 
4.625480e+00 2.450917e+01 
4.659910e+00 2.414968e+01 
4.695230e+00 2.378833e+01 
4.729960e+00 2.344022e+01 
4.764450e+00 2.310135e+01 
4.799530e+00 2.276347e+01 
4.834910e+00 2.242953e+01 
4.869700e+00 2.210993e+01 
4.904370e+00 2.179800e+01 
4.939450e+00 2.148849e+01 
4.973940e+00 2.118997e+01 
5.008430e+00 2.089711e+01 
5.043810e+00 2.060240e+01 
5.078840e+00 2.031617e+01 
5.113500e+00 2.003828e+01 
5.148890e+00 1.976207e+01 
5.184210e+00 1.949168e+01 
5.219060e+00 1.922954e+01 
5.253660e+00 1.897321e+01 
5.288570e+00 1.871928e+01 
5.323420e+00 1.847139e+01 
5.358440e+00 1.822789e+01 
5.393590e+00 1.798787e+01 
5.428310e+00 1.775502e+01 
5.462800e+00 1.752778e+01 
5.497640e+00 1.730224e+01 
5.532670e+00 1.708086e+01 
5.567280e+00 1.686637e+01 
5.602000e+00 1.665487e+01 
5.637270e+00 1.644298e+01 
5.672410e+00 1.623534e+01 
5.707020e+00 1.603429e+01 
5.742040e+00 1.583575e+01 
5.777430e+00 1.563879e+01 
5.812210e+00 1.544847e+01 
5.846820e+00 1.526218e+01 
5.881610e+00 1.507797e+01 
5.916510e+00 1.489621e+01 
5.951600e+00 1.471704e+01 
5.986560e+00 1.454170e+01 
6.021830e+00 1.436767e+01 
6.056490e+00 1.419978e+01 
6.091160e+00 1.403485e+01 
6.125830e+00 1.387250e+01 
6.161090e+00 1.370999e+01 
6.195760e+00 1.355272e+01 
6.230420e+00 1.339792e+01 
6.265690e+00 1.324288e+01 
6.300950e+00 1.309106e+01 
6.335620e+00 1.294407e+01 
6.370880e+00 1.279685e+01 
6.405550e+00 1.265472e+01 
6.440220e+00 1.251489e+01 
6.475480e+00 1.237482e+01 
6.510150e+00 1.223935e+01 
6.544810e+00 1.210639e+01 
6.580080e+00 1.197308e+01 
6.614750e+00 1.184397e+01 
6.649410e+00 1.171683e+01 
6.684080e+00 1.159150e+01 
6.719340e+00 1.146588e+01 
6.754010e+00 1.134432e+01 
6.788680e+00 1.122488e+01 
6.823940e+00 1.110514e+01 
6.859800e+00 1.098513e+01 
6.894470e+00 1.087115e+01 
6.929140e+00 1.075892e+01 
6.963800e+00 1.064827e+01 
6.999070e+00 1.053725e+01 
7.033730e+00 1.042973e+01 
7.068400e+00 1.032365e+01 
7.103660e+00 1.021726e+01 
7.138330e+00 1.011438e+01 
7.173600e+00 1.001178e+01 
7.208260e+00 9.912323e+00 
7.243530e+00 9.812476e+00 
7.277600e+00 9.717131e+00 
7.312860e+00 9.619599e+00 
7.348120e+00 9.523378e+00 
7.382790e+00 9.430024e+00 
7.417460e+00 9.338442e+00 
7.452720e+00 9.246809e+00 
7.487390e+00 9.157887e+00 
7.522650e+00 9.068628e+00 
7.557320e+00 8.982057e+00 
7.591990e+00 8.896615e+00 
7.627250e+00 8.810836e+00 
7.662510e+00 8.726163e+00 
7.697180e+00 8.644264e+00 
7.731850e+00 8.563507e+00 
7.766510e+00 8.483784e+00 
7.801180e+00 8.405031e+00 
7.836440e+00 8.325982e+00 
7.871110e+00 8.249249e+00 
7.906380e+00 8.172159e+00 
7.941040e+00 8.097339e+00 
7.976310e+00 8.022321e+00 
8.011570e+00 7.948468e+00 
8.046240e+00 7.876736e+00 
8.080900e+00 7.805889e+00 
8.115570e+00 7.735922e+00 
8.150830e+00 7.665810e+00 
8.185500e+00 7.597699e+00 
8.220770e+00 7.529237e+00 
8.255430e+00 7.462762e+00 
8.290100e+00 7.397245e+00 
8.324770e+00 7.332518e+00 
8.359430e+00 7.268565e+00 
8.394700e+00 7.204250e+00 
8.429960e+00 7.140826e+00 
8.464630e+00 7.079306e+00 
8.499890e+00 7.017464e+00 
8.534560e+00 6.957359e+00 
8.569200e+00 6.897990e+00 
