# Parameters:
# omega_b = 0.022303, omega_m = 0.124134, n_s = 0.933465, h = 61.614173, w = -1.000000, sigma_8 = 0.818110
# z = 0.500000
#
# k[1/Mpc] # P(k):
8.694000e-04 1.825666e+04 
2.077466e-03 3.744194e+04 
3.285532e-03 5.151625e+04 
4.493598e-03 6.165818e+04 
5.701664e-03 6.864084e+04 
6.909730e-03 7.309680e+04 
8.117797e-03 7.565418e+04 
9.325863e-03 7.663996e+04 
1.053393e-02 7.636543e+04 
1.174199e-02 7.510852e+04 
1.295006e-02 7.304380e+04 
1.415813e-02 7.039767e+04 
1.536619e-02 6.736233e+04 
1.657426e-02 6.407513e+04 
1.778233e-02 6.073474e+04 
1.899039e-02 5.761098e+04 
2.019846e-02 5.462608e+04 
2.140652e-02 5.168241e+04 
2.261459e-02 4.884090e+04 
2.382266e-02 4.618224e+04 
2.503072e-02 4.373784e+04 
2.623879e-02 4.151184e+04 
2.744685e-02 3.950222e+04 
2.865492e-02 3.769985e+04 
2.986299e-02 3.608932e+04 
3.100100e-02 3.473742e+04 
3.220400e-02 3.346262e+04 
3.288100e-02 3.280997e+04 
3.424300e-02 3.161697e+04 
3.555100e-02 3.059500e+04 
3.686000e-02 2.967272e+04 
3.795000e-02 2.896365e+04 
3.929100e-02 2.814825e+04 
4.039800e-02 2.750630e+04 
4.164000e-02 2.681022e+04 
4.294400e-02 2.608447e+04 
4.415000e-02 2.542212e+04 
4.542900e-02 2.470790e+04 
4.660900e-02 2.404981e+04 
4.782300e-02 2.335191e+04 
4.892900e-02 2.271484e+04 
5.031200e-02 2.191103e+04 
5.155900e-02 2.118100e+04 
5.238100e-02 2.070125e+04 
5.378200e-02 1.989106e+04 
5.513400e-02 1.912133e+04 
5.627600e-02 1.848534e+04 
5.735300e-02 1.790218e+04 
5.870100e-02 1.719883e+04 
5.988700e-02 1.660839e+04 
6.113500e-02 1.601758e+04 
6.225900e-02 1.551448e+04 
6.340100e-02 1.503293e+04 
6.480200e-02 1.448175e+04 
6.601100e-02 1.404405e+04 
6.725500e-02 1.362898e+04 
6.829100e-02 1.331240e+04 
6.958600e-02 1.294710e+04 
7.071100e-02 1.265893e+04 
7.192300e-02 1.237520e+04 
7.307400e-02 1.212923e+04 
7.412300e-02 1.192289e+04 
7.550400e-02 1.167574e+04 
7.663100e-02 1.148917e+04 
7.791200e-02 1.129330e+04 
7.912700e-02 1.111785e+04 
8.027600e-02 1.095723e+04 
8.138400e-02 1.080518e+04 
8.272200e-02 1.062237e+04 
8.406100e-02 1.043732e+04 
8.534100e-02 1.025304e+04 
8.653800e-02 1.007288e+04 
8.759800e-02 9.908991e+03 
8.900300e-02 9.684076e+03 
9.009000e-02 9.503332e+03 
9.113300e-02 9.324558e+03 
9.239600e-02 9.106549e+03 
9.358000e-02 8.899796e+03 
9.496100e-02 8.657722e+03 
9.608400e-02 8.464319e+03 
9.727500e-02 8.263563e+03 
9.852600e-02 8.059543e+03 
9.973800e-02 7.870493e+03 
1.009000e-01 7.696729e+03 
1.020900e-01 7.531754e+03 
1.034000e-01 7.360391e+03 
1.046000e-01 7.213120e+03 
1.057200e-01 7.088433e+03 
1.069100e-01 6.962781e+03 
1.082500e-01 6.834551e+03 
1.093900e-01 6.733769e+03 
1.105400e-01 6.637737e+03 
1.116900e-01 6.550162e+03 
1.129600e-01 6.457734e+03 
1.142000e-01 6.373642e+03 
1.153300e-01 6.299540e+03 
1.166400e-01 6.216770e+03 
1.177800e-01 6.145952e+03 
1.190000e-01 6.071710e+03 
1.201200e-01 6.002295e+03 
1.213400e-01 5.927947e+03 
1.227100e-01 5.840770e+03 
1.238900e-01 5.766215e+03 
1.250700e-01 5.688938e+03 
1.263200e-01 5.607317e+03 
1.275500e-01 5.525151e+03 
1.287500e-01 5.445226e+03 
1.299900e-01 5.361970e+03 
1.311300e-01 5.286196e+03 
1.323500e-01 5.205452e+03 
1.335900e-01 5.125052e+03 
1.347100e-01 5.053712e+03 
1.359800e-01 4.974907e+03 
1.372100e-01 4.900897e+03 
1.384300e-01 4.829684e+03 
1.395700e-01 4.765848e+03 
1.407700e-01 4.700290e+03 
1.420300e-01 4.635215e+03 
1.432800e-01 4.572080e+03 
1.444500e-01 4.516644e+03 
1.456300e-01 4.461859e+03 
1.468900e-01 4.406089e+03 
1.480500e-01 4.356238e+03 
1.491700e-01 4.309590e+03 
1.503800e-01 4.260892e+03 
1.516400e-01 4.211326e+03 
1.528200e-01 4.166369e+03 
1.540200e-01 4.121521e+03 
1.551900e-01 4.078652e+03 
1.564300e-01 4.034090e+03 
1.576600e-01 3.990556e+03 
1.588700e-01 3.948320e+03 
1.600900e-01 3.906498e+03 
1.612700e-01 3.866170e+03 
1.625400e-01 3.823574e+03 
1.637600e-01 3.782976e+03 
1.649500e-01 3.743831e+03 
1.662200e-01 3.702726e+03 
1.674000e-01 3.664703e+03 
1.685000e-01 3.629854e+03 
1.697500e-01 3.590689e+03 
1.710300e-01 3.551080e+03 
1.722200e-01 3.514912e+03 
1.734400e-01 3.478218e+03 
1.746400e-01 3.442738e+03 
1.758700e-01 3.406994e+03 
1.770900e-01 3.372149e+03 
1.782700e-01 3.339012e+03 
1.794600e-01 3.306260e+03 
1.807000e-01 3.272782e+03 
1.819100e-01 3.240661e+03 
1.830100e-01 3.212202e+03 
1.842200e-01 3.181433e+03 
1.855000e-01 3.149445e+03 
1.867000e-01 3.120374e+03 
1.879200e-01 3.091289e+03 
1.890900e-01 3.063904e+03 
1.902800e-01 3.036847e+03 
1.915200e-01 3.009094e+03 
1.926900e-01 2.983399e+03 
1.939000e-01 2.957510e+03 
1.951700e-01 2.930763e+03 
1.963100e-01 2.907194e+03 
1.975100e-01 2.882951e+03 
1.987800e-01 2.857686e+03 
2.000100e-01 2.833635e+03 
2.012500e-01 2.809849e+03 
2.023400e-01 2.789237e+03 
2.036100e-01 2.765565e+03 
2.048900e-01 2.742076e+03 
2.060400e-01 2.721279e+03 
2.072200e-01 2.700224e+03 
2.084200e-01 2.678994e+03 
2.096900e-01 2.656852e+03 
2.109200e-01 2.635719e+03 
2.121100e-01 2.615316e+03 
2.132700e-01 2.595684e+03 
2.145200e-01 2.574822e+03 
2.157200e-01 2.554835e+03 
2.168800e-01 2.535663e+03 
2.180700e-01 2.516258e+03 
2.193400e-01 2.495662e+03 
2.206000e-01 2.475197e+03 
2.217500e-01 2.456770e+03 
2.229500e-01 2.437793e+03 
2.241400e-01 2.418694e+03 
2.253500e-01 2.399517e+03 
2.264900e-01 2.381683e+03 
2.277100e-01 2.362538e+03 
2.289900e-01 2.342385e+03 
2.301500e-01 2.324364e+03 
2.313600e-01 2.305802e+03 
2.325600e-01 2.287033e+03 
2.337700e-01 2.268353e+03 
2.350000e-01 2.249614e+03 
2.362000e-01 2.231339e+03 
2.374100e-01 2.212877e+03 
2.386500e-01 2.194204e+03 
2.399100e-01 2.175481e+03 
2.410400e-01 2.158642e+03 
2.422500e-01 2.140801e+03 
2.435000e-01 2.122608e+03 
2.447300e-01 2.104923e+03 
2.458700e-01 2.088673e+03 
2.470600e-01 2.071915e+03 
2.483300e-01 2.054258e+03 
2.495600e-01 2.037459e+03 
2.507600e-01 2.021387e+03 
2.519600e-01 2.005510e+03 
2.532200e-01 1.989047e+03 
2.543700e-01 1.974427e+03 
2.555500e-01 1.959752e+03 
2.568000e-01 1.944393e+03 
2.580100e-01 1.929706e+03 
2.592400e-01 1.915316e+03 
2.604100e-01 1.901946e+03 
2.616100e-01 1.888390e+03 
2.628400e-01 1.874656e+03 
2.640600e-01 1.861588e+03 
2.652200e-01 1.849459e+03 
2.664300e-01 1.836947e+03 
2.676500e-01 1.824474e+03 
2.688400e-01 1.812748e+03 
2.700700e-01 1.800951e+03 
2.712400e-01 1.789853e+03 
2.724800e-01 1.778219e+03 
2.736700e-01 1.767359e+03 
2.748800e-01 1.756621e+03 
2.761000e-01 1.745912e+03 
2.773200e-01 1.735319e+03 
2.785400e-01 1.724926e+03 
2.797000e-01 1.715329e+03 
2.808900e-01 1.705584e+03 
2.821400e-01 1.695456e+03 
2.833900e-01 1.685445e+03 
2.845500e-01 1.676399e+03 
2.857800e-01 1.666906e+03 
2.870300e-01 1.657360e+03 
2.882100e-01 1.648442e+03 
2.893900e-01 1.639672e+03 
2.906300e-01 1.630580e+03 
2.918900e-01 1.621439e+03 
2.930500e-01 1.613109e+03 
2.942500e-01 1.604586e+03 
2.954200e-01 1.596390e+03 
2.966500e-01 1.587859e+03 
2.978900e-01 1.579346e+03 
2.990400e-01 1.571528e+03 
3.002700e-01 1.563265e+03 
3.015100e-01 1.555026e+03 
3.026800e-01 1.547329e+03 
3.038500e-01 1.539703e+03 
3.050300e-01 1.532086e+03 
3.062600e-01 1.524238e+03 
3.075000e-01 1.516404e+03 
3.087000e-01 1.508896e+03 
3.099100e-01 1.501398e+03 
3.111200e-01 1.493979e+03 
3.123100e-01 1.486765e+03 
3.135300e-01 1.479439e+03 
3.147300e-01 1.472301e+03 
3.159900e-01 1.464877e+03 
3.171800e-01 1.457944e+03 
3.183700e-01 1.451083e+03 
3.196300e-01 1.443885e+03 
3.208400e-01 1.437039e+03 
3.220300e-01 1.430367e+03 
3.232000e-01 1.423888e+03 
3.244300e-01 1.417147e+03 
3.256700e-01 1.410414e+03 
3.269200e-01 1.403690e+03 
3.280800e-01 1.397506e+03 
3.292500e-01 1.391347e+03 
3.304800e-01 1.384937e+03 
3.317100e-01 1.378585e+03 
3.328900e-01 1.372545e+03 
3.340700e-01 1.366557e+03 
3.353600e-01 1.360094e+03 
3.365300e-01 1.354294e+03 
3.377100e-01 1.348495e+03 
3.389200e-01 1.342599e+03 
3.401600e-01 1.336610e+03 
3.413700e-01 1.330834e+03 
3.425300e-01 1.325355e+03 
3.437700e-01 1.319549e+03 
3.449800e-01 1.313932e+03 
3.461800e-01 1.308409e+03 
3.473600e-01 1.303032e+03 
3.485800e-01 1.297539e+03 
3.498100e-01 1.292048e+03 
3.510200e-01 1.286692e+03 
3.522000e-01 1.281512e+03 
3.533900e-01 1.276332e+03 
3.546400e-01 1.270962e+03 
3.558400e-01 1.265852e+03 
3.570600e-01 1.260699e+03 
3.582700e-01 1.255632e+03 
3.595000e-01 1.250523e+03 
3.607100e-01 1.245551e+03 
3.618900e-01 1.240752e+03 
3.631200e-01 1.235790e+03 
3.643200e-01 1.230988e+03 
3.655500e-01 1.226106e+03 
3.667300e-01 1.221461e+03 
3.679500e-01 1.216719e+03 
3.691900e-01 1.211938e+03 
3.703600e-01 1.207464e+03 
3.715700e-01 1.202872e+03 
3.727700e-01 1.198355e+03 
3.739900e-01 1.193802e+03 
3.752000e-01 1.189328e+03 
3.763900e-01 1.184962e+03 
3.775800e-01 1.180629e+03 
3.788200e-01 1.176150e+03 
3.800300e-01 1.171814e+03 
3.812100e-01 1.167601e+03 
3.824200e-01 1.163302e+03 
3.836100e-01 1.159106e+03 
3.848600e-01 1.154733e+03 
3.860400e-01 1.150637e+03 
3.872400e-01 1.146503e+03 
3.884600e-01 1.142363e+03 
3.896500e-01 1.138368e+03 
3.908700e-01 1.134303e+03 
3.920600e-01 1.130367e+03 
3.933100e-01 1.126265e+03 
3.945300e-01 1.122292e+03 
3.957200e-01 1.118426e+03 
3.969300e-01 1.114520e+03 
3.981700e-01 1.110547e+03 
3.993500e-01 1.106794e+03 
4.094840e-01 1.075510e+03 
4.272360e-01 1.025066e+03 
4.454600e-01 9.778549e+02 
4.630560e-01 9.360796e+02 
4.804610e-01 8.980035e+02 
4.980690e-01 8.625040e+02 
5.159230e-01 8.292445e+02 
5.317440e-01 8.019416e+02 
5.489640e-01 7.741325e+02 
5.671990e-01 7.467562e+02 
5.838690e-01 7.234422e+02 
6.018840e-01 6.999581e+02 
6.202330e-01 6.776181e+02 
6.379250e-01 6.573858e+02 
6.545410e-01 6.394892e+02 
6.714560e-01 6.222765e+02 
6.892080e-01 6.051604e+02 
7.066010e-01 5.891778e+02 
7.240540e-01 5.739736e+02 
7.420450e-01 5.591302e+02 
7.593780e-01 5.453517e+02 
7.764720e-01 5.323839e+02 
7.942840e-01 5.194815e+02 
8.116170e-01 5.073172e+02 
8.288310e-01 4.957364e+02 
8.462240e-01 4.844122e+02 
8.631980e-01 4.737575e+02 
8.810700e-01 4.629477e+02 
8.989410e-01 4.525331e+02 
9.166330e-01 4.425273e+02 
9.345640e-01 4.326680e+02 
9.515980e-01 4.236000e+02 
9.688720e-01 4.147060e+02 
9.865640e-01 4.058508e+02 
1.031870e+00 3.843199e+02 
1.063490e+00 3.702069e+02 
1.097920e+00 3.556109e+02 
1.134370e+00 3.410429e+02 
1.167730e+00 3.283451e+02 
1.203830e+00 3.153391e+02 
1.240470e+00 3.028503e+02 
1.275790e+00 2.913843e+02 
1.309140e+00 2.811313e+02 
1.342970e+00 2.711709e+02 
1.378420e+00 2.612945e+02 
1.413200e+00 2.520356e+02 
1.448110e+00 2.431919e+02 
1.484090e+00 2.345246e+02 
1.518820e+00 2.265579e+02 
1.552880e+00 2.190653e+02 
1.588630e+00 2.115924e+02 
1.623230e+00 2.046901e+02 
1.657720e+00 1.981138e+02 
1.692450e+00 1.918175e+02 
1.726400e+00 1.858785e+02 
1.762200e+00 1.798894e+02 
1.797880e+00 1.741938e+02 
1.833270e+00 1.687887e+02 
1.869070e+00 1.635524e+02 
1.903200e+00 1.587804e+02 
1.937740e+00 1.541431e+02 
1.973190e+00 1.495748e+02 
2.007440e+00 1.453382e+02 
2.042160e+00 1.412125e+02 
2.077900e+00 1.371272e+02 
2.112390e+00 1.333620e+02 
2.146220e+00 1.297779e+02 
2.181600e+00 1.261903e+02 
2.216930e+00 1.227471e+02 
2.250760e+00 1.195656e+02 
2.286500e+00 1.163254e+02 
2.321770e+00 1.132510e+02 
2.355950e+00 1.103807e+02 
2.391280e+00 1.075109e+02 
2.426240e+00 1.047802e+02 
2.460670e+00 1.021829e+02 
2.495640e+00 9.962821e+01 
2.531080e+00 9.714240e+01 
2.566220e+00 9.475729e+01 
2.600830e+00 9.248732e+01 
2.635080e+00 9.031683e+01 
2.670340e+00 8.814868e+01 
2.705970e+00 8.603970e+01 
2.740040e+00 8.409122e+01 
2.774520e+00 8.217106e+01 
2.809730e+00 8.027844e+01 
2.844390e+00 7.847639e+01 
2.879960e+00 7.668348e+01 
2.914860e+00 7.497859e+01 
2.949410e+00 7.334368e+01 
2.984440e+00 7.174066e+01 
3.019760e+00 7.016996e+01 
3.054730e+00 6.866008e+01 
3.089030e+00 6.722495e+01 
3.124060e+00 6.580311e+01 
3.159560e+00 6.440575e+01 
3.194710e+00 6.306391e+01 
3.229010e+00 6.179216e+01 
3.263320e+00 6.055126e+01 
3.297930e+00 5.933596e+01 
3.332830e+00 5.814746e+01 
3.368040e+00 5.698123e+01 
3.403300e+00 5.584538e+01 
3.438450e+00 5.474324e+01 
3.473060e+00 5.368725e+01 
3.508440e+00 5.264249e+01 
3.543110e+00 5.164572e+01 
3.577470e+00 5.068136e+01 
3.613040e+00 4.971050e+01 
3.648120e+00 4.878173e+01 
3.682910e+00 4.788272e+01 
3.718050e+00 4.699478e+01 
3.753320e+00 4.612899e+01 
3.787980e+00 4.530346e+01 
3.822290e+00 4.450536e+01 
3.857020e+00 4.371570e+01 
3.891920e+00 4.294196e+01 
3.926650e+00 4.219139e+01 
3.961970e+00 4.144677e+01 
3.997360e+00 4.071936e+01 
4.031670e+00 4.003131e+01 
4.066330e+00 3.935444e+01 
4.101420e+00 3.868513e+01 
4.136200e+00 3.803755e+01 
4.170810e+00 3.740782e+01 
4.206250e+00 3.677977e+01 
4.241580e+00 3.616837e+01 
4.276300e+00 3.558103e+01 
4.310970e+00 3.500749e+01 
4.346120e+00 3.443978e+01 
4.380600e+00 3.389658e+01 
4.414730e+00 3.337038e+01 
4.450350e+00 3.283311e+01 
4.485320e+00 3.231708e+01 
4.519810e+00 3.182050e+01 
4.555430e+00 3.131925e+01 
4.590870e+00 3.083180e+01 
4.625480e+00 3.036700e+01 
4.659910e+00 2.991406e+01 
4.695230e+00 2.945913e+01 
4.729960e+00 2.902099e+01 
4.764450e+00 2.859465e+01 
4.799530e+00 2.816979e+01 
4.834910e+00 2.774995e+01 
4.869700e+00 2.734833e+01 
4.904370e+00 2.695643e+01 
4.939450e+00 2.656766e+01 
4.973940e+00 2.619288e+01 
5.008430e+00 2.582524e+01 
5.043810e+00 2.545550e+01 
5.078840e+00 2.509653e+01 
5.113500e+00 2.474807e+01 
5.148890e+00 2.440186e+01 
5.184210e+00 2.406299e+01 
5.219060e+00 2.373454e+01 
5.253660e+00 2.341350e+01 
5.288570e+00 2.309550e+01 
5.323420e+00 2.278514e+01 
5.358440e+00 2.248036e+01 
5.393590e+00 2.217998e+01 
5.428310e+00 2.188868e+01 
5.462800e+00 2.160447e+01 
5.497640e+00 2.132242e+01 
5.532670e+00 2.104562e+01 
5.567280e+00 2.077748e+01 
5.602000e+00 2.051311e+01 
5.637270e+00 2.024837e+01 
5.672410e+00 1.998898e+01 
5.707020e+00 1.973786e+01 
5.742040e+00 1.948993e+01 
5.777430e+00 1.924402e+01 
5.812210e+00 1.900641e+01 
5.846820e+00 1.877388e+01 
5.881610e+00 1.854398e+01 
5.916510e+00 1.831715e+01 
5.951600e+00 1.809359e+01 
5.986560e+00 1.787485e+01 
6.021830e+00 1.765776e+01 
6.056490e+00 1.744837e+01 
6.091160e+00 1.724268e+01 
6.125830e+00 1.704025e+01 
6.161090e+00 1.683765e+01 
6.195760e+00 1.664161e+01 
6.230420e+00 1.644869e+01 
6.265690e+00 1.625548e+01 
6.300950e+00 1.606627e+01 
6.335620e+00 1.588310e+01 
6.370880e+00 1.569967e+01 
6.405550e+00 1.552263e+01 
6.440220e+00 1.534848e+01 
6.475480e+00 1.517404e+01 
6.510150e+00 1.500535e+01 
6.544810e+00 1.483977e+01 
6.580080e+00 1.467378e+01 
6.614750e+00 1.451304e+01 
6.649410e+00 1.435476e+01 
6.684080e+00 1.419876e+01 
6.719340e+00 1.404242e+01 
6.754010e+00 1.389114e+01 
6.788680e+00 1.374249e+01 
6.823940e+00 1.359349e+01 
6.859800e+00 1.344416e+01 
6.894470e+00 1.330235e+01 
6.929140e+00 1.316272e+01 
6.963800e+00 1.302508e+01 
6.999070e+00 1.288699e+01 
7.033730e+00 1.275329e+01 
7.068400e+00 1.262139e+01 
7.103660e+00 1.248911e+01 
7.138330e+00 1.236120e+01 
7.173600e+00 1.223362e+01 
7.208260e+00 1.210996e+01 
7.243530e+00 1.198583e+01 
7.277600e+00 1.186730e+01 
7.312860e+00 1.174607e+01 
7.348120e+00 1.162647e+01 
7.382790e+00 1.151046e+01 
7.417460e+00 1.139666e+01 
7.452720e+00 1.128281e+01 
7.487390e+00 1.117234e+01 
7.522650e+00 1.106147e+01 
7.557320e+00 1.095392e+01 
7.591990e+00 1.084777e+01 
7.627250e+00 1.074122e+01 
7.662510e+00 1.063605e+01 
7.697180e+00 1.053434e+01 
7.731850e+00 1.043406e+01 
7.766510e+00 1.033508e+01 
7.801180e+00 1.023731e+01 
7.836440e+00 1.013917e+01 
7.871110e+00 1.004391e+01 
7.906380e+00 9.948222e+00 
7.941040e+00 9.855360e+00 
7.976310e+00 9.762258e+00 
8.011570e+00 9.670605e+00 
8.046240e+00 9.581597e+00 
8.080900e+00 9.493697e+00 
8.115570e+00 9.406897e+00 
8.150830e+00 9.319917e+00 
8.185500e+00 9.235430e+00 
8.220770e+00 9.150519e+00 
8.255430e+00 9.068082e+00 
8.290100e+00 8.986842e+00 
8.324770e+00 8.906592e+00 
8.359430e+00 8.827311e+00 
8.394700e+00 8.747591e+00 
8.429960e+00 8.668971e+00 
8.464630e+00 8.592707e+00 
8.499890e+00 8.516053e+00 
8.534560e+00 8.441560e+00 
8.569200e+00 8.367990e+00 
