# Parameters:
# omega_b = 0.021594, omega_m = 0.151693, n_s = 0.881496, h = 80.511811, w = -1.000000, sigma_8 = 0.870079
# z = 0.500000
#
# k[1/Mpc] # P(k):
8.694000e-04 1.058591e+04 
2.077466e-03 2.120454e+04 
3.285532e-03 2.914355e+04 
4.493598e-03 3.508900e+04 
5.701664e-03 3.942023e+04 
6.909730e-03 4.243937e+04 
8.117797e-03 4.445214e+04 
9.325863e-03 4.561729e+04 
1.053393e-02 4.608675e+04 
1.174199e-02 4.599624e+04 
1.295006e-02 4.543193e+04 
1.415813e-02 4.450696e+04 
1.536619e-02 4.331181e+04 
1.657426e-02 4.190613e+04 
1.778233e-02 4.029230e+04 
1.899039e-02 3.844545e+04 
2.019846e-02 3.649998e+04 
2.140652e-02 3.463405e+04 
2.261459e-02 3.286670e+04 
2.382266e-02 3.119841e+04 
2.503072e-02 2.964198e+04 
2.623879e-02 2.820394e+04 
2.744685e-02 2.688634e+04 
2.865492e-02 2.569140e+04 
2.986299e-02 2.461441e+04 
3.100100e-02 2.370534e+04 
3.220400e-02 2.284757e+04 
3.288100e-02 2.241050e+04 
3.424300e-02 2.161924e+04 
3.555100e-02 2.095465e+04 
3.686000e-02 2.037159e+04 
3.795000e-02 1.993680e+04 
3.929100e-02 1.945741e+04 
4.039800e-02 1.909319e+04 
4.164000e-02 1.870817e+04 
4.294400e-02 1.831585e+04 
4.415000e-02 1.795848e+04 
4.542900e-02 1.756790e+04 
4.660900e-02 1.720064e+04 
4.782300e-02 1.679491e+04 
4.892900e-02 1.641203e+04 
5.031200e-02 1.590819e+04 
5.155900e-02 1.542895e+04 
5.238100e-02 1.510358e+04 
5.378200e-02 1.453707e+04 
5.513400e-02 1.397897e+04 
5.627600e-02 1.350515e+04 
5.735300e-02 1.306270e+04 
5.870100e-02 1.252093e+04 
5.988700e-02 1.206162e+04 
6.113500e-02 1.159943e+04 
6.225900e-02 1.120526e+04 
6.340100e-02 1.082899e+04 
6.480200e-02 1.040067e+04 
6.601100e-02 1.006409e+04 
6.725500e-02 9.748702e+03 
6.829100e-02 9.511677e+03 
6.958600e-02 9.241424e+03 
7.071100e-02 9.031711e+03 
7.192300e-02 8.828151e+03 
7.307400e-02 8.654185e+03 
7.412300e-02 8.510082e+03 
7.550400e-02 8.340033e+03 
7.663100e-02 8.213112e+03 
7.791200e-02 8.081823e+03 
7.912700e-02 7.965759e+03 
8.027600e-02 7.860674e+03 
8.138400e-02 7.762188e+03 
8.272200e-02 7.645166e+03 
8.406100e-02 7.528135e+03 
8.534100e-02 7.413094e+03 
8.653800e-02 7.301583e+03 
8.759800e-02 7.200480e+03 
8.900300e-02 7.061889e+03 
9.009000e-02 6.950192e+03 
9.113300e-02 6.838705e+03 
9.239600e-02 6.701445e+03 
9.358000e-02 6.569217e+03 
9.496100e-02 6.410166e+03 
9.608400e-02 6.280110e+03 
9.727500e-02 6.142616e+03 
9.852600e-02 5.995989e+03 
9.973800e-02 5.856803e+03 
1.009000e-01 5.726119e+03 
1.020900e-01 5.595386e+03 
1.034000e-01 5.456868e+03 
1.046000e-01 5.334952e+03 
1.057200e-01 5.227891e+03 
1.069100e-01 5.119002e+03 
1.082500e-01 5.005405e+03 
1.093900e-01 4.915668e+03 
1.105400e-01 4.829900e+03 
1.116900e-01 4.752608e+03 
1.129600e-01 4.671740e+03 
1.142000e-01 4.600671e+03 
1.153300e-01 4.539692e+03 
1.166400e-01 4.474130e+03 
1.177800e-01 4.421075e+03 
1.190000e-01 4.366866e+03 
1.201200e-01 4.319723e+03 
1.213400e-01 4.269841e+03 
1.227100e-01 4.215268e+03 
1.238900e-01 4.169118e+03 
1.250700e-01 4.122821e+03 
1.263200e-01 4.074101e+03 
1.275500e-01 4.025449e+03 
1.287500e-01 3.977800e+03 
1.299900e-01 3.927666e+03 
1.311300e-01 3.881209e+03 
1.323500e-01 3.830486e+03 
1.335900e-01 3.778727e+03 
1.347100e-01 3.731173e+03 
1.359800e-01 3.677430e+03 
1.372100e-01 3.624559e+03 
1.384300e-01 3.572668e+03 
1.395700e-01 3.523729e+03 
1.407700e-01 3.473186e+03 
1.420300e-01 3.419993e+03 
1.432800e-01 3.368421e+03 
1.444500e-01 3.320880e+03 
1.456300e-01 3.273938e+03 
1.468900e-01 3.225423e+03 
1.480500e-01 3.181861e+03 
1.491700e-01 3.141229e+03 
1.503800e-01 3.098966e+03 
1.516400e-01 3.056239e+03 
1.528200e-01 3.018627e+03 
1.540200e-01 2.981125e+03 
1.551900e-01 2.946910e+03 
1.564300e-01 2.911745e+03 
1.576600e-01 2.878358e+03 
1.588700e-01 2.847119e+03 
1.600900e-01 2.816280e+03 
1.612700e-01 2.788251e+03 
1.625400e-01 2.758644e+03 
1.637600e-01 2.731103e+03 
1.649500e-01 2.704937e+03 
1.662200e-01 2.677511e+03 
1.674000e-01 2.652443e+03 
1.685000e-01 2.629462e+03 
1.697500e-01 2.603467e+03 
1.710300e-01 2.577007e+03 
1.722200e-01 2.552842e+03 
1.734400e-01 2.527567e+03 
1.746400e-01 2.503094e+03 
1.758700e-01 2.478117e+03 
1.770900e-01 2.453115e+03 
1.782700e-01 2.429337e+03 
1.794600e-01 2.405281e+03 
1.807000e-01 2.380319e+03 
1.819100e-01 2.356371e+03 
1.830100e-01 2.334564e+03 
1.842200e-01 2.310889e+03 
1.855000e-01 2.286260e+03 
1.867000e-01 2.263418e+03 
1.879200e-01 2.240572e+03 
1.890900e-01 2.219035e+03 
1.902800e-01 2.197597e+03 
1.915200e-01 2.175615e+03 
1.926900e-01 2.155274e+03 
1.939000e-01 2.134802e+03 
1.951700e-01 2.113658e+03 
1.963100e-01 2.095077e+03 
1.975100e-01 2.076095e+03 
1.987800e-01 2.056316e+03 
2.000100e-01 2.037570e+03 
2.012500e-01 2.019218e+03 
2.023400e-01 2.003317e+03 
2.036100e-01 1.985120e+03 
2.048900e-01 1.967307e+03 
2.060400e-01 1.951538e+03 
2.072200e-01 1.935598e+03 
2.084200e-01 1.919806e+03 
2.096900e-01 1.903336e+03 
2.109200e-01 1.887618e+03 
2.121100e-01 1.872748e+03 
2.132700e-01 1.858456e+03 
2.145200e-01 1.843268e+03 
2.157200e-01 1.828978e+03 
2.168800e-01 1.815390e+03 
2.180700e-01 1.801636e+03 
2.193400e-01 1.787217e+03 
2.206000e-01 1.773221e+03 
2.217500e-01 1.760617e+03 
2.229500e-01 1.747636e+03 
2.241400e-01 1.735158e+03 
2.253500e-01 1.722643e+03 
2.264900e-01 1.711001e+03 
2.277100e-01 1.698843e+03 
2.289900e-01 1.686415e+03 
2.301500e-01 1.675299e+03 
2.313600e-01 1.663852e+03 
2.325600e-01 1.652992e+03 
2.337700e-01 1.642181e+03 
2.350000e-01 1.631330e+03 
2.362000e-01 1.621036e+03 
2.374100e-01 1.610973e+03 
2.386500e-01 1.600790e+03 
2.399100e-01 1.590575e+03 
2.410400e-01 1.581760e+03 
2.422500e-01 1.572462e+03 
2.435000e-01 1.562976e+03 
2.447300e-01 1.553789e+03 
2.458700e-01 1.545502e+03 
2.470600e-01 1.536952e+03 
2.483300e-01 1.527938e+03 
2.495600e-01 1.519333e+03 
2.507600e-01 1.511061e+03 
2.519600e-01 1.502886e+03 
2.532200e-01 1.494404e+03 
2.543700e-01 1.486695e+03 
2.555500e-01 1.478835e+03 
2.568000e-01 1.470605e+03 
2.580100e-01 1.462731e+03 
2.592400e-01 1.454690e+03 
2.604100e-01 1.447070e+03 
2.616100e-01 1.439342e+03 
2.628400e-01 1.431510e+03 
2.640600e-01 1.423663e+03 
2.652200e-01 1.416218e+03 
2.664300e-01 1.408536e+03 
2.676500e-01 1.400877e+03 
2.688400e-01 1.393348e+03 
2.700700e-01 1.385563e+03 
2.712400e-01 1.378238e+03 
2.724800e-01 1.370559e+03 
2.736700e-01 1.363163e+03 
2.748800e-01 1.355614e+03 
2.761000e-01 1.348084e+03 
2.773200e-01 1.340635e+03 
2.785400e-01 1.333216e+03 
2.797000e-01 1.326133e+03 
2.808900e-01 1.318941e+03 
2.821400e-01 1.311467e+03 
2.833900e-01 1.304068e+03 
2.845500e-01 1.297169e+03 
2.857800e-01 1.289928e+03 
2.870300e-01 1.282648e+03 
2.882100e-01 1.275846e+03 
2.893900e-01 1.269064e+03 
2.906300e-01 1.261986e+03 
2.918900e-01 1.254868e+03 
2.930500e-01 1.248382e+03 
2.942500e-01 1.241728e+03 
2.954200e-01 1.235272e+03 
2.966500e-01 1.228553e+03 
2.978900e-01 1.221848e+03 
2.990400e-01 1.215691e+03 
3.002700e-01 1.209155e+03 
3.015100e-01 1.202626e+03 
3.026800e-01 1.196526e+03 
3.038500e-01 1.190483e+03 
3.050300e-01 1.184446e+03 
3.062600e-01 1.178207e+03 
3.075000e-01 1.171979e+03 
3.087000e-01 1.166010e+03 
3.099100e-01 1.160049e+03 
3.111200e-01 1.154148e+03 
3.123100e-01 1.148402e+03 
3.135300e-01 1.142567e+03 
3.147300e-01 1.136882e+03 
3.159900e-01 1.130969e+03 
3.171800e-01 1.125444e+03 
3.183700e-01 1.119974e+03 
3.196300e-01 1.114236e+03 
3.208400e-01 1.108778e+03 
3.220300e-01 1.103459e+03 
3.232000e-01 1.098290e+03 
3.244300e-01 1.092912e+03 
3.256700e-01 1.087540e+03 
3.269200e-01 1.082176e+03 
3.280800e-01 1.077242e+03 
3.292500e-01 1.072324e+03 
3.304800e-01 1.067205e+03 
3.317100e-01 1.062132e+03 
3.328900e-01 1.057309e+03 
3.340700e-01 1.052527e+03 
3.353600e-01 1.047366e+03 
3.365300e-01 1.042733e+03 
3.377100e-01 1.038100e+03 
3.389200e-01 1.033391e+03 
3.401600e-01 1.028607e+03 
3.413700e-01 1.023994e+03 
3.425300e-01 1.019617e+03 
3.437700e-01 1.014978e+03 
3.449800e-01 1.010492e+03 
3.461800e-01 1.006080e+03 
3.473600e-01 1.001785e+03 
3.485800e-01 9.973980e+02 
3.498100e-01 9.930135e+02 
3.510200e-01 9.887369e+02 
3.522000e-01 9.846011e+02 
3.533900e-01 9.804644e+02 
3.546400e-01 9.761784e+02 
3.558400e-01 9.720998e+02 
3.570600e-01 9.679876e+02 
3.582700e-01 9.639430e+02 
3.595000e-01 9.598656e+02 
3.607100e-01 9.558987e+02 
3.618900e-01 9.520700e+02 
3.631200e-01 9.481115e+02 
3.643200e-01 9.442810e+02 
3.655500e-01 9.403867e+02 
3.667300e-01 9.366808e+02 
3.679500e-01 9.329056e+02 
3.691900e-01 9.290997e+02 
3.703600e-01 9.255373e+02 
3.715700e-01 9.218820e+02 
3.727700e-01 9.182856e+02 
3.739900e-01 9.146614e+02 
3.752000e-01 9.111013e+02 
3.763900e-01 9.076273e+02 
3.775800e-01 9.041801e+02 
3.788200e-01 9.006163e+02 
3.800300e-01 8.971662e+02 
3.812100e-01 8.938191e+02 
3.824200e-01 8.904077e+02 
3.836100e-01 8.870783e+02 
3.848600e-01 8.836082e+02 
3.860400e-01 8.803577e+02 
3.872400e-01 8.770769e+02 
3.884600e-01 8.737957e+02 
3.896500e-01 8.706302e+02 
3.908700e-01 8.674094e+02 
3.920600e-01 8.642914e+02 
3.933100e-01 8.610411e+02 
3.945300e-01 8.578932e+02 
3.957200e-01 8.548370e+02 
3.969300e-01 8.517501e+02 
3.981700e-01 8.486105e+02 
3.993500e-01 8.456449e+02 
4.094840e-01 8.209588e+02 
4.272360e-01 7.813128e+02 
4.454600e-01 7.443540e+02 
4.630560e-01 7.117680e+02 
4.804610e-01 6.821372e+02 
4.980690e-01 6.545591e+02 
5.159230e-01 6.287397e+02 
5.317440e-01 6.075554e+02 
5.489640e-01 5.859979e+02 
5.671990e-01 5.647842e+02 
5.838690e-01 5.467482e+02 
6.018840e-01 5.285975e+02 
6.202330e-01 5.113882e+02 
6.379250e-01 4.958253e+02 
6.545410e-01 4.821181e+02 
6.714560e-01 4.689707e+02 
6.892080e-01 4.559520e+02 
7.066010e-01 4.438566e+02 
7.240540e-01 4.323945e+02 
7.420450e-01 4.212644e+02 
7.593780e-01 4.109865e+02 
7.764720e-01 4.013578e+02 
7.942840e-01 3.918160e+02 
8.116170e-01 3.828693e+02 
8.288310e-01 3.743993e+02 
8.462240e-01 3.661450e+02 
8.631980e-01 3.584108e+02 
8.810700e-01 3.505920e+02 
8.989410e-01 3.430858e+02 
9.166330e-01 3.359006e+02 
9.345640e-01 3.288374e+02 
9.515980e-01 3.223579e+02 
9.688720e-01 3.160191e+02 
9.865640e-01 3.097206e+02 
1.031870e+00 2.944392e+02 
1.063490e+00 2.844480e+02 
1.097920e+00 2.741238e+02 
1.134370e+00 2.638190e+02 
1.167730e+00 2.548292e+02 
1.203830e+00 2.456157e+02 
1.240470e+00 2.367483e+02 
1.275790e+00 2.285899e+02 
1.309140e+00 2.212778e+02 
1.342970e+00 2.141499e+02 
1.378420e+00 2.070650e+02 
1.413200e+00 2.004029e+02 
1.448110e+00 1.940165e+02 
1.484090e+00 1.877389e+02 
1.518820e+00 1.819433e+02 
1.552880e+00 1.764750e+02 
1.588630e+00 1.709994e+02 
1.623230e+00 1.659261e+02 
1.657720e+00 1.610740e+02 
1.692450e+00 1.564163e+02 
1.726400e+00 1.520034e+02 
1.762200e+00 1.475345e+02 
1.797880e+00 1.432707e+02 
1.833270e+00 1.392120e+02 
1.869070e+00 1.352641e+02 
1.903200e+00 1.316552e+02 
1.937740e+00 1.281362e+02 
1.973190e+00 1.246570e+02 
2.007440e+00 1.214197e+02 
2.042160e+00 1.182578e+02 
2.077900e+00 1.151164e+02 
2.112390e+00 1.122131e+02 
2.146220e+00 1.094381e+02 
2.181600e+00 1.066540e+02 
2.216930e+00 1.039733e+02 
2.250760e+00 1.014888e+02 
2.286500e+00 9.895114e+01 
2.321770e+00 9.653638e+01 
2.355950e+00 9.427600e+01 
2.391280e+00 9.200850e+01 
2.426240e+00 8.984540e+01 
2.460670e+00 8.778256e+01 
2.495640e+00 8.574817e+01 
2.531080e+00 8.376350e+01 
2.566220e+00 8.185371e+01 
2.600830e+00 8.003178e+01 
2.635080e+00 7.828594e+01 
2.670340e+00 7.653629e+01 
2.705970e+00 7.483075e+01 
2.740040e+00 7.325182e+01 
2.774520e+00 7.169174e+01 
2.809730e+00 7.015045e+01 
2.844390e+00 6.868012e+01 
2.879960e+00 6.721362e+01 
2.914860e+00 6.581564e+01 
2.949410e+00 6.447274e+01 
2.984440e+00 6.315304e+01 
3.019760e+00 6.185700e+01 
3.054730e+00 6.060901e+01 
3.089030e+00 5.941973e+01 
3.124060e+00 5.823960e+01 
3.159560e+00 5.707742e+01 
3.194710e+00 5.595907e+01 
3.229010e+00 5.489777e+01 
3.263320e+00 5.385930e+01 
3.297930e+00 5.284099e+01 
3.332830e+00 5.184327e+01 
3.368040e+00 5.086245e+01 
3.403300e+00 4.990572e+01 
3.438450e+00 4.897529e+01 
3.473060e+00 4.808289e+01 
3.508440e+00 4.719797e+01 
3.543110e+00 4.635292e+01 
3.577470e+00 4.553347e+01 
3.613040e+00 4.470767e+01 
3.648120e+00 4.391624e+01 
3.682910e+00 4.314916e+01 
3.718050e+00 4.239005e+01 
3.753320e+00 4.164906e+01 
3.787980e+00 4.094156e+01 
3.822290e+00 4.025666e+01 
3.857020e+00 3.957783e+01 
3.891920e+00 3.891194e+01 
3.926650e+00 3.826493e+01 
3.961970e+00 3.762242e+01 
3.997360e+00 3.699373e+01 
4.031670e+00 3.639860e+01 
4.066330e+00 3.581216e+01 
4.101420e+00 3.523196e+01 
4.136200e+00 3.466948e+01 
4.170810e+00 3.412226e+01 
4.206250e+00 3.357551e+01 
4.241580e+00 3.304289e+01 
4.276300e+00 3.253049e+01 
4.310970e+00 3.202965e+01 
4.346120e+00 3.153346e+01 
4.380600e+00 3.105811e+01 
4.414730e+00 3.059742e+01 
4.450350e+00 3.012612e+01 
4.485320e+00 2.967325e+01 
4.519810e+00 2.923692e+01 
4.555430e+00 2.879614e+01 
4.590870e+00 2.836716e+01 
4.625480e+00 2.795765e+01 
4.659910e+00 2.755842e+01 
4.695230e+00 2.715681e+01 
4.729960e+00 2.676979e+01 
4.764450e+00 2.639287e+01 
4.799530e+00 2.601681e+01 
4.834910e+00 2.564505e+01 
4.869700e+00 2.528905e+01 
4.904370e+00 2.494149e+01 
4.939450e+00 2.459647e+01 
4.973940e+00 2.426349e+01 
5.008430e+00 2.393674e+01 
5.043810e+00 2.360773e+01 
5.078840e+00 2.328805e+01 
5.113500e+00 2.297763e+01 
5.148890e+00 2.266889e+01 
5.184210e+00 2.236658e+01 
5.219060e+00 2.207337e+01 
5.253660e+00 2.178644e+01 
5.288570e+00 2.150214e+01 
5.323420e+00 2.122448e+01 
5.358440e+00 2.095164e+01 
5.393590e+00 2.068264e+01 
5.428310e+00 2.042151e+01 
5.462800e+00 2.016656e+01 
5.497640e+00 1.991346e+01 
5.532670e+00 1.966491e+01 
5.567280e+00 1.942403e+01 
5.602000e+00 1.918646e+01 
5.637270e+00 1.894826e+01 
5.672410e+00 1.871475e+01 
5.707020e+00 1.848862e+01 
5.742040e+00 1.826519e+01 
5.777430e+00 1.804348e+01 
5.812210e+00 1.782920e+01 
5.846820e+00 1.761930e+01 
5.881610e+00 1.741169e+01 
5.916510e+00 1.720679e+01 
5.951600e+00 1.700470e+01 
5.986560e+00 1.680686e+01 
6.021830e+00 1.661045e+01 
6.056490e+00 1.642090e+01 
6.091160e+00 1.623459e+01 
6.125830e+00 1.605116e+01 
6.161090e+00 1.586750e+01 
6.195760e+00 1.568963e+01 
6.230420e+00 1.551454e+01 
6.265690e+00 1.533913e+01 
6.300950e+00 1.516723e+01 
6.335620e+00 1.500076e+01 
6.370880e+00 1.483402e+01 
6.405550e+00 1.467295e+01 
6.440220e+00 1.451443e+01 
6.475480e+00 1.435561e+01 
6.510150e+00 1.420195e+01 
6.544810e+00 1.405104e+01 
6.580080e+00 1.389971e+01 
6.614750e+00 1.375312e+01 
6.649410e+00 1.360866e+01 
6.684080e+00 1.346621e+01 
6.719340e+00 1.332342e+01 
6.754010e+00 1.318518e+01 
6.788680e+00 1.304927e+01 
6.823940e+00 1.291300e+01 
6.859800e+00 1.277640e+01 
6.894470e+00 1.264658e+01 
6.929140e+00 1.251870e+01 
6.963800e+00 1.239261e+01 
6.999070e+00 1.226607e+01 
7.033730e+00 1.214342e+01 
7.068400e+00 1.202239e+01 
7.103660e+00 1.190098e+01 
7.138330e+00 1.178355e+01 
7.173600e+00 1.166635e+01 
7.208260e+00 1.155273e+01 
7.243530e+00 1.143865e+01 
7.277600e+00 1.132964e+01 
7.312860e+00 1.121806e+01 
7.348120e+00 1.110797e+01 
7.382790e+00 1.100115e+01 
7.417460e+00 1.089629e+01 
7.452720e+00 1.079135e+01 
7.487390e+00 1.068949e+01 
7.522650e+00 1.058723e+01 
7.557320e+00 1.048797e+01 
7.591990e+00 1.038996e+01 
7.627250e+00 1.029155e+01 
7.662510e+00 1.019440e+01 
7.697180e+00 1.010037e+01 
7.731850e+00 1.000762e+01 
7.766510e+00 9.916040e+00 
7.801180e+00 9.825569e+00 
7.836440e+00 9.734689e+00 
7.871110e+00 9.646428e+00 
7.906380e+00 9.557746e+00 
7.941040e+00 9.471667e+00 
7.976310e+00 9.385316e+00 
8.011570e+00 9.300253e+00 
8.046240e+00 9.217626e+00 
8.080900e+00 9.136011e+00 
8.115570e+00 9.055385e+00 
8.150830e+00 8.974519e+00 
8.185500e+00 8.895953e+00 
8.220770e+00 8.816977e+00 
8.255430e+00 8.740285e+00 
8.290100e+00 8.664624e+00 
8.324770e+00 8.589861e+00 
8.359430e+00 8.515986e+00 
8.394700e+00 8.441686e+00 
8.429960e+00 8.368369e+00 
8.464630e+00 8.297206e+00 
8.499890e+00 8.225666e+00 
8.534560e+00 8.156129e+00 
8.569200e+00 8.087439e+00 
