# Parameters:
# omega_b = 0.022744, omega_m = 0.143976, n_s = 0.966535, h = 55.708661, w = -1.000000, sigma_8 = 0.833858
# z = 0.500000
#
# k[1/Mpc] # P(k):
8.694000e-04 1.110363e+04 
2.077466e-03 2.376683e+04 
3.285532e-03 3.376674e+04 
4.493598e-03 4.155775e+04 
5.701664e-03 4.742660e+04 
6.909730e-03 5.166279e+04 
8.117797e-03 5.460620e+04 
9.325863e-03 5.643095e+04 
1.053393e-02 5.731589e+04 
1.174199e-02 5.743057e+04 
1.295006e-02 5.687963e+04 
1.415813e-02 5.581091e+04 
1.536619e-02 5.435483e+04 
1.657426e-02 5.260519e+04 
1.778233e-02 5.070861e+04 
1.899039e-02 4.888369e+04 
2.019846e-02 4.707522e+04 
2.140652e-02 4.519974e+04 
2.261459e-02 4.330159e+04 
2.382266e-02 4.145300e+04 
2.503072e-02 3.969116e+04 
2.623879e-02 3.803016e+04 
2.744685e-02 3.647282e+04 
2.865492e-02 3.502981e+04 
2.986299e-02 3.370019e+04 
3.100100e-02 3.254864e+04 
3.220400e-02 3.143338e+04 
3.288100e-02 3.084997e+04 
3.424300e-02 2.976612e+04 
3.555100e-02 2.882439e+04 
3.686000e-02 2.796883e+04 
3.795000e-02 2.731235e+04 
3.929100e-02 2.656714e+04 
4.039800e-02 2.599228e+04 
4.164000e-02 2.538228e+04 
4.294400e-02 2.476944e+04 
4.415000e-02 2.422360e+04 
4.542900e-02 2.365329e+04 
4.660900e-02 2.313682e+04 
4.782300e-02 2.259937e+04 
4.892900e-02 2.211137e+04 
5.031200e-02 2.149643e+04 
5.155900e-02 2.093452e+04 
5.238100e-02 2.056172e+04 
5.378200e-02 1.992410e+04 
5.513400e-02 1.930485e+04 
5.627600e-02 1.878099e+04 
5.735300e-02 1.828984e+04 
5.870100e-02 1.768189e+04 
5.988700e-02 1.715754e+04 
6.113500e-02 1.661847e+04 
6.225900e-02 1.614614e+04 
6.340100e-02 1.568171e+04 
6.480200e-02 1.513649e+04 
6.601100e-02 1.468933e+04 
6.725500e-02 1.425385e+04 
6.829100e-02 1.391239e+04 
6.958600e-02 1.351093e+04 
7.071100e-02 1.318693e+04 
7.192300e-02 1.286249e+04 
7.307400e-02 1.257734e+04 
7.412300e-02 1.233607e+04 
7.550400e-02 1.204584e+04 
7.663100e-02 1.182750e+04 
7.791200e-02 1.160197e+04 
7.912700e-02 1.140627e+04 
8.027600e-02 1.123344e+04 
8.138400e-02 1.107592e+04 
8.272200e-02 1.089560e+04 
8.406100e-02 1.072260e+04 
8.534100e-02 1.056030e+04 
8.653800e-02 1.040824e+04 
8.759800e-02 1.027300e+04 
8.900300e-02 1.009101e+04 
9.009000e-02 9.946381e+03 
9.113300e-02 9.803217e+03 
9.239600e-02 9.627731e+03 
9.358000e-02 9.459329e+03 
9.496100e-02 9.257475e+03 
9.608400e-02 9.092673e+03 
9.727500e-02 8.918560e+03 
9.852600e-02 8.733420e+03 
9.973800e-02 8.557572e+03 
1.009000e-01 8.392337e+03 
1.020900e-01 8.226456e+03 
1.034000e-01 8.049797e+03 
1.046000e-01 7.893374e+03 
1.057200e-01 7.753733e+03 
1.069100e-01 7.610506e+03 
1.082500e-01 7.457455e+03 
1.093900e-01 7.333690e+03 
1.105400e-01 7.213667e+03 
1.116900e-01 7.100919e+03 
1.129600e-01 6.981242e+03 
1.142000e-01 6.871588e+03 
1.153300e-01 6.775837e+03 
1.166400e-01 6.670226e+03 
1.177800e-01 6.583016e+03 
1.190000e-01 6.493053e+03 
1.201200e-01 6.414446e+03 
1.213400e-01 6.331202e+03 
1.227100e-01 6.241973e+03 
1.238900e-01 6.167227e+03 
1.250700e-01 6.094673e+03 
1.263200e-01 6.019553e+03 
1.275500e-01 5.947239e+03 
1.287500e-01 5.877919e+03 
1.299900e-01 5.807304e+03 
1.311300e-01 5.743135e+03 
1.323500e-01 5.674923e+03 
1.335900e-01 5.606263e+03 
1.347100e-01 5.544399e+03 
1.359800e-01 5.474927e+03 
1.372100e-01 5.407474e+03 
1.384300e-01 5.341358e+03 
1.395700e-01 5.279266e+03 
1.407700e-01 5.215062e+03 
1.420300e-01 5.147174e+03 
1.432800e-01 5.081290e+03 
1.444500e-01 5.019639e+03 
1.456300e-01 4.958713e+03 
1.468900e-01 4.894586e+03 
1.480500e-01 4.836629e+03 
1.491700e-01 4.781827e+03 
1.503800e-01 4.723878e+03 
1.516400e-01 4.664915e+03 
1.528200e-01 4.611470e+03 
1.540200e-01 4.558166e+03 
1.551900e-01 4.508099e+03 
1.564300e-01 4.456274e+03 
1.576600e-01 4.406408e+03 
1.588700e-01 4.358939e+03 
1.600900e-01 4.312032e+03 
1.612700e-01 4.268547e+03 
1.625400e-01 4.222613e+03 
1.637600e-01 4.179787e+03 
1.649500e-01 4.139042e+03 
1.662200e-01 4.096419e+03 
1.674000e-01 4.057920e+03 
1.685000e-01 4.022627e+03 
1.697500e-01 3.983230e+03 
1.710300e-01 3.943648e+03 
1.722200e-01 3.907496e+03 
1.734400e-01 3.870895e+03 
1.746400e-01 3.835498e+03 
1.758700e-01 3.799727e+03 
1.770900e-01 3.764636e+03 
1.782700e-01 3.731256e+03 
1.794600e-01 3.697958e+03 
1.807000e-01 3.663713e+03 
1.819100e-01 3.630849e+03 
1.830100e-01 3.601239e+03 
1.842200e-01 3.569135e+03 
1.855000e-01 3.535730e+03 
1.867000e-01 3.504802e+03 
1.879200e-01 3.473856e+03 
1.890900e-01 3.444640e+03 
1.902800e-01 3.415377e+03 
1.915200e-01 3.385360e+03 
1.926900e-01 3.357488e+03 
1.939000e-01 3.329150e+03 
1.951700e-01 3.299872e+03 
1.963100e-01 3.274028e+03 
1.975100e-01 3.247330e+03 
1.987800e-01 3.219507e+03 
2.000100e-01 3.193020e+03 
2.012500e-01 3.166829e+03 
2.023400e-01 3.144131e+03 
2.036100e-01 3.118089e+03 
2.048900e-01 3.092351e+03 
2.060400e-01 3.069561e+03 
2.072200e-01 3.046504e+03 
2.084200e-01 3.023432e+03 
2.096900e-01 2.999368e+03 
2.109200e-01 2.976400e+03 
2.121100e-01 2.954438e+03 
2.132700e-01 2.933317e+03 
2.145200e-01 2.910870e+03 
2.157200e-01 2.889521e+03 
2.168800e-01 2.869112e+03 
2.180700e-01 2.848453e+03 
2.193400e-01 2.826592e+03 
2.206000e-01 2.804997e+03 
2.217500e-01 2.785549e+03 
2.229500e-01 2.765519e+03 
2.241400e-01 2.745533e+03 
2.253500e-01 2.725468e+03 
2.264900e-01 2.706804e+03 
2.277100e-01 2.686827e+03 
2.289900e-01 2.665862e+03 
2.301500e-01 2.647111e+03 
2.313600e-01 2.627795e+03 
2.325600e-01 2.608353e+03 
2.337700e-01 2.588999e+03 
2.350000e-01 2.569578e+03 
2.362000e-01 2.550658e+03 
2.374100e-01 2.531565e+03 
2.386500e-01 2.512249e+03 
2.399100e-01 2.492876e+03 
2.410400e-01 2.475449e+03 
2.422500e-01 2.456979e+03 
2.435000e-01 2.438139e+03 
2.447300e-01 2.419810e+03 
2.458700e-01 2.402924e+03 
2.470600e-01 2.385506e+03 
2.483300e-01 2.367147e+03 
2.495600e-01 2.349640e+03 
2.507600e-01 2.332834e+03 
2.519600e-01 2.316229e+03 
2.532200e-01 2.299005e+03 
2.543700e-01 2.283639e+03 
2.555500e-01 2.268166e+03 
2.568000e-01 2.251967e+03 
2.580100e-01 2.236473e+03 
2.592400e-01 2.221205e+03 
2.604100e-01 2.206978e+03 
2.616100e-01 2.192550e+03 
2.628400e-01 2.177930e+03 
2.640600e-01 2.163932e+03 
2.652200e-01 2.150901e+03 
2.664300e-01 2.137458e+03 
2.676500e-01 2.124055e+03 
2.688400e-01 2.111396e+03 
2.700700e-01 2.098623e+03 
2.712400e-01 2.086606e+03 
2.724800e-01 2.074008e+03 
2.736700e-01 2.062210e+03 
2.748800e-01 2.050508e+03 
2.761000e-01 2.038836e+03 
2.773200e-01 2.027290e+03 
2.785400e-01 2.015948e+03 
2.797000e-01 2.005443e+03 
2.808900e-01 1.994776e+03 
2.821400e-01 1.983690e+03 
2.833900e-01 1.972730e+03 
2.845500e-01 1.962803e+03 
2.857800e-01 1.952384e+03 
2.870300e-01 1.941909e+03 
2.882100e-01 1.932122e+03 
2.893900e-01 1.922487e+03 
2.906300e-01 1.912495e+03 
2.918900e-01 1.902449e+03 
2.930500e-01 1.893293e+03 
2.942500e-01 1.883923e+03 
2.954200e-01 1.874905e+03 
2.966500e-01 1.865518e+03 
2.978900e-01 1.856151e+03 
2.990400e-01 1.847548e+03 
3.002700e-01 1.838452e+03 
3.015100e-01 1.829380e+03 
3.026800e-01 1.820904e+03 
3.038500e-01 1.812508e+03 
3.050300e-01 1.804120e+03 
3.062600e-01 1.795470e+03 
3.075000e-01 1.786836e+03 
3.087000e-01 1.778561e+03 
3.099100e-01 1.770296e+03 
3.111200e-01 1.762115e+03 
3.123100e-01 1.754152e+03 
3.135300e-01 1.746065e+03 
3.147300e-01 1.738186e+03 
3.159900e-01 1.729992e+03 
3.171800e-01 1.722332e+03 
3.183700e-01 1.714747e+03 
3.196300e-01 1.706791e+03 
3.208400e-01 1.699222e+03 
3.220300e-01 1.691847e+03 
3.232000e-01 1.684676e+03 
3.244300e-01 1.677212e+03 
3.256700e-01 1.669757e+03 
3.269200e-01 1.662313e+03 
3.280800e-01 1.655466e+03 
3.292500e-01 1.648637e+03 
3.304800e-01 1.641528e+03 
3.317100e-01 1.634483e+03 
3.328900e-01 1.627784e+03 
3.340700e-01 1.621144e+03 
3.353600e-01 1.613967e+03 
3.365300e-01 1.607523e+03 
3.377100e-01 1.601080e+03 
3.389200e-01 1.594530e+03 
3.401600e-01 1.587876e+03 
3.413700e-01 1.581453e+03 
3.425300e-01 1.575356e+03 
3.437700e-01 1.568894e+03 
3.449800e-01 1.562644e+03 
3.461800e-01 1.556498e+03 
3.473600e-01 1.550511e+03 
3.485800e-01 1.544390e+03 
3.498100e-01 1.538272e+03 
3.510200e-01 1.532305e+03 
3.522000e-01 1.526534e+03 
3.533900e-01 1.520762e+03 
3.546400e-01 1.514770e+03 
3.558400e-01 1.509068e+03 
3.570600e-01 1.503319e+03 
3.582700e-01 1.497664e+03 
3.595000e-01 1.491964e+03 
3.607100e-01 1.486414e+03 
3.618900e-01 1.481053e+03 
3.631200e-01 1.475511e+03 
3.643200e-01 1.470148e+03 
3.655500e-01 1.464696e+03 
3.667300e-01 1.459508e+03 
3.679500e-01 1.454203e+03 
3.691900e-01 1.448855e+03 
3.703600e-01 1.443850e+03 
3.715700e-01 1.438714e+03 
3.727700e-01 1.433661e+03 
3.739900e-01 1.428568e+03 
3.752000e-01 1.423560e+03 
3.763900e-01 1.418674e+03 
3.775800e-01 1.413826e+03 
3.788200e-01 1.408814e+03 
3.800300e-01 1.403962e+03 
3.812100e-01 1.399241e+03 
3.824200e-01 1.394419e+03 
3.836100e-01 1.389713e+03 
3.848600e-01 1.384809e+03 
3.860400e-01 1.380216e+03 
3.872400e-01 1.375580e+03 
3.884600e-01 1.370936e+03 
3.896500e-01 1.366454e+03 
3.908700e-01 1.361894e+03 
3.920600e-01 1.357480e+03 
3.933100e-01 1.352878e+03 
3.945300e-01 1.348422e+03 
3.957200e-01 1.344081e+03 
3.969300e-01 1.339691e+03 
3.981700e-01 1.335227e+03 
3.993500e-01 1.331011e+03 
4.094840e-01 1.295827e+03 
4.272360e-01 1.238963e+03 
4.454600e-01 1.185556e+03 
4.630560e-01 1.138131e+03 
4.804610e-01 1.094761e+03 
4.980690e-01 1.054208e+03 
5.159230e-01 1.016122e+03 
5.317440e-01 9.847983e+02 
5.489640e-01 9.528282e+02 
5.671990e-01 9.212978e+02 
5.838690e-01 8.944024e+02 
6.018840e-01 8.672749e+02 
6.202330e-01 8.414102e+02 
6.379250e-01 8.179422e+02 
6.545410e-01 7.971241e+02 
6.714560e-01 7.770611e+02 
6.892080e-01 7.570474e+02 
7.066010e-01 7.382874e+02 
7.240540e-01 7.203906e+02 
7.420450e-01 7.028478e+02 
7.593780e-01 6.864905e+02 
7.764720e-01 6.710406e+02 
7.942840e-01 6.556131e+02 
8.116170e-01 6.409907e+02 
8.288310e-01 6.270104e+02 
8.462240e-01 6.132860e+02 
8.631980e-01 6.003204e+02 
8.810700e-01 5.871143e+02 
8.989410e-01 5.743441e+02 
9.166330e-01 5.620263e+02 
9.345640e-01 5.498419e+02 
9.515980e-01 5.385951e+02 
9.688720e-01 5.275296e+02 
9.865640e-01 5.164745e+02 
1.031870e+00 4.894725e+02 
1.063490e+00 4.716672e+02 
1.097920e+00 4.531765e+02 
1.134370e+00 4.346551e+02 
1.167730e+00 4.184587e+02 
1.203830e+00 4.018165e+02 
1.240470e+00 3.858032e+02 
1.275790e+00 3.710674e+02 
1.309140e+00 3.578733e+02 
1.342970e+00 3.450364e+02 
1.378420e+00 3.322960e+02 
1.413200e+00 3.203420e+02 
1.448110e+00 3.089156e+02 
1.484090e+00 2.977136e+02 
1.518820e+00 2.874140e+02 
1.552880e+00 2.777239e+02 
1.588630e+00 2.680606e+02 
1.623230e+00 2.591363e+02 
1.657720e+00 2.506346e+02 
1.692450e+00 2.424952e+02 
1.726400e+00 2.348209e+02 
1.762200e+00 2.270853e+02 
1.797880e+00 2.197314e+02 
1.833270e+00 2.127555e+02 
1.869070e+00 2.060017e+02 
1.903200e+00 1.998495e+02 
1.937740e+00 1.938742e+02 
1.973190e+00 1.879918e+02 
2.007440e+00 1.825403e+02 
2.042160e+00 1.772344e+02 
2.077900e+00 1.719840e+02 
2.112390e+00 1.671479e+02 
2.146220e+00 1.625482e+02 
2.181600e+00 1.579471e+02 
2.216930e+00 1.535343e+02 
2.250760e+00 1.494597e+02 
2.286500e+00 1.453127e+02 
2.321770e+00 1.413812e+02 
2.355950e+00 1.377132e+02 
2.391280e+00 1.340485e+02 
2.426240e+00 1.305641e+02 
2.460670e+00 1.272525e+02 
2.495640e+00 1.239977e+02 
2.531080e+00 1.208332e+02 
2.566220e+00 1.177992e+02 
2.600830e+00 1.149135e+02 
2.635080e+00 1.121560e+02 
2.670340e+00 1.094042e+02 
2.705970e+00 1.067293e+02 
2.740040e+00 1.042594e+02 
2.774520e+00 1.018274e+02 
2.809730e+00 9.943221e+01 
2.844390e+00 9.715304e+01 
2.879960e+00 9.488723e+01 
2.914860e+00 9.273445e+01 
2.949410e+00 9.067125e+01 
2.984440e+00 8.864982e+01 
3.019760e+00 8.667040e+01 
3.054730e+00 8.476864e+01 
3.089030e+00 8.296315e+01 
3.124060e+00 8.117519e+01 
3.159560e+00 7.941897e+01 
3.194710e+00 7.773397e+01 
3.229010e+00 7.613774e+01 
3.263320e+00 7.458165e+01 
3.297930e+00 7.305838e+01 
3.332830e+00 7.156983e+01 
3.368040e+00 7.011007e+01 
3.403300e+00 6.868907e+01 
3.438450e+00 6.731146e+01 
3.473060e+00 6.599201e+01 
3.508440e+00 6.468763e+01 
3.543110e+00 6.344361e+01 
3.577470e+00 6.224128e+01 
3.613040e+00 6.103125e+01 
3.648120e+00 5.987439e+01 
3.682910e+00 5.875510e+01 
3.718050e+00 5.765041e+01 
3.753320e+00 5.657377e+01 
3.787980e+00 5.554781e+01 
3.822290e+00 5.455640e+01 
3.857020e+00 5.357609e+01 
3.891920e+00 5.261592e+01 
3.926650e+00 5.168506e+01 
3.961970e+00 5.076194e+01 
3.997360e+00 4.986084e+01 
4.031670e+00 4.900871e+01 
4.066330e+00 4.817105e+01 
4.101420e+00 4.734287e+01 
4.136200e+00 4.654225e+01 
4.170810e+00 4.576381e+01 
4.206250e+00 4.498790e+01 
4.241580e+00 4.423272e+01 
4.276300e+00 4.350772e+01 
4.310970e+00 4.280005e+01 
4.346120e+00 4.209980e+01 
4.380600e+00 4.143015e+01 
4.414730e+00 4.078153e+01 
4.450350e+00 4.011974e+01 
4.485320e+00 3.948416e+01 
4.519810e+00 3.887293e+01 
4.555430e+00 3.825614e+01 
4.590870e+00 3.765647e+01 
4.625480e+00 3.708490e+01 
4.659910e+00 3.652796e+01 
4.695230e+00 3.596896e+01 
4.729960e+00 3.543067e+01 
4.764450e+00 3.490702e+01 
4.799530e+00 3.438538e+01 
4.834910e+00 3.386993e+01 
4.869700e+00 3.337715e+01 
4.904370e+00 3.289636e+01 
4.939450e+00 3.241951e+01 
4.973940e+00 3.196005e+01 
5.008430e+00 3.150939e+01 
5.043810e+00 3.105625e+01 
5.078840e+00 3.061640e+01 
5.113500e+00 3.018944e+01 
5.148890e+00 2.976548e+01 
5.184210e+00 2.935053e+01 
5.219060e+00 2.894840e+01 
5.253660e+00 2.855549e+01 
5.288570e+00 2.816632e+01 
5.323420e+00 2.778659e+01 
5.358440e+00 2.741379e+01 
5.393590e+00 2.704638e+01 
5.428310e+00 2.669016e+01 
5.462800e+00 2.634265e+01 
5.497640e+00 2.599778e+01 
5.532670e+00 2.565944e+01 
5.567280e+00 2.533171e+01 
5.602000e+00 2.500861e+01 
5.637270e+00 2.468513e+01 
5.672410e+00 2.436821e+01 
5.707020e+00 2.406140e+01 
5.742040e+00 2.375853e+01 
5.777430e+00 2.345814e+01 
5.812210e+00 2.316789e+01 
5.846820e+00 2.288392e+01 
5.881610e+00 2.260320e+01 
5.916510e+00 2.232623e+01 
5.951600e+00 2.205328e+01 
5.986560e+00 2.178622e+01 
6.021830e+00 2.152118e+01 
6.056490e+00 2.126557e+01 
6.091160e+00 2.101449e+01 
6.125830e+00 2.076739e+01 
6.161090e+00 2.052009e+01 
6.195760e+00 2.028080e+01 
6.230420e+00 2.004532e+01 
6.265690e+00 1.980949e+01 
6.300950e+00 1.957858e+01 
6.335620e+00 1.935505e+01 
6.370880e+00 1.913120e+01 
6.405550e+00 1.891511e+01 
6.440220e+00 1.870254e+01 
6.475480e+00 1.848962e+01 
6.510150e+00 1.828373e+01 
6.544810e+00 1.808163e+01 
6.580080e+00 1.787905e+01 
6.614750e+00 1.768286e+01 
6.649410e+00 1.748968e+01 
6.684080e+00 1.729927e+01 
6.719340e+00 1.710845e+01 
6.754010e+00 1.692380e+01 
6.788680e+00 1.674234e+01 
6.823940e+00 1.656046e+01 
6.859800e+00 1.637817e+01 
6.894470e+00 1.620505e+01 
6.929140e+00 1.603457e+01 
6.963800e+00 1.586653e+01 
6.999070e+00 1.569794e+01 
7.033730e+00 1.553465e+01 
7.068400e+00 1.537356e+01 
7.103660e+00 1.521202e+01 
7.138330e+00 1.505581e+01 
7.173600e+00 1.489998e+01 
7.208260e+00 1.474895e+01 
7.243530e+00 1.459734e+01 
7.277600e+00 1.445257e+01 
7.312860e+00 1.430447e+01 
7.348120e+00 1.415838e+01 
7.382790e+00 1.401666e+01 
7.417460e+00 1.387761e+01 
7.452720e+00 1.373847e+01 
7.487390e+00 1.360347e+01 
7.522650e+00 1.346797e+01 
7.557320e+00 1.333651e+01 
7.591990e+00 1.320677e+01 
7.627250e+00 1.307653e+01 
7.662510e+00 1.294799e+01 
7.697180e+00 1.282363e+01 
7.731850e+00 1.270101e+01 
7.766510e+00 1.257998e+01 
7.801180e+00 1.246044e+01 
7.836440e+00 1.234042e+01 
7.871110e+00 1.222391e+01 
7.906380e+00 1.210688e+01 
7.941040e+00 1.199331e+01 
7.976310e+00 1.187942e+01 
8.011570e+00 1.176728e+01 
8.046240e+00 1.165837e+01 
8.080900e+00 1.155082e+01 
8.115570e+00 1.144461e+01 
8.150830e+00 1.133816e+01 
8.185500e+00 1.123475e+01 
8.220770e+00 1.113084e+01 
8.255430e+00 1.102995e+01 
8.290100e+00 1.093047e+01 
8.324770e+00 1.083221e+01 
8.359430e+00 1.073513e+01 
8.394700e+00 1.063752e+01 
8.429960e+00 1.054124e+01 
8.464630e+00 1.044784e+01 
8.499890e+00 1.035397e+01 
8.534560e+00 1.026275e+01 
8.569200e+00 1.017266e+01 
