# Parameters:
# omega_b = 0.022083, omega_m = 0.147559, n_s = 0.894094, h = 82.874016, w = -1.000000, sigma_8 = 0.778740
# z = 0.500000
#
# k[1/Mpc] # P(k):
8.694000e-04 8.626567e+03 
2.077466e-03 1.739395e+04 
3.285532e-03 2.398190e+04 
4.493598e-03 2.892114e+04 
5.701664e-03 3.251065e+04 
6.909730e-03 3.500183e+04 
8.117797e-03 3.665155e+04 
9.325863e-03 3.759246e+04 
1.053393e-02 3.795077e+04 
1.174199e-02 3.783910e+04 
1.295006e-02 3.733005e+04 
1.415813e-02 3.651958e+04 
1.536619e-02 3.548382e+04 
1.657426e-02 3.427248e+04 
1.778233e-02 3.288263e+04 
1.899039e-02 3.129691e+04 
2.019846e-02 2.964138e+04 
2.140652e-02 2.806633e+04 
2.261459e-02 2.658231e+04 
2.382266e-02 2.518696e+04 
2.503072e-02 2.388988e+04 
2.623879e-02 2.269588e+04 
2.744685e-02 2.160666e+04 
2.865492e-02 2.062298e+04 
2.986299e-02 1.974030e+04 
3.100100e-02 1.899923e+04 
3.220400e-02 1.830385e+04 
3.288100e-02 1.795160e+04 
3.424300e-02 1.731777e+04 
3.555100e-02 1.678990e+04 
3.686000e-02 1.633107e+04 
3.795000e-02 1.599176e+04 
3.929100e-02 1.562111e+04 
4.039800e-02 1.534114e+04 
4.164000e-02 1.504590e+04 
4.294400e-02 1.474432e+04 
4.415000e-02 1.446803e+04 
4.542900e-02 1.416235e+04 
4.660900e-02 1.387195e+04 
4.782300e-02 1.354589e+04 
4.892900e-02 1.323499e+04 
5.031200e-02 1.282116e+04 
5.155900e-02 1.242335e+04 
5.238100e-02 1.215159e+04 
5.378200e-02 1.167607e+04 
5.513400e-02 1.120548e+04 
5.627600e-02 1.080514e+04 
5.735300e-02 1.043123e+04 
5.870100e-02 9.973977e+03 
5.988700e-02 9.587362e+03 
6.113500e-02 9.199808e+03 
6.225900e-02 8.870994e+03 
6.340100e-02 8.559032e+03 
6.480200e-02 8.206341e+03 
6.601100e-02 7.931975e+03 
6.725500e-02 7.677418e+03 
6.829100e-02 7.488343e+03 
6.958600e-02 7.274752e+03 
7.071100e-02 7.111114e+03 
7.192300e-02 6.954020e+03 
7.307400e-02 6.821212e+03 
7.412300e-02 6.712191e+03 
7.550400e-02 6.584715e+03 
7.663100e-02 6.490038e+03 
7.791200e-02 6.392310e+03 
7.912700e-02 6.305467e+03 
8.027600e-02 6.226211e+03 
8.138400e-02 6.151230e+03 
8.272200e-02 6.061004e+03 
8.406100e-02 5.969515e+03 
8.534100e-02 5.878195e+03 
8.653800e-02 5.788696e+03 
8.759800e-02 5.707044e+03 
8.900300e-02 5.594444e+03 
9.009000e-02 5.503262e+03 
9.113300e-02 5.411963e+03 
9.239600e-02 5.299360e+03 
9.358000e-02 5.190687e+03 
9.496100e-02 5.059705e+03 
9.608400e-02 4.952485e+03 
9.727500e-02 4.839065e+03 
9.852600e-02 4.717848e+03 
9.973800e-02 4.602747e+03 
1.009000e-01 4.494661e+03 
1.020900e-01 4.386502e+03 
1.034000e-01 4.272024e+03 
1.046000e-01 4.171386e+03 
1.057200e-01 4.083330e+03 
1.069100e-01 3.993970e+03 
1.082500e-01 3.901311e+03 
1.093900e-01 3.828593e+03 
1.105400e-01 3.759383e+03 
1.116900e-01 3.697799e+03 
1.129600e-01 3.633671e+03 
1.142000e-01 3.578122e+03 
1.153300e-01 3.530783e+03 
1.166400e-01 3.480405e+03 
1.177800e-01 3.440026e+03 
1.190000e-01 3.398959e+03 
1.201200e-01 3.363438e+03 
1.213400e-01 3.325892e+03 
1.227100e-01 3.284669e+03 
1.238900e-01 3.249716e+03 
1.250700e-01 3.214316e+03 
1.263200e-01 3.176860e+03 
1.275500e-01 3.139015e+03 
1.287500e-01 3.101672e+03 
1.299900e-01 3.061954e+03 
1.311300e-01 3.024883e+03 
1.323500e-01 2.984022e+03 
1.335900e-01 2.942092e+03 
1.347100e-01 2.903269e+03 
1.359800e-01 2.859256e+03 
1.372100e-01 2.815681e+03 
1.384300e-01 2.772854e+03 
1.395700e-01 2.732302e+03 
1.407700e-01 2.690433e+03 
1.420300e-01 2.646298e+03 
1.432800e-01 2.603533e+03 
1.444500e-01 2.564185e+03 
1.456300e-01 2.525356e+03 
1.468900e-01 2.485420e+03 
1.480500e-01 2.449632e+03 
1.491700e-01 2.416400e+03 
1.503800e-01 2.382023e+03 
1.516400e-01 2.347358e+03 
1.528200e-01 2.317181e+03 
1.540200e-01 2.287101e+03 
1.551900e-01 2.259993e+03 
1.564300e-01 2.232221e+03 
1.576600e-01 2.206018e+03 
1.588700e-01 2.181701e+03 
1.600900e-01 2.157710e+03 
1.612700e-01 2.136132e+03 
1.625400e-01 2.113340e+03 
1.637600e-01 2.092178e+03 
1.649500e-01 2.072097e+03 
1.662200e-01 2.051033e+03 
1.674000e-01 2.031687e+03 
1.685000e-01 2.013953e+03 
1.697500e-01 1.993772e+03 
1.710300e-01 1.973114e+03 
1.722200e-01 1.954248e+03 
1.734400e-01 1.934233e+03 
1.746400e-01 1.914842e+03 
1.758700e-01 1.894969e+03 
1.770900e-01 1.874907e+03 
1.782700e-01 1.855831e+03 
1.794600e-01 1.836420e+03 
1.807000e-01 1.816206e+03 
1.819100e-01 1.796818e+03 
1.830100e-01 1.779092e+03 
1.842200e-01 1.759839e+03 
1.855000e-01 1.739816e+03 
1.867000e-01 1.721241e+03 
1.879200e-01 1.702667e+03 
1.890900e-01 1.685172e+03 
1.902800e-01 1.667808e+03 
1.915200e-01 1.650008e+03 
1.926900e-01 1.633563e+03 
1.939000e-01 1.617090e+03 
1.951700e-01 1.600079e+03 
1.963100e-01 1.585161e+03 
1.975100e-01 1.569998e+03 
1.987800e-01 1.554203e+03 
2.000100e-01 1.539261e+03 
2.012500e-01 1.524700e+03 
2.023400e-01 1.512085e+03 
2.036100e-01 1.497663e+03 
2.048900e-01 1.483602e+03 
2.060400e-01 1.471155e+03 
2.072200e-01 1.458577e+03 
2.084200e-01 1.446151e+03 
2.096900e-01 1.433192e+03 
2.109200e-01 1.420827e+03 
2.121100e-01 1.409142e+03 
2.132700e-01 1.397913e+03 
2.145200e-01 1.385982e+03 
2.157200e-01 1.374759e+03 
2.168800e-01 1.364090e+03 
2.180700e-01 1.353290e+03 
2.193400e-01 1.341976e+03 
2.206000e-01 1.331003e+03 
2.217500e-01 1.321123e+03 
2.229500e-01 1.310948e+03 
2.241400e-01 1.301192e+03 
2.253500e-01 1.291407e+03 
2.264900e-01 1.282306e+03 
2.277100e-01 1.272825e+03 
2.289900e-01 1.263159e+03 
2.301500e-01 1.254515e+03 
2.313600e-01 1.245614e+03 
2.325600e-01 1.237230e+03 
2.337700e-01 1.228883e+03 
2.350000e-01 1.220506e+03 
2.362000e-01 1.212589e+03 
2.374100e-01 1.204884e+03 
2.386500e-01 1.197088e+03 
2.399100e-01 1.189267e+03 
2.410400e-01 1.182564e+03 
2.422500e-01 1.175501e+03 
2.435000e-01 1.168293e+03 
2.447300e-01 1.161320e+03 
2.458700e-01 1.155055e+03 
2.470600e-01 1.148591e+03 
2.483300e-01 1.141776e+03 
2.495600e-01 1.135270e+03 
2.507600e-01 1.129018e+03 
2.519600e-01 1.122839e+03 
2.532200e-01 1.116428e+03 
2.543700e-01 1.110587e+03 
2.555500e-01 1.104621e+03 
2.568000e-01 1.098374e+03 
2.580100e-01 1.092398e+03 
2.592400e-01 1.086263e+03 
2.604100e-01 1.080435e+03 
2.616100e-01 1.074525e+03 
2.628400e-01 1.068535e+03 
2.640600e-01 1.062496e+03 
2.652200e-01 1.056753e+03 
2.664300e-01 1.050827e+03 
2.676500e-01 1.044919e+03 
2.688400e-01 1.039081e+03 
2.700700e-01 1.033027e+03 
2.712400e-01 1.027331e+03 
2.724800e-01 1.021359e+03 
2.736700e-01 1.015589e+03 
2.748800e-01 1.009680e+03 
2.761000e-01 1.003787e+03 
2.773200e-01 9.979581e+02 
2.785400e-01 9.921439e+02 
2.797000e-01 9.865742e+02 
2.808900e-01 9.809193e+02 
2.821400e-01 9.750424e+02 
2.833900e-01 9.692247e+02 
2.845500e-01 9.637832e+02 
2.857800e-01 9.580727e+02 
2.870300e-01 9.523311e+02 
2.882100e-01 9.469673e+02 
2.893900e-01 9.416124e+02 
2.906300e-01 9.360189e+02 
2.918900e-01 9.303952e+02 
2.930500e-01 9.252706e+02 
2.942500e-01 9.200126e+02 
2.954200e-01 9.149077e+02 
2.966500e-01 9.095947e+02 
2.978900e-01 9.042933e+02 
2.990400e-01 8.994252e+02 
3.002700e-01 8.942558e+02 
3.015100e-01 8.890907e+02 
3.026800e-01 8.842651e+02 
3.038500e-01 8.794853e+02 
3.050300e-01 8.747105e+02 
3.062600e-01 8.697744e+02 
3.075000e-01 8.648475e+02 
3.087000e-01 8.601261e+02 
3.099100e-01 8.554110e+02 
3.111200e-01 8.507430e+02 
3.123100e-01 8.461987e+02 
3.135300e-01 8.415840e+02 
3.147300e-01 8.370880e+02 
3.159900e-01 8.324127e+02 
3.171800e-01 8.280446e+02 
3.183700e-01 8.237204e+02 
3.196300e-01 8.191852e+02 
3.208400e-01 8.148713e+02 
3.220300e-01 8.106678e+02 
3.232000e-01 8.065848e+02 
3.244300e-01 8.023366e+02 
3.256700e-01 7.980939e+02 
3.269200e-01 7.938571e+02 
3.280800e-01 7.899610e+02 
3.292500e-01 7.860789e+02 
3.304800e-01 7.820384e+02 
3.317100e-01 7.780347e+02 
3.328900e-01 7.742282e+02 
3.340700e-01 7.704547e+02 
3.353600e-01 7.663844e+02 
3.365300e-01 7.627326e+02 
3.377100e-01 7.590812e+02 
3.389200e-01 7.553694e+02 
3.401600e-01 7.515993e+02 
3.413700e-01 7.479656e+02 
3.425300e-01 7.445206e+02 
3.437700e-01 7.408697e+02 
3.449800e-01 7.373381e+02 
3.461800e-01 7.338658e+02 
3.473600e-01 7.304870e+02 
3.485800e-01 7.270399e+02 
3.498100e-01 7.235944e+02 
3.510200e-01 7.202340e+02 
3.522000e-01 7.169842e+02 
3.533900e-01 7.137338e+02 
3.546400e-01 7.103721e+02 
3.558400e-01 7.071735e+02 
3.570600e-01 7.039487e+02 
3.582700e-01 7.007769e+02 
3.595000e-01 6.975796e+02 
3.607100e-01 6.944715e+02 
3.618900e-01 6.914736e+02 
3.631200e-01 6.883741e+02 
3.643200e-01 6.853750e+02 
3.655500e-01 6.823260e+02 
3.667300e-01 6.794246e+02 
3.679500e-01 6.764774e+02 
3.691900e-01 6.735064e+02 
3.703600e-01 6.707255e+02 
3.715700e-01 6.678721e+02 
3.727700e-01 6.650648e+02 
3.739900e-01 6.622370e+02 
3.752000e-01 6.594614e+02 
3.763900e-01 6.567530e+02 
3.775800e-01 6.540656e+02 
3.788200e-01 6.512872e+02 
3.800300e-01 6.485975e+02 
3.812100e-01 6.459942e+02 
3.824200e-01 6.433448e+02 
3.836100e-01 6.407592e+02 
3.848600e-01 6.380644e+02 
3.860400e-01 6.355400e+02 
3.872400e-01 6.329923e+02 
3.884600e-01 6.304470e+02 
3.896500e-01 6.279926e+02 
3.908700e-01 6.254953e+02 
3.920600e-01 6.230778e+02 
3.933100e-01 6.205577e+02 
3.945300e-01 6.181169e+02 
3.957200e-01 6.157532e+02 
3.969300e-01 6.133673e+02 
3.981700e-01 6.109407e+02 
3.993500e-01 6.086487e+02 
4.094840e-01 5.896042e+02 
4.272360e-01 5.591535e+02 
4.454600e-01 5.309028e+02 
4.630560e-01 5.061081e+02 
4.804610e-01 4.836436e+02 
4.980690e-01 4.627988e+02 
5.159230e-01 4.433313e+02 
5.317440e-01 4.273914e+02 
5.489640e-01 4.112178e+02 
5.671990e-01 3.953401e+02 
5.838690e-01 3.818841e+02 
6.018840e-01 3.683772e+02 
6.202330e-01 3.556340e+02 
6.379250e-01 3.441414e+02 
6.545410e-01 3.340770e+02 
6.714560e-01 3.244591e+02 
6.892080e-01 3.149843e+02 
7.066010e-01 3.062348e+02 
7.240540e-01 2.979817e+02 
7.420450e-01 2.900145e+02 
7.593780e-01 2.827049e+02 
7.764720e-01 2.758927e+02 
7.942840e-01 2.691737e+02 
8.116170e-01 2.629166e+02 
8.288310e-01 2.570301e+02 
8.462240e-01 2.513182e+02 
8.631980e-01 2.459945e+02 
8.810700e-01 2.406374e+02 
8.989410e-01 2.355177e+02 
9.166330e-01 2.306412e+02 
9.345640e-01 2.258661e+02 
9.515980e-01 2.215026e+02 
9.688720e-01 2.172496e+02 
9.865640e-01 2.130377e+02 
1.031870e+00 2.028648e+02 
1.063490e+00 1.962520e+02 
1.097920e+00 1.894407e+02 
1.134370e+00 1.826597e+02 
1.167730e+00 1.767540e+02 
1.203830e+00 1.707138e+02 
1.240470e+00 1.649007e+02 
1.275790e+00 1.595550e+02 
1.309140e+00 1.547618e+02 
1.342970e+00 1.500843e+02 
1.378420e+00 1.454319e+02 
1.413200e+00 1.410531e+02 
1.448110e+00 1.368487e+02 
1.484090e+00 1.327104e+02 
1.518820e+00 1.288796e+02 
1.552880e+00 1.252608e+02 
1.588630e+00 1.216274e+02 
1.623230e+00 1.182556e+02 
1.657720e+00 1.150229e+02 
1.692450e+00 1.119161e+02 
1.726400e+00 1.089643e+02 
1.762200e+00 1.059661e+02 
1.797880e+00 1.030996e+02 
1.833270e+00 1.003663e+02 
1.869070e+00 9.770015e+01 
1.903200e+00 9.525817e+01 
1.937740e+00 9.287135e+01 
1.973190e+00 9.050564e+01 
2.007440e+00 8.829922e+01 
2.042160e+00 8.614034e+01 
2.077900e+00 8.399052e+01 
2.112390e+00 8.199943e+01 
2.146220e+00 8.009098e+01 
2.181600e+00 7.817327e+01 
2.216930e+00 7.632229e+01 
2.250760e+00 7.460336e+01 
2.286500e+00 7.284404e+01 
2.321770e+00 7.116620e+01 
2.355950e+00 6.959272e+01 
2.391280e+00 6.801079e+01 
2.426240e+00 6.649874e+01 
2.460670e+00 6.505397e+01 
2.495640e+00 6.362638e+01 
2.531080e+00 6.223103e+01 
2.566220e+00 6.088538e+01 
2.600830e+00 5.959945e+01 
2.635080e+00 5.836540e+01 
2.670340e+00 5.712555e+01 
2.705970e+00 5.591506e+01 
2.740040e+00 5.479277e+01 
2.774520e+00 5.368180e+01 
2.809730e+00 5.258224e+01 
2.844390e+00 5.153179e+01 
2.879960e+00 5.048212e+01 
2.914860e+00 4.947963e+01 
2.949410e+00 4.851543e+01 
2.984440e+00 4.756620e+01 
3.019760e+00 4.663249e+01 
3.054730e+00 4.573231e+01 
3.089030e+00 4.487262e+01 
3.124060e+00 4.401859e+01 
3.159560e+00 4.317634e+01 
3.194710e+00 4.236446e+01 
3.229010e+00 4.159330e+01 
3.263320e+00 4.083713e+01 
3.297930e+00 4.009496e+01 
3.332830e+00 3.936670e+01 
3.368040e+00 3.864983e+01 
3.403300e+00 3.794981e+01 
3.438450e+00 3.726779e+01 
3.473060e+00 3.661319e+01 
3.508440e+00 3.596292e+01 
3.543110e+00 3.534157e+01 
3.577470e+00 3.473792e+01 
3.613040e+00 3.412917e+01 
3.648120e+00 3.354492e+01 
3.682910e+00 3.297815e+01 
3.718050e+00 3.241644e+01 
3.753320e+00 3.186768e+01 
3.787980e+00 3.134313e+01 
3.822290e+00 3.083487e+01 
3.857020e+00 3.033048e+01 
3.891920e+00 2.983530e+01 
3.926650e+00 2.935355e+01 
3.961970e+00 2.887482e+01 
3.997360e+00 2.840579e+01 
4.031670e+00 2.796156e+01 
4.066330e+00 2.752324e+01 
4.101420e+00 2.708946e+01 
4.136200e+00 2.666826e+01 
4.170810e+00 2.625838e+01 
4.206250e+00 2.584833e+01 
4.241580e+00 2.544869e+01 
4.276300e+00 2.506381e+01 
4.310970e+00 2.468733e+01 
4.346120e+00 2.431411e+01 
4.380600e+00 2.395625e+01 
4.414730e+00 2.360934e+01 
4.450350e+00 2.325391e+01 
4.485320e+00 2.291231e+01 
4.519810e+00 2.258287e+01 
4.555430e+00 2.224988e+01 
4.590870e+00 2.192566e+01 
4.625480e+00 2.161589e+01 
4.659910e+00 2.131385e+01 
4.695230e+00 2.100964e+01 
4.729960e+00 2.071638e+01 
4.764450e+00 2.043062e+01 
4.799530e+00 2.014529e+01 
4.834910e+00 1.986316e+01 
4.869700e+00 1.959277e+01 
4.904370e+00 1.932872e+01 
4.939450e+00 1.906649e+01 
4.973940e+00 1.881320e+01 
5.008430e+00 1.856461e+01 
5.043810e+00 1.831413e+01 
5.078840e+00 1.807064e+01 
5.113500e+00 1.783415e+01 
5.148890e+00 1.759877e+01 
5.184210e+00 1.736824e+01 
5.219060e+00 1.714459e+01 
5.253660e+00 1.692557e+01 
5.288570e+00 1.670852e+01 
5.323420e+00 1.649646e+01 
5.358440e+00 1.628798e+01 
5.393590e+00 1.608240e+01 
5.428310e+00 1.588275e+01 
5.462800e+00 1.568774e+01 
5.497640e+00 1.549413e+01 
5.532670e+00 1.530392e+01 
5.567280e+00 1.511953e+01 
5.602000e+00 1.493765e+01 
5.637270e+00 1.475518e+01 
5.672410e+00 1.457625e+01 
5.707020e+00 1.440296e+01 
5.742040e+00 1.423167e+01 
5.777430e+00 1.406169e+01 
5.812210e+00 1.389737e+01 
5.846820e+00 1.373634e+01 
5.881610e+00 1.357704e+01 
5.916510e+00 1.341979e+01 
5.951600e+00 1.326466e+01 
5.986560e+00 1.311276e+01 
6.021830e+00 1.296195e+01 
6.056490e+00 1.281637e+01 
6.091160e+00 1.267323e+01 
6.125830e+00 1.253231e+01 
6.161090e+00 1.239117e+01 
6.195760e+00 1.225445e+01 
6.230420e+00 1.211985e+01 
6.265690e+00 1.198499e+01 
6.300950e+00 1.185279e+01 
6.335620e+00 1.172476e+01 
6.370880e+00 1.159651e+01 
6.405550e+00 1.147260e+01 
6.440220e+00 1.135063e+01 
6.475480e+00 1.122842e+01 
6.510150e+00 1.111017e+01 
6.544810e+00 1.099401e+01 
6.580080e+00 1.087753e+01 
6.614750e+00 1.076468e+01 
6.649410e+00 1.065344e+01 
6.684080e+00 1.054374e+01 
6.719340e+00 1.043377e+01 
6.754010e+00 1.032730e+01 
6.788680e+00 1.022261e+01 
6.823940e+00 1.011764e+01 
6.859800e+00 1.001240e+01 
6.894470e+00 9.912384e+00 
6.929140e+00 9.813848e+00 
6.963800e+00 9.716683e+00 
6.999070e+00 9.619163e+00 
7.033730e+00 9.524629e+00 
7.068400e+00 9.431340e+00 
7.103660e+00 9.337747e+00 
7.138330e+00 9.247212e+00 
7.173600e+00 9.156868e+00 
7.208260e+00 9.069267e+00 
7.243530e+00 8.981304e+00 
7.277600e+00 8.897244e+00 
7.312860e+00 8.811198e+00 
7.348120e+00 8.726287e+00 
7.382790e+00 8.643887e+00 
7.417460e+00 8.563009e+00 
7.452720e+00 8.482056e+00 
7.487390e+00 8.403479e+00 
7.522650e+00 8.324585e+00 
7.557320e+00 8.248006e+00 
7.591990e+00 8.172391e+00 
7.627250e+00 8.096460e+00 
7.662510e+00 8.021492e+00 
7.697180e+00 7.948928e+00 
7.731850e+00 7.877347e+00 
7.766510e+00 7.806666e+00 
7.801180e+00 7.736831e+00 
7.836440e+00 7.666680e+00 
7.871110e+00 7.598549e+00 
7.906380e+00 7.530085e+00 
7.941040e+00 7.463623e+00 
7.976310e+00 7.396952e+00 
8.011570e+00 7.331279e+00 
8.046240e+00 7.267480e+00 
8.080900e+00 7.204455e+00 
8.115570e+00 7.142188e+00 
8.150830e+00 7.079738e+00 
8.185500e+00 7.019057e+00 
8.220770e+00 6.958052e+00 
8.255430e+00 6.898804e+00 
8.290100e+00 6.840359e+00 
8.324770e+00 6.782603e+00 
8.359430e+00 6.725526e+00 
8.394700e+00 6.668114e+00 
8.429960e+00 6.611462e+00 
8.464630e+00 6.556475e+00 
8.499890e+00 6.501189e+00 
8.534560e+00 6.447445e+00 
8.569200e+00 6.394349e+00 
