# Parameters:
# omega_b = 0.022492, omega_m = 0.129921, n_s = 0.936614, h = 81.220472, w = -1.000000, sigma_8 = 0.759843
# z = 0.500000
#
# k[1/Mpc] # P(k):
8.694000e-04 1.055944e+04 
2.077466e-03 2.178244e+04 
3.285532e-03 3.018180e+04 
4.493598e-03 3.635815e+04 
5.701664e-03 4.070816e+04 
6.909730e-03 4.358370e+04 
8.117797e-03 4.534303e+04 
9.325863e-03 4.617121e+04 
1.053393e-02 4.624310e+04 
1.174199e-02 4.571435e+04 
1.295006e-02 4.468656e+04 
1.415813e-02 4.329304e+04 
1.536619e-02 4.164163e+04 
1.657426e-02 3.980583e+04 
1.778233e-02 3.782236e+04 
1.899039e-02 3.573311e+04 
2.019846e-02 3.364209e+04 
2.140652e-02 3.166115e+04 
2.261459e-02 2.980793e+04 
2.382266e-02 2.809200e+04 
2.503072e-02 2.652347e+04 
2.623879e-02 2.510383e+04 
2.744685e-02 2.383307e+04 
2.865492e-02 2.270428e+04 
2.986299e-02 2.170723e+04 
3.100100e-02 2.088360e+04 
3.220400e-02 2.012132e+04 
3.288100e-02 1.973938e+04 
3.424300e-02 1.905727e+04 
3.555100e-02 1.849207e+04 
3.686000e-02 1.800047e+04 
3.795000e-02 1.763435e+04 
3.929100e-02 1.722725e+04 
4.039800e-02 1.691248e+04 
4.164000e-02 1.657280e+04 
4.294400e-02 1.621369e+04 
4.415000e-02 1.587839e+04 
4.542900e-02 1.550048e+04 
4.660900e-02 1.513930e+04 
4.782300e-02 1.473373e+04 
4.892900e-02 1.434925e+04 
5.031200e-02 1.384268e+04 
5.155900e-02 1.336275e+04 
5.238100e-02 1.303886e+04 
5.378200e-02 1.247931e+04 
5.513400e-02 1.193512e+04 
5.627600e-02 1.147924e+04 
5.735300e-02 1.105880e+04 
5.870100e-02 1.055138e+04 
5.988700e-02 1.012766e+04 
6.113500e-02 9.707850e+03 
6.225900e-02 9.355817e+03 
6.340100e-02 9.025376e+03 
6.480200e-02 8.655505e+03 
6.601100e-02 8.371558e+03 
6.725500e-02 8.111162e+03 
6.829100e-02 7.920318e+03 
6.958600e-02 7.706858e+03 
7.071100e-02 7.545550e+03 
7.192300e-02 7.392501e+03 
7.307400e-02 7.264532e+03 
7.412300e-02 7.160360e+03 
7.550400e-02 7.039322e+03 
7.663100e-02 6.949421e+03 
7.791200e-02 6.855643e+03 
7.912700e-02 6.770261e+03 
8.027600e-02 6.690119e+03 
8.138400e-02 6.612076e+03 
8.272200e-02 6.514767e+03 
8.406100e-02 6.412390e+03 
8.534100e-02 6.306193e+03 
8.653800e-02 6.199348e+03 
8.759800e-02 6.100557e+03 
8.900300e-02 5.962773e+03 
9.009000e-02 5.850506e+03 
9.113300e-02 5.738239e+03 
9.239600e-02 5.600324e+03 
9.358000e-02 5.468330e+03 
9.496100e-02 5.311847e+03 
9.608400e-02 5.185678e+03 
9.727500e-02 5.053830e+03 
9.852600e-02 4.917267e+03 
9.973800e-02 4.789727e+03 
1.009000e-01 4.671693e+03 
1.020900e-01 4.557760e+03 
1.034000e-01 4.439003e+03 
1.046000e-01 4.336490e+03 
1.057200e-01 4.249595e+03 
1.069100e-01 4.162300e+03 
1.082500e-01 4.074235e+03 
1.093900e-01 4.006285e+03 
1.105400e-01 3.942305e+03 
1.116900e-01 3.886481e+03 
1.129600e-01 3.828580e+03 
1.142000e-01 3.778727e+03 
1.153300e-01 3.735977e+03 
1.166400e-01 3.690071e+03 
1.177800e-01 3.652219e+03 
1.190000e-01 3.613207e+03 
1.201200e-01 3.577453e+03 
1.213400e-01 3.539291e+03 
1.227100e-01 3.494165e+03 
1.238900e-01 3.455289e+03 
1.250700e-01 3.413997e+03 
1.263200e-01 3.369771e+03 
1.275500e-01 3.323926e+03 
1.287500e-01 3.278466e+03 
1.299900e-01 3.229779e+03 
1.311300e-01 3.184574e+03 
1.323500e-01 3.135090e+03 
1.335900e-01 3.084935e+03 
1.347100e-01 3.039278e+03 
1.359800e-01 2.988214e+03 
1.372100e-01 2.938977e+03 
1.384300e-01 2.891206e+03 
1.395700e-01 2.847377e+03 
1.407700e-01 2.802316e+03 
1.420300e-01 2.756642e+03 
1.432800e-01 2.712383e+03 
1.444500e-01 2.673149e+03 
1.456300e-01 2.634418e+03 
1.468900e-01 2.595302e+03 
1.480500e-01 2.560451e+03 
1.491700e-01 2.528249e+03 
1.503800e-01 2.495150e+03 
1.516400e-01 2.461735e+03 
1.528200e-01 2.432555e+03 
1.540200e-01 2.403455e+03 
1.551900e-01 2.376838e+03 
1.564300e-01 2.349464e+03 
1.576600e-01 2.323313e+03 
1.588700e-01 2.298644e+03 
1.600900e-01 2.274263e+03 
1.612700e-01 2.251593e+03 
1.625400e-01 2.227645e+03 
1.637600e-01 2.205010e+03 
1.649500e-01 2.183293e+03 
1.662200e-01 2.160453e+03 
1.674000e-01 2.139135e+03 
1.685000e-01 2.119594e+03 
1.697500e-01 2.097307e+03 
1.710300e-01 2.074444e+03 
1.722200e-01 2.053567e+03 
1.734400e-01 2.031548e+03 
1.746400e-01 2.010225e+03 
1.758700e-01 1.988468e+03 
1.770900e-01 1.966692e+03 
1.782700e-01 1.945989e+03 
1.794600e-01 1.925114e+03 
1.807000e-01 1.903503e+03 
1.819100e-01 1.882777e+03 
1.830100e-01 1.864068e+03 
1.842200e-01 1.843788e+03 
1.855000e-01 1.822708e+03 
1.867000e-01 1.803385e+03 
1.879200e-01 1.784063e+03 
1.890900e-01 1.765888e+03 
1.902800e-01 1.747988e+03 
1.915200e-01 1.729636e+03 
1.926900e-01 1.712702e+03 
1.939000e-01 1.695809e+03 
1.951700e-01 1.678363e+03 
1.963100e-01 1.663069e+03 
1.975100e-01 1.647539e+03 
1.987800e-01 1.631361e+03 
2.000100e-01 1.616046e+03 
2.012500e-01 1.601097e+03 
2.023400e-01 1.588146e+03 
2.036100e-01 1.573323e+03 
2.048900e-01 1.558808e+03 
2.060400e-01 1.545958e+03 
2.072200e-01 1.532965e+03 
2.084200e-01 1.520035e+03 
2.096900e-01 1.506551e+03 
2.109200e-01 1.493684e+03 
2.121100e-01 1.481410e+03 
2.132700e-01 1.469609e+03 
2.145200e-01 1.457070e+03 
2.157200e-01 1.445182e+03 
2.168800e-01 1.433836e+03 
2.180700e-01 1.422353e+03 
2.193400e-01 1.410265e+03 
2.206000e-01 1.398435e+03 
2.217500e-01 1.387784e+03 
2.229500e-01 1.376816e+03 
2.241400e-01 1.366119e+03 
2.253500e-01 1.355388e+03 
2.264900e-01 1.345408e+03 
2.277100e-01 1.334913e+03 
2.289900e-01 1.324104e+03 
2.301500e-01 1.314437e+03 
2.313600e-01 1.304483e+03 
2.325600e-01 1.294897e+03 
2.337700e-01 1.285355e+03 
2.350000e-01 1.275779e+03 
2.362000e-01 1.266641e+03 
2.374100e-01 1.257643e+03 
2.386500e-01 1.248538e+03 
2.399100e-01 1.239406e+03 
2.410400e-01 1.231462e+03 
2.422500e-01 1.223075e+03 
2.435000e-01 1.214519e+03 
2.447300e-01 1.206230e+03 
2.458700e-01 1.198739e+03 
2.470600e-01 1.191011e+03 
2.483300e-01 1.182863e+03 
2.495600e-01 1.175102e+03 
2.507600e-01 1.167664e+03 
2.519600e-01 1.160313e+03 
2.532200e-01 1.152687e+03 
2.543700e-01 1.145811e+03 
2.555500e-01 1.138836e+03 
2.568000e-01 1.131532e+03 
2.580100e-01 1.124545e+03 
2.592400e-01 1.117494e+03 
2.604100e-01 1.110848e+03 
2.616100e-01 1.104107e+03 
2.628400e-01 1.097277e+03 
2.640600e-01 1.090524e+03 
2.652200e-01 1.084153e+03 
2.664300e-01 1.077580e+03 
2.676500e-01 1.071027e+03 
2.688400e-01 1.064652e+03 
2.700700e-01 1.058102e+03 
2.712400e-01 1.051939e+03 
2.724800e-01 1.045478e+03 
2.736700e-01 1.039299e+03 
2.748800e-01 1.033035e+03 
2.761000e-01 1.026788e+03 
2.773200e-01 1.020609e+03 
2.785400e-01 1.014474e+03 
2.797000e-01 1.008656e+03 
2.808900e-01 1.002748e+03 
2.821400e-01 9.966092e+02 
2.833900e-01 9.905344e+02 
2.845500e-01 9.849040e+02 
2.857800e-01 9.789955e+02 
2.870300e-01 9.730549e+02 
2.882100e-01 9.675053e+02 
2.893900e-01 9.619861e+02 
2.906300e-01 9.562322e+02 
2.918900e-01 9.504473e+02 
2.930500e-01 9.451759e+02 
2.942500e-01 9.397715e+02 
2.954200e-01 9.345376e+02 
2.966500e-01 9.290903e+02 
2.978900e-01 9.236551e+02 
2.990400e-01 9.186640e+02 
3.002700e-01 9.133704e+02 
3.015100e-01 9.080841e+02 
3.026800e-01 9.031453e+02 
3.038500e-01 8.982535e+02 
3.050300e-01 8.933668e+02 
3.062600e-01 8.883201e+02 
3.075000e-01 8.832829e+02 
3.087000e-01 8.784558e+02 
3.099100e-01 8.736352e+02 
3.111200e-01 8.688640e+02 
3.123100e-01 8.642215e+02 
3.135300e-01 8.595072e+02 
3.147300e-01 8.549141e+02 
3.159900e-01 8.501378e+02 
3.171800e-01 8.456768e+02 
3.183700e-01 8.412616e+02 
3.196300e-01 8.366309e+02 
3.208400e-01 8.322261e+02 
3.220300e-01 8.279341e+02 
3.232000e-01 8.237663e+02 
3.244300e-01 8.194303e+02 
3.256700e-01 8.150999e+02 
3.269200e-01 8.107756e+02 
3.280800e-01 8.067991e+02 
3.292500e-01 8.028380e+02 
3.304800e-01 7.987156e+02 
3.317100e-01 7.946310e+02 
3.328900e-01 7.907473e+02 
3.340700e-01 7.868974e+02 
3.353600e-01 7.827453e+02 
3.365300e-01 7.790203e+02 
3.377100e-01 7.752956e+02 
3.389200e-01 7.715094e+02 
3.401600e-01 7.676637e+02 
3.413700e-01 7.639575e+02 
3.425300e-01 7.604439e+02 
3.437700e-01 7.567202e+02 
3.449800e-01 7.531184e+02 
3.461800e-01 7.495769e+02 
3.473600e-01 7.461307e+02 
3.485800e-01 7.426146e+02 
3.498100e-01 7.391001e+02 
3.510200e-01 7.356724e+02 
3.522000e-01 7.323575e+02 
3.533900e-01 7.290421e+02 
3.546400e-01 7.256124e+02 
3.558400e-01 7.223490e+02 
3.570600e-01 7.190589e+02 
3.582700e-01 7.158229e+02 
3.595000e-01 7.125609e+02 
3.607100e-01 7.093894e+02 
3.618900e-01 7.063303e+02 
3.631200e-01 7.031675e+02 
3.643200e-01 7.001071e+02 
3.655500e-01 6.969958e+02 
3.667300e-01 6.940351e+02 
3.679500e-01 6.910263e+02 
3.691900e-01 6.879932e+02 
3.703600e-01 6.851542e+02 
3.715700e-01 6.822412e+02 
3.727700e-01 6.793752e+02 
3.739900e-01 6.764880e+02 
3.752000e-01 6.736537e+02 
3.763900e-01 6.708880e+02 
3.775800e-01 6.681436e+02 
3.788200e-01 6.653065e+02 
3.800300e-01 6.625598e+02 
3.812100e-01 6.599005e+02 
3.824200e-01 6.571936e+02 
3.836100e-01 6.545518e+02 
3.848600e-01 6.517984e+02 
3.860400e-01 6.492192e+02 
3.872400e-01 6.466161e+02 
3.884600e-01 6.440148e+02 
3.896500e-01 6.415062e+02 
3.908700e-01 6.389538e+02 
3.920600e-01 6.364828e+02 
3.933100e-01 6.339070e+02 
3.945300e-01 6.314123e+02 
3.957200e-01 6.289956e+02 
3.969300e-01 6.265559e+02 
3.981700e-01 6.240746e+02 
3.993500e-01 6.217309e+02 
4.094840e-01 6.022538e+02 
4.272360e-01 5.710980e+02 
4.454600e-01 5.421923e+02 
4.630560e-01 5.168234e+02 
4.804610e-01 4.938441e+02 
4.980690e-01 4.725259e+02 
5.159230e-01 4.526193e+02 
5.317440e-01 4.363205e+02 
5.489640e-01 4.197780e+02 
5.671990e-01 4.035353e+02 
5.838690e-01 3.897628e+02 
6.018840e-01 3.759320e+02 
6.202330e-01 3.628714e+02 
6.379250e-01 3.510901e+02 
6.545410e-01 3.407632e+02 
6.714560e-01 3.308899e+02 
6.892080e-01 3.211588e+02 
7.066010e-01 3.121679e+02 
7.240540e-01 3.036835e+02 
7.420450e-01 2.954913e+02 
7.593780e-01 2.879724e+02 
7.764720e-01 2.809637e+02 
7.942840e-01 2.740510e+02 
8.116170e-01 2.676135e+02 
8.288310e-01 2.615563e+02 
8.462240e-01 2.556808e+02 
8.631980e-01 2.502051e+02 
8.810700e-01 2.446964e+02 
8.989410e-01 2.394332e+02 
9.166330e-01 2.344211e+02 
9.345640e-01 2.295157e+02 
9.515980e-01 2.250351e+02 
9.688720e-01 2.206693e+02 
9.865640e-01 2.163482e+02 
1.031870e+00 2.059186e+02 
1.063490e+00 1.991454e+02 
1.097920e+00 1.921759e+02 
1.134370e+00 1.852430e+02 
1.167730e+00 1.792108e+02 
1.203830e+00 1.730462e+02 
1.240470e+00 1.671183e+02 
1.275790e+00 1.616714e+02 
1.309140e+00 1.567906e+02 
1.342970e+00 1.520314e+02 
1.378420e+00 1.473003e+02 
1.413200e+00 1.428493e+02 
1.448110e+00 1.385783e+02 
1.484090e+00 1.343759e+02 
1.518820e+00 1.304885e+02 
1.552880e+00 1.268171e+02 
1.588630e+00 1.231328e+02 
1.623230e+00 1.197144e+02 
1.657720e+00 1.164384e+02 
1.692450e+00 1.132904e+02 
1.726400e+00 1.103003e+02 
1.762200e+00 1.072645e+02 
1.797880e+00 1.043626e+02 
1.833270e+00 1.015958e+02 
1.869070e+00 9.889756e+01 
1.903200e+00 9.642658e+01 
1.937740e+00 9.401196e+01 
1.973190e+00 9.161907e+01 
2.007440e+00 8.938751e+01 
2.042160e+00 8.720412e+01 
2.077900e+00 8.503009e+01 
2.112390e+00 8.301702e+01 
2.146220e+00 8.108758e+01 
2.181600e+00 7.914879e+01 
2.216930e+00 7.727769e+01 
2.250760e+00 7.554018e+01 
2.286500e+00 7.376193e+01 
2.321770e+00 7.206614e+01 
2.355950e+00 7.047585e+01 
2.391280e+00 6.887704e+01 
2.426240e+00 6.734892e+01 
2.460670e+00 6.588882e+01 
2.495640e+00 6.444606e+01 
2.531080e+00 6.303588e+01 
2.566220e+00 6.167600e+01 
2.600830e+00 6.037650e+01 
2.635080e+00 5.912940e+01 
2.670340e+00 5.787641e+01 
2.705970e+00 5.665310e+01 
2.740040e+00 5.551894e+01 
2.774520e+00 5.439611e+01 
2.809730e+00 5.328481e+01 
2.844390e+00 5.222314e+01 
2.879960e+00 5.116223e+01 
2.914860e+00 5.014895e+01 
2.949410e+00 4.917433e+01 
2.984440e+00 4.821485e+01 
3.019760e+00 4.727103e+01 
3.054730e+00 4.636108e+01 
3.089030e+00 4.549195e+01 
3.124060e+00 4.462853e+01 
3.159560e+00 4.377702e+01 
3.194710e+00 4.295617e+01 
3.229010e+00 4.217645e+01 
3.263320e+00 4.141184e+01 
3.297930e+00 4.066136e+01 
3.332830e+00 3.992490e+01 
3.368040e+00 3.919991e+01 
3.403300e+00 3.849193e+01 
3.438450e+00 3.780211e+01 
3.473060e+00 3.714000e+01 
3.508440e+00 3.648224e+01 
3.543110e+00 3.585370e+01 
3.577470e+00 3.524298e+01 
3.613040e+00 3.462707e+01 
3.648120e+00 3.403597e+01 
3.682910e+00 3.346250e+01 
3.718050e+00 3.289410e+01 
3.753320e+00 3.233877e+01 
3.787980e+00 3.180793e+01 
3.822290e+00 3.129353e+01 
3.857020e+00 3.078301e+01 
3.891920e+00 3.028179e+01 
3.926650e+00 2.979414e+01 
3.961970e+00 2.930953e+01 
3.997360e+00 2.883467e+01 
4.031670e+00 2.838491e+01 
4.066330e+00 2.794109e+01 
4.101420e+00 2.750185e+01 
4.136200e+00 2.707531e+01 
4.170810e+00 2.666022e+01 
4.206250e+00 2.624494e+01 
4.241580e+00 2.584018e+01 
4.276300e+00 2.545034e+01 
4.310970e+00 2.506898e+01 
4.346120e+00 2.469090e+01 
4.380600e+00 2.432835e+01 
4.414730e+00 2.397689e+01 
4.450350e+00 2.361676e+01 
4.485320e+00 2.327064e+01 
4.519810e+00 2.293680e+01 
4.555430e+00 2.259935e+01 
4.590870e+00 2.227076e+01 
4.625480e+00 2.195681e+01 
4.659910e+00 2.165069e+01 
4.695230e+00 2.134232e+01 
4.729960e+00 2.104505e+01 
4.764450e+00 2.075537e+01 
4.799530e+00 2.046610e+01 
4.834910e+00 2.018008e+01 
4.869700e+00 1.990593e+01 
4.904370e+00 1.963819e+01 
4.939450e+00 1.937228e+01 
4.973940e+00 1.911541e+01 
5.008430e+00 1.886331e+01 
5.043810e+00 1.860928e+01 
5.078840e+00 1.836232e+01 
5.113500e+00 1.812247e+01 
5.148890e+00 1.788371e+01 
5.184210e+00 1.764987e+01 
5.219060e+00 1.742299e+01 
5.253660e+00 1.720079e+01 
5.288570e+00 1.698058e+01 
5.323420e+00 1.676542e+01 
5.358440e+00 1.655388e+01 
5.393590e+00 1.634529e+01 
5.428310e+00 1.614269e+01 
5.462800e+00 1.594480e+01 
5.497640e+00 1.574832e+01 
5.532670e+00 1.555527e+01 
5.567280e+00 1.536813e+01 
5.602000e+00 1.518353e+01 
5.637270e+00 1.499832e+01 
5.672410e+00 1.481670e+01 
5.707020e+00 1.464079e+01 
5.742040e+00 1.446692e+01 
5.777430e+00 1.429435e+01 
5.812210e+00 1.412754e+01 
5.846820e+00 1.396405e+01 
5.881610e+00 1.380231e+01 
5.916510e+00 1.364265e+01 
5.951600e+00 1.348513e+01 
5.986560e+00 1.333088e+01 
6.021830e+00 1.317774e+01 
6.056490e+00 1.302990e+01 
6.091160e+00 1.288454e+01 
6.125830e+00 1.274142e+01 
6.161090e+00 1.259807e+01 
6.195760e+00 1.245921e+01 
6.230420e+00 1.232250e+01 
6.265690e+00 1.218553e+01 
6.300950e+00 1.205124e+01 
6.335620e+00 1.192118e+01 
6.370880e+00 1.179090e+01 
6.405550e+00 1.166502e+01 
6.440220e+00 1.154111e+01 
6.475480e+00 1.141696e+01 
6.510150e+00 1.129683e+01 
6.544810e+00 1.117882e+01 
6.580080e+00 1.106046e+01 
6.614750e+00 1.094581e+01 
6.649410e+00 1.083278e+01 
6.684080e+00 1.072131e+01 
6.719340e+00 1.060956e+01 
6.754010e+00 1.050137e+01 
6.788680e+00 1.039498e+01 
6.823940e+00 1.028831e+01 
6.859800e+00 1.018135e+01 
6.894470e+00 1.007970e+01 
6.929140e+00 9.979559e+00 
6.963800e+00 9.880807e+00 
6.999070e+00 9.781692e+00 
7.033730e+00 9.685611e+00 
7.068400e+00 9.590795e+00 
7.103660e+00 9.495669e+00 
7.138330e+00 9.403647e+00 
7.173600e+00 9.311809e+00 
7.208260e+00 9.222760e+00 
7.243530e+00 9.133342e+00 
7.277600e+00 9.047887e+00 
7.312860e+00 8.960407e+00 
7.348120e+00 8.874083e+00 
7.382790e+00 8.790310e+00 
7.417460e+00 8.708085e+00 
7.452720e+00 8.625784e+00 
7.487390e+00 8.545899e+00 
7.522650e+00 8.465693e+00 
7.557320e+00 8.387828e+00 
7.591990e+00 8.310942e+00 
7.627250e+00 8.233734e+00 
7.662510e+00 8.157504e+00 
7.697180e+00 8.083718e+00 
7.731850e+00 8.010932e+00 
7.766510e+00 7.939061e+00 
7.801180e+00 7.868049e+00 
7.836440e+00 7.796712e+00 
7.871110e+00 7.727425e+00 
7.906380e+00 7.657799e+00 
7.941040e+00 7.590210e+00 
7.976310e+00 7.522407e+00 
8.011570e+00 7.455618e+00 
8.046240e+00 7.390734e+00 
8.080900e+00 7.326637e+00 
8.115570e+00 7.263310e+00 
8.150830e+00 7.199793e+00 
8.185500e+00 7.138075e+00 
8.220770e+00 7.076027e+00 
8.255430e+00 7.015767e+00 
8.290100e+00 6.956322e+00 
8.324770e+00 6.897579e+00 
8.359430e+00 6.839526e+00 
8.394700e+00 6.781132e+00 
8.429960e+00 6.723507e+00 
8.464630e+00 6.667571e+00 
8.499890e+00 6.611331e+00 
8.534560e+00 6.556660e+00 
8.569200e+00 6.502648e+00 
