# Parameters:
# omega_b = 0.022760, omega_m = 0.142874, n_s = 0.946063, h = 73.188976, w = -1.000000, sigma_8 = 0.876378
# z = 0.500000
#
# k[1/Mpc] # P(k):
8.694000e-04 1.084377e+04 
2.077466e-03 2.280738e+04 
3.285532e-03 3.204689e+04 
4.493598e-03 3.912193e+04 
5.701664e-03 4.434319e+04 
6.909730e-03 4.802907e+04 
8.117797e-03 5.052682e+04 
9.325863e-03 5.201218e+04 
1.053393e-02 5.265420e+04 
1.174199e-02 5.260535e+04 
1.295006e-02 5.196601e+04 
1.415813e-02 5.087363e+04 
1.536619e-02 4.944116e+04 
1.657426e-02 4.774295e+04 
1.778233e-02 4.580865e+04 
1.899039e-02 4.370092e+04 
2.019846e-02 4.155761e+04 
2.140652e-02 3.949694e+04 
2.261459e-02 3.752921e+04 
2.382266e-02 3.566876e+04 
2.503072e-02 3.393449e+04 
2.623879e-02 3.233456e+04 
2.744685e-02 3.087178e+04 
2.865492e-02 2.954749e+04 
2.986299e-02 2.835564e+04 
3.100100e-02 2.735062e+04 
3.220400e-02 2.640212e+04 
3.288100e-02 2.591812e+04 
3.424300e-02 2.503922e+04 
3.555100e-02 2.429636e+04 
3.686000e-02 2.363859e+04 
3.795000e-02 2.314288e+04 
3.929100e-02 2.258789e+04 
4.039800e-02 2.216015e+04 
4.164000e-02 2.170280e+04 
4.294400e-02 2.123095e+04 
4.415000e-02 2.079939e+04 
4.542900e-02 2.032782e+04 
4.660900e-02 1.988623e+04 
4.782300e-02 1.940344e+04 
4.892900e-02 1.895192e+04 
5.031200e-02 1.836460e+04 
5.155900e-02 1.781300e+04 
5.238100e-02 1.744178e+04 
5.378200e-02 1.680053e+04 
5.513400e-02 1.617450e+04 
5.627600e-02 1.564634e+04 
5.735300e-02 1.515498e+04 
5.870100e-02 1.455484e+04 
5.988700e-02 1.404647e+04 
6.113500e-02 1.353474e+04 
6.225900e-02 1.309764e+04 
6.340100e-02 1.267927e+04 
6.480200e-02 1.220139e+04 
6.601100e-02 1.182391e+04 
6.725500e-02 1.146842e+04 
6.829100e-02 1.119973e+04 
6.958600e-02 1.089202e+04 
7.071100e-02 1.065191e+04 
7.192300e-02 1.041784e+04 
7.307400e-02 1.021700e+04 
7.412300e-02 1.005013e+04 
7.550400e-02 9.852629e+03 
7.663100e-02 9.704954e+03 
7.791200e-02 9.551928e+03 
7.912700e-02 9.416467e+03 
8.027600e-02 9.293599e+03 
8.138400e-02 9.178195e+03 
8.272200e-02 9.040615e+03 
8.406100e-02 8.902383e+03 
8.534100e-02 8.765612e+03 
8.653800e-02 8.632242e+03 
8.759800e-02 8.510871e+03 
8.900300e-02 8.343893e+03 
9.009000e-02 8.208964e+03 
9.113300e-02 8.074276e+03 
9.239600e-02 7.908619e+03 
9.358000e-02 7.749452e+03 
9.496100e-02 7.559225e+03 
9.608400e-02 7.404621e+03 
9.727500e-02 7.241960e+03 
9.852600e-02 7.070912e+03 
9.973800e-02 6.909683e+03 
1.009000e-01 6.759221e+03 
1.020900e-01 6.611022e+03 
1.034000e-01 6.454896e+03 
1.046000e-01 6.318421e+03 
1.057200e-01 6.199839e+03 
1.069100e-01 6.079533e+03 
1.082500e-01 5.954838e+03 
1.093900e-01 5.856484e+03 
1.105400e-01 5.762558e+03 
1.116900e-01 5.677685e+03 
1.129600e-01 5.588671e+03 
1.142000e-01 5.509710e+03 
1.153300e-01 5.441442e+03 
1.166400e-01 5.367232e+03 
1.177800e-01 5.306159e+03 
1.190000e-01 5.243259e+03 
1.201200e-01 5.187228e+03 
1.213400e-01 5.127697e+03 
1.227100e-01 5.060935e+03 
1.238900e-01 5.004235e+03 
1.250700e-01 4.946625e+03 
1.263200e-01 4.885891e+03 
1.275500e-01 4.825011e+03 
1.287500e-01 4.765506e+03 
1.299900e-01 4.703085e+03 
1.311300e-01 4.645594e+03 
1.323500e-01 4.583339e+03 
1.335900e-01 4.520342e+03 
1.347100e-01 4.463144e+03 
1.359800e-01 4.398994e+03 
1.372100e-01 4.336847e+03 
1.384300e-01 4.276236e+03 
1.395700e-01 4.219985e+03 
1.407700e-01 4.161982e+03 
1.420300e-01 4.102009e+03 
1.432800e-01 4.043837e+03 
1.444500e-01 3.990961e+03 
1.456300e-01 3.938726e+03 
1.468900e-01 3.884942e+03 
1.480500e-01 3.836691e+03 
1.491700e-01 3.791622e+03 
1.503800e-01 3.744669e+03 
1.516400e-01 3.697089e+03 
1.528200e-01 3.654793e+03 
1.540200e-01 3.612609e+03 
1.551900e-01 3.573542e+03 
1.564300e-01 3.533239e+03 
1.576600e-01 3.494612e+03 
1.588700e-01 3.458028e+03 
1.600900e-01 3.421873e+03 
1.612700e-01 3.388340e+03 
1.625400e-01 3.352918e+03 
1.637600e-01 3.319679e+03 
1.649500e-01 3.287929e+03 
1.662200e-01 3.254627e+03 
1.674000e-01 3.224057e+03 
1.685000e-01 3.196033e+03 
1.697500e-01 3.164401e+03 
1.710300e-01 3.132272e+03 
1.722200e-01 3.102928e+03 
1.734400e-01 3.072559e+03 
1.746400e-01 3.043165e+03 
1.758700e-01 3.013296e+03 
1.770900e-01 2.983658e+03 
1.782700e-01 2.955469e+03 
1.794600e-01 2.927169e+03 
1.807000e-01 2.897944e+03 
1.819100e-01 2.869903e+03 
1.830100e-01 2.844585e+03 
1.842200e-01 2.817131e+03 
1.855000e-01 2.788573e+03 
1.867000e-01 2.762247e+03 
1.879200e-01 2.735910e+03 
1.890900e-01 2.711089e+03 
1.902800e-01 2.686431e+03 
1.915200e-01 2.661143e+03 
1.926900e-01 2.637733e+03 
1.939000e-01 2.614154e+03 
1.951700e-01 2.589795e+03 
1.963100e-01 2.568367e+03 
1.975100e-01 2.546419e+03 
1.987800e-01 2.523548e+03 
2.000100e-01 2.501836e+03 
2.012500e-01 2.480507e+03 
2.023400e-01 2.462025e+03 
2.036100e-01 2.440845e+03 
2.048900e-01 2.420014e+03 
2.060400e-01 2.401570e+03 
2.072200e-01 2.382916e+03 
2.084200e-01 2.364316e+03 
2.096900e-01 2.344917e+03 
2.109200e-01 2.326402e+03 
2.121100e-01 2.308748e+03 
2.132700e-01 2.291773e+03 
2.145200e-01 2.273733e+03 
2.157200e-01 2.256640e+03 
2.168800e-01 2.240329e+03 
2.180700e-01 2.223818e+03 
2.193400e-01 2.206420e+03 
2.206000e-01 2.189369e+03 
2.217500e-01 2.174013e+03 
2.229500e-01 2.158198e+03 
2.241400e-01 2.142702e+03 
2.253500e-01 2.127151e+03 
2.264900e-01 2.112687e+03 
2.277100e-01 2.097399e+03 
2.289900e-01 2.081570e+03 
2.301500e-01 2.067411e+03 
2.313600e-01 2.052828e+03 
2.325600e-01 2.038593e+03 
2.337700e-01 2.024420e+03 
2.350000e-01 2.010198e+03 
2.362000e-01 1.996530e+03 
2.374100e-01 1.982959e+03 
2.386500e-01 1.969227e+03 
2.399100e-01 1.955452e+03 
2.410400e-01 1.943319e+03 
2.422500e-01 1.930491e+03 
2.435000e-01 1.917403e+03 
2.447300e-01 1.904700e+03 
2.458700e-01 1.893128e+03 
2.470600e-01 1.881189e+03 
2.483300e-01 1.868601e+03 
2.495600e-01 1.856597e+03 
2.507600e-01 1.845075e+03 
2.519600e-01 1.833688e+03 
2.532200e-01 1.821873e+03 
2.543700e-01 1.811248e+03 
2.555500e-01 1.800489e+03 
2.568000e-01 1.789223e+03 
2.580100e-01 1.778446e+03 
2.592400e-01 1.767648e+03 
2.604100e-01 1.757505e+03 
2.616100e-01 1.747218e+03 
2.628400e-01 1.736794e+03 
2.640600e-01 1.726589e+03 
2.652200e-01 1.716999e+03 
2.664300e-01 1.707105e+03 
2.676500e-01 1.697241e+03 
2.688400e-01 1.687732e+03 
2.700700e-01 1.678018e+03 
2.712400e-01 1.668877e+03 
2.724800e-01 1.659294e+03 
2.736700e-01 1.650186e+03 
2.748800e-01 1.641014e+03 
2.761000e-01 1.631866e+03 
2.773200e-01 1.622816e+03 
2.785400e-01 1.613859e+03 
2.797000e-01 1.605426e+03 
2.808900e-01 1.596862e+03 
2.821400e-01 1.587963e+03 
2.833900e-01 1.579158e+03 
2.845500e-01 1.571055e+03 
2.857800e-01 1.562550e+03 
2.870300e-01 1.553999e+03 
2.882100e-01 1.546009e+03 
2.893900e-01 1.538089e+03 
2.906300e-01 1.529845e+03 
2.918900e-01 1.521556e+03 
2.930500e-01 1.514001e+03 
2.942500e-01 1.506260e+03 
2.954200e-01 1.498776e+03 
2.966500e-01 1.490987e+03 
2.978900e-01 1.483213e+03 
2.990400e-01 1.476074e+03 
3.002700e-01 1.468510e+03 
3.015100e-01 1.460959e+03 
3.026800e-01 1.453903e+03 
3.038500e-01 1.446914e+03 
3.050300e-01 1.439932e+03 
3.062600e-01 1.432723e+03 
3.075000e-01 1.425528e+03 
3.087000e-01 1.418631e+03 
3.099100e-01 1.411743e+03 
3.111200e-01 1.404925e+03 
3.123100e-01 1.398287e+03 
3.135300e-01 1.391547e+03 
3.147300e-01 1.384979e+03 
3.159900e-01 1.378149e+03 
3.171800e-01 1.371765e+03 
3.183700e-01 1.365444e+03 
3.196300e-01 1.358814e+03 
3.208400e-01 1.352508e+03 
3.220300e-01 1.346362e+03 
3.232000e-01 1.340387e+03 
3.244300e-01 1.334170e+03 
3.256700e-01 1.327959e+03 
3.269200e-01 1.321758e+03 
3.280800e-01 1.316054e+03 
3.292500e-01 1.310366e+03 
3.304800e-01 1.304445e+03 
3.317100e-01 1.298578e+03 
3.328900e-01 1.292999e+03 
3.340700e-01 1.287468e+03 
3.353600e-01 1.281493e+03 
3.365300e-01 1.276129e+03 
3.377100e-01 1.270766e+03 
3.389200e-01 1.265313e+03 
3.401600e-01 1.259775e+03 
3.413700e-01 1.254430e+03 
3.425300e-01 1.249357e+03 
3.437700e-01 1.243981e+03 
3.449800e-01 1.238781e+03 
3.461800e-01 1.233667e+03 
3.473600e-01 1.228687e+03 
3.485800e-01 1.223597e+03 
3.498100e-01 1.218510e+03 
3.510200e-01 1.213547e+03 
3.522000e-01 1.208748e+03 
3.533900e-01 1.203948e+03 
3.546400e-01 1.198968e+03 
3.558400e-01 1.194228e+03 
3.570600e-01 1.189449e+03 
3.582700e-01 1.184749e+03 
3.595000e-01 1.180010e+03 
3.607100e-01 1.175398e+03 
3.618900e-01 1.170943e+03 
3.631200e-01 1.166338e+03 
3.643200e-01 1.161882e+03 
3.655500e-01 1.157351e+03 
3.667300e-01 1.153040e+03 
3.679500e-01 1.148638e+03 
3.691900e-01 1.144201e+03 
3.703600e-01 1.140047e+03 
3.715700e-01 1.135786e+03 
3.727700e-01 1.131593e+03 
3.739900e-01 1.127366e+03 
3.752000e-01 1.123212e+03 
3.763900e-01 1.119158e+03 
3.775800e-01 1.115136e+03 
3.788200e-01 1.110977e+03 
3.800300e-01 1.106951e+03 
3.812100e-01 1.103039e+03 
3.824200e-01 1.099047e+03 
3.836100e-01 1.095151e+03 
3.848600e-01 1.091091e+03 
3.860400e-01 1.087287e+03 
3.872400e-01 1.083448e+03 
3.884600e-01 1.079606e+03 
3.896500e-01 1.075898e+03 
3.908700e-01 1.072125e+03 
3.920600e-01 1.068473e+03 
3.933100e-01 1.064666e+03 
3.945300e-01 1.060979e+03 
3.957200e-01 1.057393e+03 
3.969300e-01 1.053769e+03 
3.981700e-01 1.050083e+03 
3.993500e-01 1.046602e+03 
4.094840e-01 1.017586e+03 
4.272360e-01 9.708484e+02 
4.454600e-01 9.271374e+02 
4.630560e-01 8.884783e+02 
4.804610e-01 8.532378e+02 
4.980690e-01 8.203700e+02 
5.159230e-01 7.895445e+02 
5.317440e-01 7.642161e+02 
5.489640e-01 7.383870e+02 
5.671990e-01 7.129249e+02 
5.838690e-01 6.912274e+02 
6.018840e-01 6.693517e+02 
6.202330e-01 6.485368e+02 
6.379250e-01 6.296770e+02 
6.545410e-01 6.129979e+02 
6.714560e-01 5.969589e+02 
6.892080e-01 5.810197e+02 
7.066010e-01 5.661480e+02 
7.240540e-01 5.520100e+02 
7.420450e-01 5.382267e+02 
7.593780e-01 5.254418e+02 
7.764720e-01 5.134222e+02 
7.942840e-01 5.014735e+02 
8.116170e-01 4.902182e+02 
8.288310e-01 4.795184e+02 
8.462240e-01 4.690613e+02 
8.631980e-01 4.592290e+02 
8.810700e-01 4.492590e+02 
8.989410e-01 4.396597e+02 
9.166330e-01 4.304412e+02 
9.345640e-01 4.213565e+02 
9.515980e-01 4.130013e+02 
9.688720e-01 4.048086e+02 
9.865640e-01 3.966506e+02 
1.031870e+00 3.768002e+02 
1.063490e+00 3.637734e+02 
1.097920e+00 3.502846e+02 
1.134370e+00 3.367985e+02 
1.167730e+00 3.250192e+02 
1.203830e+00 3.129305e+02 
1.240470e+00 3.012937e+02 
1.275790e+00 2.905822e+02 
1.309140e+00 2.809832e+02 
1.342970e+00 2.716300e+02 
1.378420e+00 2.623360e+02 
1.413200e+00 2.535999e+02 
1.448110e+00 2.452321e+02 
1.484090e+00 2.370122e+02 
1.518820e+00 2.294342e+02 
1.552880e+00 2.222878e+02 
1.588630e+00 2.151426e+02 
1.623230e+00 2.085277e+02 
1.657720e+00 2.022094e+02 
1.692450e+00 1.961480e+02 
1.726400e+00 1.904134e+02 
1.762200e+00 1.846155e+02 
1.797880e+00 1.790895e+02 
1.833270e+00 1.738344e+02 
1.869070e+00 1.687304e+02 
1.903200e+00 1.640697e+02 
1.937740e+00 1.595308e+02 
1.973190e+00 1.550494e+02 
2.007440e+00 1.508848e+02 
2.042160e+00 1.468212e+02 
2.077900e+00 1.427889e+02 
2.112390e+00 1.390666e+02 
2.146220e+00 1.355141e+02 
2.181600e+00 1.319531e+02 
2.216930e+00 1.285288e+02 
2.250760e+00 1.253587e+02 
2.286500e+00 1.221243e+02 
2.321770e+00 1.190504e+02 
2.355950e+00 1.161759e+02 
2.391280e+00 1.132957e+02 
2.426240e+00 1.105512e+02 
2.460670e+00 1.079367e+02 
2.495640e+00 1.053610e+02 
2.531080e+00 1.028508e+02 
2.566220e+00 1.004383e+02 
2.600830e+00 9.813893e+01 
2.635080e+00 9.593738e+01 
2.670340e+00 9.373404e+01 
2.705970e+00 9.158817e+01 
2.740040e+00 8.960320e+01 
2.774520e+00 8.764393e+01 
2.809730e+00 8.571023e+01 
2.844390e+00 8.386701e+01 
2.879960e+00 8.203050e+01 
2.914860e+00 8.028160e+01 
2.949410e+00 7.860278e+01 
2.984440e+00 7.695461e+01 
3.019760e+00 7.533741e+01 
3.054730e+00 7.378120e+01 
3.089030e+00 7.230004e+01 
3.124060e+00 7.083115e+01 
3.159560e+00 6.938577e+01 
3.194710e+00 6.799622e+01 
3.229010e+00 6.667825e+01 
3.263320e+00 6.539011e+01 
3.297930e+00 6.412764e+01 
3.332830e+00 6.289175e+01 
3.368040e+00 6.167768e+01 
3.403300e+00 6.049415e+01 
3.438450e+00 5.934431e+01 
3.473060e+00 5.824192e+01 
3.508440e+00 5.714984e+01 
3.543110e+00 5.610734e+01 
3.577470e+00 5.509747e+01 
3.613040e+00 5.408017e+01 
3.648120e+00 5.310599e+01 
3.682910e+00 5.216226e+01 
3.718050e+00 5.122907e+01 
3.753320e+00 5.031859e+01 
3.787980e+00 4.944983e+01 
3.822290e+00 4.860926e+01 
3.857020e+00 4.777671e+01 
3.891920e+00 4.696039e+01 
3.926650e+00 4.616778e+01 
3.961970e+00 4.538100e+01 
3.997360e+00 4.461169e+01 
4.031670e+00 4.388366e+01 
4.066330e+00 4.316679e+01 
4.101420e+00 4.245767e+01 
4.136200e+00 4.177082e+01 
4.170810e+00 4.110269e+01 
4.206250e+00 4.043562e+01 
4.241580e+00 3.978593e+01 
4.276300e+00 3.916131e+01 
4.310970e+00 3.855103e+01 
4.346120e+00 3.794661e+01 
4.380600e+00 3.736788e+01 
4.414730e+00 3.680708e+01 
4.450350e+00 3.623381e+01 
4.485320e+00 3.568303e+01 
4.519810e+00 3.515266e+01 
4.555430e+00 3.461704e+01 
4.590870e+00 3.409591e+01 
4.625480e+00 3.359863e+01 
4.659910e+00 3.311390e+01 
4.695230e+00 3.262660e+01 
4.729960e+00 3.215708e+01 
4.764450e+00 3.169996e+01 
4.799530e+00 3.124407e+01 
4.834910e+00 3.079343e+01 
4.869700e+00 3.036211e+01 
4.904370e+00 2.994107e+01 
4.939450e+00 2.952321e+01 
4.973940e+00 2.912010e+01 
5.008430e+00 2.872456e+01 
5.043810e+00 2.832645e+01 
5.078840e+00 2.793971e+01 
5.113500e+00 2.756420e+01 
5.148890e+00 2.719089e+01 
5.184210e+00 2.682539e+01 
5.219060e+00 2.647095e+01 
5.253660e+00 2.612423e+01 
5.288570e+00 2.578070e+01 
5.323420e+00 2.544528e+01 
5.358440e+00 2.511575e+01 
5.393590e+00 2.479089e+01 
5.428310e+00 2.447562e+01 
5.462800e+00 2.416785e+01 
5.497640e+00 2.386234e+01 
5.532670e+00 2.356239e+01 
5.567280e+00 2.327172e+01 
5.602000e+00 2.298506e+01 
5.637270e+00 2.269774e+01 
5.672410e+00 2.241610e+01 
5.707020e+00 2.214338e+01 
5.742040e+00 2.187395e+01 
5.777430e+00 2.160663e+01 
5.812210e+00 2.134826e+01 
5.846820e+00 2.109524e+01 
5.881610e+00 2.084501e+01 
5.916510e+00 2.059805e+01 
5.951600e+00 2.035450e+01 
5.986560e+00 2.011610e+01 
6.021830e+00 1.987944e+01 
6.056490e+00 1.965105e+01 
6.091160e+00 1.942659e+01 
6.125830e+00 1.920563e+01 
6.161090e+00 1.898438e+01 
6.195760e+00 1.877015e+01 
6.230420e+00 1.855926e+01 
6.265690e+00 1.834801e+01 
6.300950e+00 1.814098e+01 
6.335620e+00 1.794051e+01 
6.370880e+00 1.773972e+01 
6.405550e+00 1.754577e+01 
6.440220e+00 1.735489e+01 
6.475480e+00 1.716366e+01 
6.510150e+00 1.697866e+01 
6.544810e+00 1.679695e+01 
6.580080e+00 1.661476e+01 
6.614750e+00 1.643829e+01 
6.649410e+00 1.626437e+01 
6.684080e+00 1.609289e+01 
6.719340e+00 1.592100e+01 
6.754010e+00 1.575460e+01 
6.788680e+00 1.559098e+01 
6.823940e+00 1.542695e+01 
6.859800e+00 1.526251e+01 
6.894470e+00 1.510624e+01 
6.929140e+00 1.495230e+01 
6.963800e+00 1.480053e+01 
6.999070e+00 1.464822e+01 
7.033730e+00 1.450057e+01 
7.068400e+00 1.435489e+01 
7.103660e+00 1.420876e+01 
7.138330e+00 1.406740e+01 
7.173600e+00 1.392633e+01 
7.208260e+00 1.378955e+01 
7.243530e+00 1.365224e+01 
7.277600e+00 1.352102e+01 
7.312860e+00 1.338671e+01 
7.348120e+00 1.325420e+01 
7.382790e+00 1.312563e+01 
7.417460e+00 1.299941e+01 
7.452720e+00 1.287307e+01 
7.487390e+00 1.275047e+01 
7.522650e+00 1.262739e+01 
7.557320e+00 1.250789e+01 
7.591990e+00 1.238990e+01 
7.627250e+00 1.227144e+01 
7.662510e+00 1.215450e+01 
7.697180e+00 1.204130e+01 
7.731850e+00 1.192964e+01 
7.766510e+00 1.181940e+01 
7.801180e+00 1.171049e+01 
7.836440e+00 1.160109e+01 
7.871110e+00 1.149483e+01 
7.906380e+00 1.138807e+01 
7.941040e+00 1.128446e+01 
7.976310e+00 1.118050e+01 
8.011570e+00 1.107809e+01 
8.046240e+00 1.097861e+01 
8.080900e+00 1.088035e+01 
8.115570e+00 1.078329e+01 
8.150830e+00 1.068593e+01 
8.185500e+00 1.059134e+01 
8.220770e+00 1.049626e+01 
8.255430e+00 1.040394e+01 
8.290100e+00 1.031284e+01 
8.324770e+00 1.022283e+01 
8.359430e+00 1.013388e+01 
8.394700e+00 1.004444e+01 
8.429960e+00 9.956165e+00 
8.464630e+00 9.870480e+00 
8.499890e+00 9.784347e+00 
8.534560e+00 9.700631e+00 
8.569200e+00 9.617941e+00 
