# Parameters:
# omega_b = 0.022713, omega_m = 0.155000, n_s = 0.850000, h = 70.118110, w = -1.000000, sigma_8 = 0.811811
# z = 0.500000
#
# k[1/Mpc] # P(k):
8.694000e-04 1.187987e+04 
2.077466e-03 2.315657e+04 
3.285532e-03 3.138557e+04 
4.493598e-03 3.746858e+04 
5.701664e-03 4.183823e+04 
6.909730e-03 4.483709e+04 
8.117797e-03 4.679861e+04 
9.325863e-03 4.789357e+04 
1.053393e-02 4.828082e+04 
1.174199e-02 4.809971e+04 
1.295006e-02 4.743867e+04 
1.415813e-02 4.641334e+04 
1.536619e-02 4.511676e+04 
1.657426e-02 4.360878e+04 
1.778233e-02 4.191140e+04 
1.899039e-02 4.006384e+04 
2.019846e-02 3.817229e+04 
2.140652e-02 3.634190e+04 
2.261459e-02 3.458312e+04 
2.382266e-02 3.290718e+04 
2.503072e-02 3.133063e+04 
2.623879e-02 2.986106e+04 
2.744685e-02 2.849942e+04 
2.865492e-02 2.725090e+04 
2.986299e-02 2.611235e+04 
3.100100e-02 2.513775e+04 
3.220400e-02 2.420494e+04 
3.288100e-02 2.372274e+04 
3.424300e-02 2.283770e+04 
3.555100e-02 2.208119e+04 
3.686000e-02 2.140576e+04 
3.795000e-02 2.089527e+04 
3.929100e-02 2.032547e+04 
4.039800e-02 1.989097e+04 
4.164000e-02 1.943294e+04 
4.294400e-02 1.897347e+04 
4.415000e-02 1.856226e+04 
4.542900e-02 1.812668e+04 
4.660900e-02 1.772678e+04 
4.782300e-02 1.730033e+04 
4.892900e-02 1.690635e+04 
5.031200e-02 1.639959e+04 
5.155900e-02 1.592700e+04 
5.238100e-02 1.560954e+04 
5.378200e-02 1.506116e+04 
5.513400e-02 1.452396e+04 
5.627600e-02 1.406824e+04 
5.735300e-02 1.364164e+04 
5.870100e-02 1.311647e+04 
5.988700e-02 1.266768e+04 
6.113500e-02 1.221169e+04 
6.225900e-02 1.181807e+04 
6.340100e-02 1.143737e+04 
6.480200e-02 1.099807e+04 
6.601100e-02 1.064617e+04 
6.725500e-02 1.031053e+04 
6.829100e-02 1.005319e+04 
6.958600e-02 9.755446e+03 
7.071100e-02 9.519853e+03 
7.192300e-02 9.287464e+03 
7.307400e-02 9.085861e+03 
7.412300e-02 8.916862e+03 
7.550400e-02 8.715110e+03 
7.663100e-02 8.563693e+03 
7.791200e-02 8.406890e+03 
7.912700e-02 8.269415e+03 
8.027600e-02 8.146533e+03 
8.138400e-02 8.033064e+03 
8.272200e-02 7.900964e+03 
8.406100e-02 7.771965e+03 
8.534100e-02 7.648667e+03 
8.653800e-02 7.531783e+03 
8.759800e-02 7.427231e+03 
8.900300e-02 7.285891e+03 
9.009000e-02 7.173337e+03 
9.113300e-02 7.061899e+03 
9.239600e-02 6.925332e+03 
9.358000e-02 6.794368e+03 
9.496100e-02 6.637354e+03 
9.608400e-02 6.509093e+03 
9.727500e-02 6.373543e+03 
9.852600e-02 6.228887e+03 
9.973800e-02 6.091317e+03 
1.009000e-01 5.961928e+03 
1.020900e-01 5.831684e+03 
1.034000e-01 5.693069e+03 
1.046000e-01 5.570418e+03 
1.057200e-01 5.461380e+03 
1.069100e-01 5.349891e+03 
1.082500e-01 5.231784e+03 
1.093900e-01 5.137231e+03 
1.105400e-01 5.046113e+03 
1.116900e-01 4.962118e+03 
1.129600e-01 4.873590e+03 
1.142000e-01 4.794121e+03 
1.153300e-01 4.725394e+03 
1.166400e-01 4.650626e+03 
1.177800e-01 4.589691e+03 
1.190000e-01 4.527219e+03 
1.201200e-01 4.473145e+03 
1.213400e-01 4.415976e+03 
1.227100e-01 4.354708e+03 
1.238900e-01 4.303271e+03 
1.250700e-01 4.252923e+03 
1.263200e-01 4.200489e+03 
1.275500e-01 4.149333e+03 
1.287500e-01 4.099823e+03 
1.299900e-01 4.048641e+03 
1.311300e-01 4.001630e+03 
1.323500e-01 3.950911e+03 
1.335900e-01 3.899376e+03 
1.347100e-01 3.852312e+03 
1.359800e-01 3.799147e+03 
1.372100e-01 3.746897e+03 
1.384300e-01 3.695530e+03 
1.395700e-01 3.646900e+03 
1.407700e-01 3.596619e+03 
1.420300e-01 3.543241e+03 
1.432800e-01 3.491477e+03 
1.444500e-01 3.443163e+03 
1.456300e-01 3.395451e+03 
1.468900e-01 3.345647e+03 
1.480500e-01 3.300778e+03 
1.491700e-01 3.258674e+03 
1.503800e-01 3.214556e+03 
1.516400e-01 3.169859e+03 
1.528200e-01 3.130087e+03 
1.540200e-01 3.090437e+03 
1.551900e-01 3.053931e+03 
1.564300e-01 3.016333e+03 
1.576600e-01 2.980521e+03 
1.588700e-01 2.946868e+03 
1.600900e-01 2.913646e+03 
1.612700e-01 2.883372e+03 
1.625400e-01 2.851396e+03 
1.637600e-01 2.821724e+03 
1.649500e-01 2.793577e+03 
1.662200e-01 2.764115e+03 
1.674000e-01 2.737406e+03 
1.685000e-01 2.712923e+03 
1.697500e-01 2.685407e+03 
1.710300e-01 2.657576e+03 
1.722200e-01 2.632160e+03 
1.734400e-01 2.605922e+03 
1.746400e-01 2.580531e+03 
1.758700e-01 2.554707e+03 
1.770900e-01 2.529041e+03 
1.782700e-01 2.504631e+03 
1.794600e-01 2.480037e+03 
1.807000e-01 2.454582e+03 
1.819100e-01 2.430160e+03 
1.830100e-01 2.407966e+03 
1.842200e-01 2.383878e+03 
1.855000e-01 2.358817e+03 
1.867000e-01 2.335540e+03 
1.879200e-01 2.312257e+03 
1.890900e-01 2.290291e+03 
1.902800e-01 2.268341e+03 
1.915200e-01 2.245833e+03 
1.926900e-01 2.224976e+03 
1.939000e-01 2.203890e+03 
1.951700e-01 2.182111e+03 
1.963100e-01 2.162942e+03 
1.975100e-01 2.143275e+03 
1.987800e-01 2.122783e+03 
2.000100e-01 2.103335e+03 
2.012500e-01 2.084231e+03 
2.023400e-01 2.067679e+03 
2.036100e-01 2.048726e+03 
2.048900e-01 2.030131e+03 
2.060400e-01 2.013669e+03 
2.072200e-01 1.997027e+03 
2.084200e-01 1.980513e+03 
2.096900e-01 1.963291e+03 
2.109200e-01 1.946857e+03 
2.121100e-01 1.931290e+03 
2.132700e-01 1.916329e+03 
2.145200e-01 1.900430e+03 
2.157200e-01 1.885444e+03 
2.168800e-01 1.871182e+03 
2.180700e-01 1.856745e+03 
2.193400e-01 1.841578e+03 
2.206000e-01 1.826795e+03 
2.217500e-01 1.813483e+03 
2.229500e-01 1.799774e+03 
2.241400e-01 1.786459e+03 
2.253500e-01 1.773101e+03 
2.264900e-01 1.760676e+03 
2.277100e-01 1.747604e+03 
2.289900e-01 1.734133e+03 
2.301500e-01 1.722085e+03 
2.313600e-01 1.709677e+03 
2.325600e-01 1.697674e+03 
2.337700e-01 1.685724e+03 
2.350000e-01 1.673732e+03 
2.362000e-01 1.662251e+03 
2.374100e-01 1.650901e+03 
2.386500e-01 1.639417e+03 
2.399100e-01 1.627898e+03 
2.410400e-01 1.617809e+03 
2.422500e-01 1.607148e+03 
2.435000e-01 1.596271e+03 
2.447300e-01 1.585720e+03 
2.458700e-01 1.576126e+03 
2.470600e-01 1.566228e+03 
2.483300e-01 1.555792e+03 
2.495600e-01 1.545833e+03 
2.507600e-01 1.536266e+03 
2.519600e-01 1.526810e+03 
2.532200e-01 1.516999e+03 
2.543700e-01 1.508144e+03 
2.555500e-01 1.499154e+03 
2.568000e-01 1.489743e+03 
2.580100e-01 1.480738e+03 
2.592400e-01 1.471660e+03 
2.604100e-01 1.463108e+03 
2.616100e-01 1.454434e+03 
2.628400e-01 1.445644e+03 
2.640600e-01 1.436975e+03 
2.652200e-01 1.428803e+03 
2.664300e-01 1.420372e+03 
2.676500e-01 1.411966e+03 
2.688400e-01 1.403811e+03 
2.700700e-01 1.395447e+03 
2.712400e-01 1.387576e+03 
2.724800e-01 1.379325e+03 
2.736700e-01 1.371449e+03 
2.748800e-01 1.363482e+03 
2.761000e-01 1.355535e+03 
2.773200e-01 1.347675e+03 
2.785400e-01 1.339879e+03 
2.797000e-01 1.332502e+03 
2.808900e-01 1.325013e+03 
2.821400e-01 1.317229e+03 
2.833900e-01 1.309528e+03 
2.845500e-01 1.302405e+03 
2.857800e-01 1.294931e+03 
2.870300e-01 1.287415e+03 
2.882100e-01 1.280393e+03 
2.893900e-01 1.273417e+03 
2.906300e-01 1.266148e+03 
2.918900e-01 1.258840e+03 
2.930500e-01 1.252179e+03 
2.942500e-01 1.245352e+03 
2.954200e-01 1.238742e+03 
2.966500e-01 1.231862e+03 
2.978900e-01 1.224997e+03 
2.990400e-01 1.218693e+03 
3.002700e-01 1.212008e+03 
3.015100e-01 1.205333e+03 
3.026800e-01 1.199097e+03 
3.038500e-01 1.192919e+03 
3.050300e-01 1.186748e+03 
3.062600e-01 1.180374e+03 
3.075000e-01 1.174011e+03 
3.087000e-01 1.167914e+03 
3.099100e-01 1.161824e+03 
3.111200e-01 1.155796e+03 
3.123100e-01 1.149929e+03 
3.135300e-01 1.143970e+03 
3.147300e-01 1.138165e+03 
3.159900e-01 1.132128e+03 
3.171800e-01 1.126487e+03 
3.183700e-01 1.120902e+03 
3.196300e-01 1.115045e+03 
3.208400e-01 1.109473e+03 
3.220300e-01 1.104043e+03 
3.232000e-01 1.098769e+03 
3.244300e-01 1.093281e+03 
3.256700e-01 1.087800e+03 
3.269200e-01 1.082327e+03 
3.280800e-01 1.077293e+03 
3.292500e-01 1.072277e+03 
3.304800e-01 1.067057e+03 
3.317100e-01 1.061884e+03 
3.328900e-01 1.056966e+03 
3.340700e-01 1.052090e+03 
3.353600e-01 1.046828e+03 
3.365300e-01 1.042107e+03 
3.377100e-01 1.037386e+03 
3.389200e-01 1.032587e+03 
3.401600e-01 1.027713e+03 
3.413700e-01 1.023013e+03 
3.425300e-01 1.018556e+03 
3.437700e-01 1.013833e+03 
3.449800e-01 1.009264e+03 
3.461800e-01 1.004771e+03 
3.473600e-01 1.000399e+03 
3.485800e-01 9.959354e+02 
3.498100e-01 9.914741e+02 
3.510200e-01 9.871227e+02 
3.522000e-01 9.829144e+02 
3.533900e-01 9.787053e+02 
3.546400e-01 9.743489e+02 
3.558400e-01 9.702036e+02 
3.570600e-01 9.660241e+02 
3.582700e-01 9.619133e+02 
3.595000e-01 9.577693e+02 
3.607100e-01 9.537392e+02 
3.618900e-01 9.498509e+02 
3.631200e-01 9.458308e+02 
3.643200e-01 9.419407e+02 
3.655500e-01 9.379858e+02 
3.667300e-01 9.342222e+02 
3.679500e-01 9.303915e+02 
3.691900e-01 9.265297e+02 
3.703600e-01 9.229150e+02 
3.715700e-01 9.192060e+02 
3.727700e-01 9.155567e+02 
3.739900e-01 9.118801e+02 
3.752000e-01 9.082700e+02 
3.763900e-01 9.047473e+02 
3.775800e-01 9.012518e+02 
3.788200e-01 8.976380e+02 
3.800300e-01 8.941394e+02 
3.812100e-01 8.907475e+02 
3.824200e-01 8.872916e+02 
3.836100e-01 8.839190e+02 
3.848600e-01 8.804037e+02 
3.860400e-01 8.771109e+02 
3.872400e-01 8.737874e+02 
3.884600e-01 8.704638e+02 
3.896500e-01 8.672576e+02 
3.908700e-01 8.639954e+02 
3.920600e-01 8.608373e+02 
3.933100e-01 8.575452e+02 
3.945300e-01 8.543567e+02 
3.957200e-01 8.512625e+02 
3.969300e-01 8.481374e+02 
3.981700e-01 8.449590e+02 
3.993500e-01 8.419569e+02 
4.094840e-01 8.169713e+02 
4.272360e-01 7.768480e+02 
4.454600e-01 7.394390e+02 
4.630560e-01 7.064532e+02 
4.804610e-01 6.764607e+02 
4.980690e-01 6.485519e+02 
5.159230e-01 6.224420e+02 
5.317440e-01 6.010360e+02 
5.489640e-01 5.792837e+02 
5.671990e-01 5.579080e+02 
5.838690e-01 5.397584e+02 
6.018840e-01 5.215189e+02 
6.202330e-01 5.042534e+02 
6.379250e-01 4.886517e+02 
6.545410e-01 4.749290e+02 
6.714560e-01 4.617755e+02 
6.892080e-01 4.487565e+02 
7.066010e-01 4.366654e+02 
7.240540e-01 4.252104e+02 
7.420450e-01 4.140818e+02 
7.593780e-01 4.038069e+02 
7.764720e-01 3.941776e+02 
7.942840e-01 3.846308e+02 
8.116170e-01 3.756754e+02 
8.288310e-01 3.671912e+02 
8.462240e-01 3.589170e+02 
8.631980e-01 3.511606e+02 
8.810700e-01 3.433140e+02 
8.989410e-01 3.357760e+02 
9.166330e-01 3.285568e+02 
9.345640e-01 3.214566e+02 
9.515980e-01 3.149399e+02 
9.688720e-01 3.085612e+02 
9.865640e-01 3.022194e+02 
1.031870e+00 2.868291e+02 
1.063490e+00 2.767640e+02 
1.097920e+00 2.663605e+02 
1.134370e+00 2.559793e+02 
1.167730e+00 2.469263e+02 
1.203830e+00 2.376523e+02 
1.240470e+00 2.287339e+02 
1.275790e+00 2.205363e+02 
1.309140e+00 2.131948e+02 
1.342970e+00 2.060473e+02 
1.378420e+00 1.989490e+02 
1.413200e+00 1.922837e+02 
1.448110e+00 1.859024e+02 
1.484090e+00 1.796375e+02 
1.518820e+00 1.738613e+02 
1.552880e+00 1.684204e+02 
1.588630e+00 1.629782e+02 
1.623230e+00 1.579432e+02 
1.657720e+00 1.531338e+02 
1.692450e+00 1.485228e+02 
1.726400e+00 1.441621e+02 
1.762200e+00 1.397520e+02 
1.797880e+00 1.355497e+02 
1.833270e+00 1.315551e+02 
1.869070e+00 1.276754e+02 
1.903200e+00 1.241332e+02 
1.937740e+00 1.206835e+02 
1.973190e+00 1.172776e+02 
2.007440e+00 1.141126e+02 
2.042160e+00 1.110255e+02 
2.077900e+00 1.079626e+02 
2.112390e+00 1.051343e+02 
2.146220e+00 1.024357e+02 
2.181600e+00 9.973092e+01 
2.216930e+00 9.712959e+01 
2.250760e+00 9.472184e+01 
2.286500e+00 9.226547e+01 
2.321770e+00 8.993051e+01 
2.355950e+00 8.774715e+01 
2.391280e+00 8.556025e+01 
2.426240e+00 8.347599e+01 
2.460670e+00 8.149039e+01 
2.495640e+00 7.953440e+01 
2.531080e+00 7.762822e+01 
2.566220e+00 7.579596e+01 
2.600830e+00 7.404971e+01 
2.635080e+00 7.237795e+01 
2.670340e+00 7.070478e+01 
2.705970e+00 6.907515e+01 
2.740040e+00 6.756774e+01 
2.774520e+00 6.608014e+01 
2.809730e+00 6.461177e+01 
2.844390e+00 6.321207e+01 
2.879960e+00 6.181744e+01 
2.914860e+00 6.048940e+01 
2.949410e+00 5.921460e+01 
2.984440e+00 5.796293e+01 
3.019760e+00 5.673490e+01 
3.054730e+00 5.555330e+01 
3.089030e+00 5.442848e+01 
3.124060e+00 5.331305e+01 
3.159560e+00 5.221553e+01 
3.194710e+00 5.116030e+01 
3.229010e+00 5.015947e+01 
3.263320e+00 4.918136e+01 
3.297930e+00 4.822275e+01 
3.332830e+00 4.728423e+01 
3.368040e+00 4.636236e+01 
3.403300e+00 4.546376e+01 
3.438450e+00 4.459066e+01 
3.473060e+00 4.375365e+01 
3.508440e+00 4.292442e+01 
3.543110e+00 4.213291e+01 
3.577470e+00 4.136615e+01 
3.613040e+00 4.059379e+01 
3.648120e+00 3.985409e+01 
3.682910e+00 3.913761e+01 
3.718050e+00 3.842921e+01 
3.753320e+00 3.773804e+01 
3.787980e+00 3.707846e+01 
3.822290e+00 3.644036e+01 
3.857020e+00 3.580842e+01 
3.891920e+00 3.518884e+01 
3.926650e+00 3.458723e+01 
3.961970e+00 3.399009e+01 
3.997360e+00 3.340624e+01 
4.031670e+00 3.285376e+01 
4.066330e+00 3.230975e+01 
4.101420e+00 3.177168e+01 
4.136200e+00 3.125049e+01 
4.170810e+00 3.074358e+01 
4.206250e+00 3.023750e+01 
4.241580e+00 2.974468e+01 
4.276300e+00 2.927087e+01 
4.310970e+00 2.880797e+01 
4.346120e+00 2.834956e+01 
4.380600e+00 2.791066e+01 
4.414730e+00 2.748543e+01 
4.450350e+00 2.705076e+01 
4.485320e+00 2.663321e+01 
4.519810e+00 2.623114e+01 
4.555430e+00 2.582512e+01 
4.590870e+00 2.543013e+01 
4.625480e+00 2.505328e+01 
4.659910e+00 2.468598e+01 
4.695230e+00 2.431677e+01 
4.729960e+00 2.396108e+01 
4.764450e+00 2.361483e+01 
4.799530e+00 2.326958e+01 
4.834910e+00 2.292836e+01 
4.869700e+00 2.260177e+01 
4.904370e+00 2.228301e+01 
4.939450e+00 2.196670e+01 
4.973940e+00 2.166162e+01 
5.008430e+00 2.136231e+01 
5.043810e+00 2.106112e+01 
5.078840e+00 2.076858e+01 
5.113500e+00 2.048458e+01 
5.148890e+00 2.020227e+01 
5.184210e+00 1.992591e+01 
5.219060e+00 1.965797e+01 
5.253660e+00 1.939595e+01 
5.288570e+00 1.913639e+01 
5.323420e+00 1.888298e+01 
5.358440e+00 1.863406e+01 
5.393590e+00 1.838869e+01 
5.428310e+00 1.815066e+01 
5.462800e+00 1.791834e+01 
5.497640e+00 1.768777e+01 
5.532670e+00 1.746143e+01 
5.567280e+00 1.724214e+01 
5.602000e+00 1.702590e+01 
5.637270e+00 1.680926e+01 
5.672410e+00 1.659695e+01 
5.707020e+00 1.639138e+01 
5.742040e+00 1.618838e+01 
5.777430e+00 1.598700e+01 
5.812210e+00 1.579239e+01 
5.846820e+00 1.560189e+01 
5.881610e+00 1.541352e+01 
5.916510e+00 1.522765e+01 
5.951600e+00 1.504442e+01 
5.986560e+00 1.486510e+01 
6.021830e+00 1.468713e+01 
6.056490e+00 1.451543e+01 
6.091160e+00 1.434674e+01 
6.125830e+00 1.418070e+01 
6.161090e+00 1.401450e+01 
6.195760e+00 1.385365e+01 
6.230420e+00 1.369533e+01 
6.265690e+00 1.353675e+01 
6.300950e+00 1.338145e+01 
6.335620e+00 1.323110e+01 
6.370880e+00 1.308051e+01 
6.405550e+00 1.293513e+01 
6.440220e+00 1.279211e+01 
6.475480e+00 1.264883e+01 
6.510150e+00 1.251027e+01 
6.544810e+00 1.237425e+01 
6.580080e+00 1.223788e+01 
6.614750e+00 1.210581e+01 
6.649410e+00 1.197574e+01 
6.684080e+00 1.184752e+01 
6.719340e+00 1.171902e+01 
6.754010e+00 1.159466e+01 
6.788680e+00 1.147246e+01 
6.823940e+00 1.134996e+01 
6.859800e+00 1.122718e+01 
6.894470e+00 1.111057e+01 
6.929140e+00 1.099574e+01 
6.963800e+00 1.088254e+01 
6.999070e+00 1.076895e+01 
7.033730e+00 1.065896e+01 
7.068400e+00 1.055043e+01 
7.103660e+00 1.044158e+01 
7.138330e+00 1.033633e+01 
7.173600e+00 1.023135e+01 
7.208260e+00 1.012959e+01 
7.243530e+00 1.002742e+01 
7.277600e+00 9.929866e+00 
7.312860e+00 9.830067e+00 
7.348120e+00 9.731611e+00 
7.382790e+00 9.636088e+00 
7.417460e+00 9.542382e+00 
7.452720e+00 9.448628e+00 
7.487390e+00 9.357647e+00 
7.522650e+00 9.266321e+00 
7.557320e+00 9.177738e+00 
7.591990e+00 9.090306e+00 
7.627250e+00 9.002530e+00 
7.662510e+00 8.915887e+00 
7.697180e+00 8.832084e+00 
7.731850e+00 8.749452e+00 
7.766510e+00 8.667877e+00 
7.801180e+00 8.587297e+00 
7.836440e+00 8.506408e+00 
7.871110e+00 8.427889e+00 
7.906380e+00 8.349004e+00 
7.941040e+00 8.272443e+00 
7.976310e+00 8.195679e+00 
8.011570e+00 8.120108e+00 
8.046240e+00 8.046708e+00 
8.080900e+00 7.974215e+00 
8.115570e+00 7.902621e+00 
8.150830e+00 7.830877e+00 
8.185500e+00 7.761181e+00 
8.220770e+00 7.691127e+00 
8.255430e+00 7.623106e+00 
8.290100e+00 7.556068e+00 
8.324770e+00 7.489840e+00 
8.359430e+00 7.424403e+00 
8.394700e+00 7.358597e+00 
8.429960e+00 7.293700e+00 
8.464630e+00 7.230746e+00 
8.499890e+00 7.167464e+00 
8.534560e+00 7.105959e+00 
8.569200e+00 7.045209e+00 
