# Parameters:
# omega_b = 0.021673, omega_m = 0.153622, n_s = 0.927165, h = 66.574803, w = -1.000000, sigma_8 = 0.819685
# z = 0.500000
#
# k[1/Mpc] # P(k):
8.694000e-04 8.769981e+03 
2.077466e-03 1.828785e+04 
3.285532e-03 2.566959e+04 
4.493598e-03 3.137370e+04 
5.701664e-03 3.567316e+04 
6.909730e-03 3.879340e+04 
8.117797e-03 4.098380e+04 
9.325863e-03 4.237481e+04 
1.053393e-02 4.309902e+04 
1.174199e-02 4.328028e+04 
1.295006e-02 4.299415e+04 
1.415813e-02 4.234346e+04 
1.536619e-02 4.141502e+04 
1.657426e-02 4.026941e+04 
1.778233e-02 3.896034e+04 
1.899039e-02 3.753942e+04 
2.019846e-02 3.604063e+04 
2.140652e-02 3.453109e+04 
2.261459e-02 3.304286e+04 
2.382266e-02 3.160384e+04 
2.503072e-02 3.023543e+04 
2.623879e-02 2.894770e+04 
2.744685e-02 2.774339e+04 
2.865492e-02 2.663064e+04 
2.986299e-02 2.560891e+04 
3.100100e-02 2.472848e+04 
3.220400e-02 2.388086e+04 
3.288100e-02 2.344055e+04 
3.424300e-02 2.262885e+04 
3.555100e-02 2.193141e+04 
3.686000e-02 2.130572e+04 
3.795000e-02 2.083107e+04 
3.929100e-02 2.029938e+04 
4.039800e-02 1.989299e+04 
4.164000e-02 1.946394e+04 
4.294400e-02 1.903327e+04 
4.415000e-02 1.864789e+04 
4.542900e-02 1.823998e+04 
4.660900e-02 1.786577e+04 
4.782300e-02 1.746716e+04 
4.892900e-02 1.709896e+04 
5.031200e-02 1.662518e+04 
5.155900e-02 1.618278e+04 
5.238100e-02 1.588509e+04 
5.378200e-02 1.536957e+04 
5.513400e-02 1.486241e+04 
5.627600e-02 1.443011e+04 
5.735300e-02 1.402350e+04 
5.870100e-02 1.352005e+04 
5.988700e-02 1.308710e+04 
6.113500e-02 1.264437e+04 
6.225900e-02 1.225960e+04 
6.340100e-02 1.188504e+04 
6.480200e-02 1.145012e+04 
6.601100e-02 1.109907e+04 
6.725500e-02 1.076227e+04 
6.829100e-02 1.050255e+04 
6.958600e-02 1.020095e+04 
7.071100e-02 9.961383e+03 
7.192300e-02 9.724528e+03 
7.307400e-02 9.518780e+03 
7.412300e-02 9.346273e+03 
7.550400e-02 9.140567e+03 
7.663100e-02 8.986481e+03 
7.791200e-02 8.827592e+03 
7.912700e-02 8.689023e+03 
8.027600e-02 8.565704e+03 
8.138400e-02 8.452260e+03 
8.272200e-02 8.320701e+03 
8.406100e-02 8.192594e+03 
8.534100e-02 8.070320e+03 
8.653800e-02 7.954309e+03 
8.759800e-02 7.850391e+03 
8.900300e-02 7.709585e+03 
9.009000e-02 7.597112e+03 
9.113300e-02 7.485415e+03 
9.239600e-02 7.348232e+03 
9.358000e-02 7.216318e+03 
9.496100e-02 7.057734e+03 
9.608400e-02 6.927959e+03 
9.727500e-02 6.790622e+03 
9.852600e-02 6.643794e+03 
9.973800e-02 6.504004e+03 
1.009000e-01 6.372390e+03 
1.020900e-01 6.239661e+03 
1.034000e-01 6.098210e+03 
1.046000e-01 5.972863e+03 
1.057200e-01 5.861078e+03 
1.069100e-01 5.746602e+03 
1.082500e-01 5.624883e+03 
1.093900e-01 5.527088e+03 
1.105400e-01 5.432631e+03 
1.116900e-01 5.345074e+03 
1.129600e-01 5.252605e+03 
1.142000e-01 5.169153e+03 
1.153300e-01 5.096828e+03 
1.166400e-01 5.017907e+03 
1.177800e-01 4.953465e+03 
1.190000e-01 4.887338e+03 
1.201200e-01 4.830110e+03 
1.213400e-01 4.769607e+03 
1.227100e-01 4.705005e+03 
1.238900e-01 4.650844e+03 
1.250700e-01 4.598085e+03 
1.263200e-01 4.543257e+03 
1.275500e-01 4.490024e+03 
1.287500e-01 4.438630e+03 
1.299900e-01 4.385696e+03 
1.311300e-01 4.337157e+03 
1.323500e-01 4.284905e+03 
1.335900e-01 4.231840e+03 
1.347100e-01 4.183416e+03 
1.359800e-01 4.128694e+03 
1.372100e-01 4.074881e+03 
1.384300e-01 4.021928e+03 
1.395700e-01 3.971695e+03 
1.407700e-01 3.919727e+03 
1.420300e-01 3.864362e+03 
1.432800e-01 3.810654e+03 
1.444500e-01 3.760314e+03 
1.456300e-01 3.710588e+03 
1.468900e-01 3.658501e+03 
1.480500e-01 3.611514e+03 
1.491700e-01 3.567334e+03 
1.503800e-01 3.520932e+03 
1.516400e-01 3.473878e+03 
1.528200e-01 3.431866e+03 
1.540200e-01 3.389975e+03 
1.551900e-01 3.351300e+03 
1.564300e-01 3.311438e+03 
1.576600e-01 3.273426e+03 
1.588700e-01 3.237657e+03 
1.600900e-01 3.202341e+03 
1.612700e-01 3.170126e+03 
1.625400e-01 3.136096e+03 
1.637600e-01 3.104520e+03 
1.649500e-01 3.074568e+03 
1.662200e-01 3.043225e+03 
1.674000e-01 3.014857e+03 
1.685000e-01 2.988851e+03 
1.697500e-01 2.959655e+03 
1.710300e-01 2.930153e+03 
1.722200e-01 2.903209e+03 
1.734400e-01 2.875457e+03 
1.746400e-01 2.848601e+03 
1.758700e-01 2.821296e+03 
1.770900e-01 2.794177e+03 
1.782700e-01 2.768383e+03 
1.794600e-01 2.742399e+03 
1.807000e-01 2.715507e+03 
1.819100e-01 2.689703e+03 
1.830100e-01 2.666232e+03 
1.842200e-01 2.640750e+03 
1.855000e-01 2.614233e+03 
1.867000e-01 2.589559e+03 
1.879200e-01 2.564875e+03 
1.890900e-01 2.541576e+03 
1.902800e-01 2.518251e+03 
1.915200e-01 2.494329e+03 
1.926900e-01 2.472147e+03 
1.939000e-01 2.449679e+03 
1.951700e-01 2.426469e+03 
1.963100e-01 2.406028e+03 
1.975100e-01 2.385026e+03 
1.987800e-01 2.363141e+03 
2.000100e-01 2.342362e+03 
2.012500e-01 2.321937e+03 
2.023400e-01 2.304239e+03 
2.036100e-01 2.283970e+03 
2.048900e-01 2.264074e+03 
2.060400e-01 2.246459e+03 
2.072200e-01 2.228649e+03 
2.084200e-01 2.210972e+03 
2.096900e-01 2.192536e+03 
2.109200e-01 2.174940e+03 
2.121100e-01 2.158262e+03 
2.132700e-01 2.142230e+03 
2.145200e-01 2.125194e+03 
2.157200e-01 2.109116e+03 
2.168800e-01 2.093805e+03 
2.180700e-01 2.078306e+03 
2.193400e-01 2.062002e+03 
2.206000e-01 2.046070e+03 
2.217500e-01 2.031723e+03 
2.229500e-01 2.016946e+03 
2.241400e-01 2.002517e+03 
2.253500e-01 1.988039e+03 
2.264900e-01 1.974571e+03 
2.277100e-01 1.960350e+03 
2.289900e-01 1.945637e+03 
2.301500e-01 1.932477e+03 
2.313600e-01 1.918923e+03 
2.325600e-01 1.905698e+03 
2.337700e-01 1.892531e+03 
2.350000e-01 1.879318e+03 
2.362000e-01 1.866618e+03 
2.374100e-01 1.854007e+03 
2.386500e-01 1.841245e+03 
2.399100e-01 1.828444e+03 
2.410400e-01 1.817163e+03 
2.422500e-01 1.805234e+03 
2.435000e-01 1.793063e+03 
2.447300e-01 1.781247e+03 
2.458700e-01 1.770470e+03 
2.470600e-01 1.759350e+03 
2.483300e-01 1.747626e+03 
2.495600e-01 1.736437e+03 
2.507600e-01 1.725686e+03 
2.519600e-01 1.715061e+03 
2.532200e-01 1.704036e+03 
2.543700e-01 1.694106e+03 
2.555500e-01 1.684040e+03 
2.568000e-01 1.673501e+03 
2.580100e-01 1.663418e+03 
2.592400e-01 1.653295e+03 
2.604100e-01 1.643777e+03 
2.616100e-01 1.634124e+03 
2.628400e-01 1.624342e+03 
2.640600e-01 1.614744e+03 
2.652200e-01 1.605716e+03 
2.664300e-01 1.596402e+03 
2.676500e-01 1.587115e+03 
2.688400e-01 1.578148e+03 
2.700700e-01 1.568977e+03 
2.712400e-01 1.560347e+03 
2.724800e-01 1.551300e+03 
2.736700e-01 1.542693e+03 
2.748800e-01 1.534014e+03 
2.761000e-01 1.525357e+03 
2.773200e-01 1.516794e+03 
2.785400e-01 1.508315e+03 
2.797000e-01 1.500321e+03 
2.808900e-01 1.492205e+03 
2.821400e-01 1.483769e+03 
2.833900e-01 1.475423e+03 
2.845500e-01 1.467733e+03 
2.857800e-01 1.459662e+03 
2.870300e-01 1.451547e+03 
2.882100e-01 1.443965e+03 
2.893900e-01 1.436444e+03 
2.906300e-01 1.428613e+03 
2.918900e-01 1.420740e+03 
2.930500e-01 1.413564e+03 
2.942500e-01 1.406210e+03 
2.954200e-01 1.399097e+03 
2.966500e-01 1.391694e+03 
2.978900e-01 1.384306e+03 
2.990400e-01 1.377521e+03 
3.002700e-01 1.370330e+03 
3.015100e-01 1.363149e+03 
3.026800e-01 1.356441e+03 
3.038500e-01 1.349795e+03 
3.050300e-01 1.343156e+03 
3.062600e-01 1.336298e+03 
3.075000e-01 1.329453e+03 
3.087000e-01 1.322892e+03 
3.099100e-01 1.316340e+03 
3.111200e-01 1.309852e+03 
3.123100e-01 1.303534e+03 
3.135300e-01 1.297118e+03 
3.147300e-01 1.290867e+03 
3.159900e-01 1.284366e+03 
3.171800e-01 1.278289e+03 
3.183700e-01 1.272270e+03 
3.196300e-01 1.265957e+03 
3.208400e-01 1.259952e+03 
3.220300e-01 1.254100e+03 
3.232000e-01 1.248411e+03 
3.244300e-01 1.242490e+03 
3.256700e-01 1.236576e+03 
3.269200e-01 1.230670e+03 
3.280800e-01 1.225239e+03 
3.292500e-01 1.219822e+03 
3.304800e-01 1.214182e+03 
3.317100e-01 1.208594e+03 
3.328900e-01 1.203280e+03 
3.340700e-01 1.198013e+03 
3.353600e-01 1.192323e+03 
3.365300e-01 1.187216e+03 
3.377100e-01 1.182109e+03 
3.389200e-01 1.176917e+03 
3.401600e-01 1.171644e+03 
3.413700e-01 1.166555e+03 
3.425300e-01 1.161727e+03 
3.437700e-01 1.156610e+03 
3.449800e-01 1.151660e+03 
3.461800e-01 1.146793e+03 
3.473600e-01 1.142054e+03 
3.485800e-01 1.137213e+03 
3.498100e-01 1.132374e+03 
3.510200e-01 1.127654e+03 
3.522000e-01 1.123089e+03 
3.533900e-01 1.118524e+03 
3.546400e-01 1.113792e+03 
3.558400e-01 1.109288e+03 
3.570600e-01 1.104748e+03 
3.582700e-01 1.100282e+03 
3.595000e-01 1.095780e+03 
3.607100e-01 1.091400e+03 
3.618900e-01 1.087171e+03 
3.631200e-01 1.082799e+03 
3.643200e-01 1.078568e+03 
3.655500e-01 1.074267e+03 
3.667300e-01 1.070174e+03 
3.679500e-01 1.066001e+03 
3.691900e-01 1.061795e+03 
3.703600e-01 1.057857e+03 
3.715700e-01 1.053817e+03 
3.727700e-01 1.049842e+03 
3.739900e-01 1.045837e+03 
3.752000e-01 1.041901e+03 
3.763900e-01 1.038061e+03 
3.775800e-01 1.034251e+03 
3.788200e-01 1.030312e+03 
3.800300e-01 1.026498e+03 
3.812100e-01 1.022797e+03 
3.824200e-01 1.019022e+03 
3.836100e-01 1.015338e+03 
3.848600e-01 1.011498e+03 
3.860400e-01 1.007902e+03 
3.872400e-01 1.004272e+03 
3.884600e-01 1.000640e+03 
3.896500e-01 9.971367e+02 
3.908700e-01 9.935719e+02 
3.920600e-01 9.901210e+02 
3.933100e-01 9.865237e+02 
3.945300e-01 9.830398e+02 
3.957200e-01 9.796548e+02 
3.969300e-01 9.762350e+02 
3.981700e-01 9.727569e+02 
3.993500e-01 9.694717e+02 
4.094840e-01 9.421059e+02 
4.272360e-01 8.980829e+02 
4.454600e-01 8.569420e+02 
4.630560e-01 8.205812e+02 
4.804610e-01 7.874470e+02 
4.980690e-01 7.565541e+02 
5.159230e-01 7.275962e+02 
5.317440e-01 7.038170e+02 
5.489640e-01 6.796020e+02 
5.671990e-01 6.557600e+02 
5.838690e-01 6.354781e+02 
6.018840e-01 6.150612e+02 
6.202330e-01 5.956856e+02 
6.379250e-01 5.781479e+02 
6.545410e-01 5.626796e+02 
6.714560e-01 5.478264e+02 
6.892080e-01 5.330897e+02 
7.066010e-01 5.193646e+02 
7.240540e-01 5.063344e+02 
7.420450e-01 4.936439e+02 
7.593780e-01 4.818908e+02 
7.764720e-01 4.708512e+02 
7.942840e-01 4.598827e+02 
8.116170e-01 4.495596e+02 
8.288310e-01 4.397544e+02 
8.462240e-01 4.301711e+02 
8.631980e-01 4.211649e+02 
8.810700e-01 4.120335e+02 
8.989410e-01 4.032426e+02 
9.166330e-01 3.948029e+02 
9.345640e-01 3.864837e+02 
9.515980e-01 3.788320e+02 
9.688720e-01 3.713287e+02 
9.865640e-01 3.638542e+02 
1.031870e+00 3.456638e+02 
1.063490e+00 3.337226e+02 
1.097920e+00 3.213495e+02 
1.134370e+00 3.089737e+02 
1.167730e+00 2.981582e+02 
1.203830e+00 2.870545e+02 
1.240470e+00 2.763604e+02 
1.275790e+00 2.665135e+02 
1.309140e+00 2.576857e+02 
1.342970e+00 2.490802e+02 
1.378420e+00 2.405269e+02 
1.413200e+00 2.324871e+02 
1.448110e+00 2.247838e+02 
1.484090e+00 2.172164e+02 
1.518820e+00 2.102362e+02 
1.552880e+00 2.036557e+02 
1.588630e+00 1.970729e+02 
1.623230e+00 1.909801e+02 
1.657720e+00 1.851589e+02 
1.692450e+00 1.795755e+02 
1.726400e+00 1.742937e+02 
1.762200e+00 1.689520e+02 
1.797880e+00 1.638611e+02 
1.833270e+00 1.590208e+02 
1.869070e+00 1.543196e+02 
1.903200e+00 1.500270e+02 
1.937740e+00 1.458464e+02 
1.973190e+00 1.417191e+02 
2.007440e+00 1.378838e+02 
2.042160e+00 1.341426e+02 
2.077900e+00 1.304307e+02 
2.112390e+00 1.270036e+02 
2.146220e+00 1.237337e+02 
2.181600e+00 1.204565e+02 
2.216930e+00 1.173052e+02 
2.250760e+00 1.143883e+02 
2.286500e+00 1.114128e+02 
2.321770e+00 1.085850e+02 
2.355950e+00 1.059410e+02 
2.391280e+00 1.032926e+02 
2.426240e+00 1.007691e+02 
2.460670e+00 9.836540e+01 
2.495640e+00 9.599783e+01 
2.531080e+00 9.369094e+01 
2.566220e+00 9.147390e+01 
2.600830e+00 8.936116e+01 
2.635080e+00 8.733865e+01 
2.670340e+00 8.531494e+01 
2.705970e+00 8.334417e+01 
2.740040e+00 8.152143e+01 
2.774520e+00 7.972282e+01 
2.809730e+00 7.794787e+01 
2.844390e+00 7.625619e+01 
2.879960e+00 7.457093e+01 
2.914860e+00 7.296643e+01 
2.949410e+00 7.142645e+01 
2.984440e+00 6.991473e+01 
3.019760e+00 6.843170e+01 
3.054730e+00 6.700483e+01 
3.089030e+00 6.564709e+01 
3.124060e+00 6.430077e+01 
3.159560e+00 6.297616e+01 
3.194710e+00 6.170293e+01 
3.229010e+00 6.049546e+01 
3.263320e+00 5.931563e+01 
3.297930e+00 5.815944e+01 
3.332830e+00 5.702775e+01 
3.368040e+00 5.591627e+01 
3.403300e+00 5.483293e+01 
3.438450e+00 5.378062e+01 
3.473060e+00 5.277185e+01 
3.508440e+00 5.177269e+01 
3.543110e+00 5.081901e+01 
3.577470e+00 4.989546e+01 
3.613040e+00 4.896520e+01 
3.648120e+00 4.807444e+01 
3.682910e+00 4.721169e+01 
3.718050e+00 4.635880e+01 
3.753320e+00 4.552676e+01 
3.787980e+00 4.473292e+01 
3.822290e+00 4.396497e+01 
3.857020e+00 4.320453e+01 
3.891920e+00 4.245902e+01 
3.926650e+00 4.173524e+01 
3.961970e+00 4.101689e+01 
3.997360e+00 4.031467e+01 
4.031670e+00 3.965020e+01 
4.066330e+00 3.899605e+01 
4.101420e+00 3.834904e+01 
4.136200e+00 3.772249e+01 
4.170810e+00 3.711306e+01 
4.206250e+00 3.650472e+01 
4.241580e+00 3.591230e+01 
4.276300e+00 3.534285e+01 
4.310970e+00 3.478655e+01 
4.346120e+00 3.423568e+01 
4.380600e+00 3.370832e+01 
4.414730e+00 3.319735e+01 
4.450350e+00 3.267514e+01 
4.485320e+00 3.217346e+01 
4.519810e+00 3.169047e+01 
4.555430e+00 3.120276e+01 
4.590870e+00 3.072831e+01 
4.625480e+00 3.027566e+01 
4.659910e+00 2.983446e+01 
4.695230e+00 2.939104e+01 
4.729960e+00 2.896384e+01 
4.764450e+00 2.854799e+01 
4.799530e+00 2.813335e+01 
4.834910e+00 2.772350e+01 
4.869700e+00 2.733131e+01 
4.904370e+00 2.694851e+01 
4.939450e+00 2.656866e+01 
4.973940e+00 2.620231e+01 
5.008430e+00 2.584287e+01 
5.043810e+00 2.548115e+01 
5.078840e+00 2.512982e+01 
5.113500e+00 2.478871e+01 
5.148890e+00 2.444968e+01 
5.184210e+00 2.411777e+01 
5.219060e+00 2.379597e+01 
5.253660e+00 2.348126e+01 
5.288570e+00 2.316948e+01 
5.323420e+00 2.286510e+01 
5.358440e+00 2.256610e+01 
5.393590e+00 2.227137e+01 
5.428310e+00 2.198541e+01 
5.462800e+00 2.170630e+01 
5.497640e+00 2.142925e+01 
5.532670e+00 2.115731e+01 
5.567280e+00 2.089381e+01 
5.602000e+00 2.063397e+01 
5.637270e+00 2.037360e+01 
5.672410e+00 2.011842e+01 
5.707020e+00 1.987134e+01 
5.742040e+00 1.962729e+01 
5.777430e+00 1.938518e+01 
5.812210e+00 1.915120e+01 
5.846820e+00 1.892213e+01 
5.881610e+00 1.869561e+01 
5.916510e+00 1.847208e+01 
5.951600e+00 1.825169e+01 
5.986560e+00 1.803598e+01 
6.021830e+00 1.782187e+01 
6.056490e+00 1.761529e+01 
6.091160e+00 1.741230e+01 
6.125830e+00 1.721248e+01 
6.161090e+00 1.701244e+01 
6.195760e+00 1.681879e+01 
6.230420e+00 1.662819e+01 
6.265690e+00 1.643726e+01 
6.300950e+00 1.625023e+01 
6.335620e+00 1.606914e+01 
6.370880e+00 1.588777e+01 
6.405550e+00 1.571261e+01 
6.440220e+00 1.554026e+01 
6.475480e+00 1.536759e+01 
6.510150e+00 1.520058e+01 
6.544810e+00 1.503660e+01 
6.580080e+00 1.487219e+01 
6.614750e+00 1.471295e+01 
6.649410e+00 1.455607e+01 
6.684080e+00 1.440140e+01 
6.719340e+00 1.424638e+01 
6.754010e+00 1.409634e+01 
6.788680e+00 1.394885e+01 
6.823940e+00 1.380099e+01 
6.859800e+00 1.365279e+01 
6.894470e+00 1.351198e+01 
6.929140e+00 1.337330e+01 
6.963800e+00 1.323657e+01 
6.999070e+00 1.309937e+01 
7.033730e+00 1.296643e+01 
7.068400e+00 1.283526e+01 
7.103660e+00 1.270369e+01 
7.138330e+00 1.257645e+01 
7.173600e+00 1.244950e+01 
7.208260e+00 1.232643e+01 
7.243530e+00 1.220288e+01 
7.277600e+00 1.208485e+01 
7.312860e+00 1.196407e+01 
7.348120e+00 1.184492e+01 
7.382790e+00 1.172931e+01 
7.417460e+00 1.161585e+01 
7.452720e+00 1.150230e+01 
7.487390e+00 1.139210e+01 
7.522650e+00 1.128149e+01 
7.557320e+00 1.117414e+01 
7.591990e+00 1.106817e+01 
7.627250e+00 1.096178e+01 
7.662510e+00 1.085676e+01 
7.697180e+00 1.075513e+01 
7.731850e+00 1.065490e+01 
7.766510e+00 1.055595e+01 
7.801180e+00 1.045820e+01 
7.836440e+00 1.036004e+01 
7.871110e+00 1.026472e+01 
7.906380e+00 1.016896e+01 
7.941040e+00 1.007602e+01 
7.976310e+00 9.982793e+00 
8.011570e+00 9.890977e+00 
8.046240e+00 9.801798e+00 
8.080900e+00 9.713719e+00 
8.115570e+00 9.626720e+00 
8.150830e+00 9.539488e+00 
8.185500e+00 9.454745e+00 
8.220770e+00 9.369567e+00 
8.255430e+00 9.286859e+00 
8.290100e+00 9.205281e+00 
8.324770e+00 9.124681e+00 
8.359430e+00 9.045044e+00 
8.394700e+00 8.964957e+00 
8.429960e+00 8.885949e+00 
8.464630e+00 8.809281e+00 
8.499890e+00 8.732212e+00 
8.534560e+00 8.657308e+00 
8.569200e+00 8.583323e+00 
