# Parameters:
# omega_b = 0.021799, omega_m = 0.154449, n_s = 0.912992, h = 63.976378, w = -1.000000, sigma_8 = 0.775591
# z = 0.500000
#
# k[1/Mpc] # P(k):
8.694000e-04 8.603098e+03 
2.077466e-03 1.772956e+04 
3.285532e-03 2.473645e+04 
4.493598e-03 3.011449e+04 
5.701664e-03 3.414333e+04 
6.909730e-03 3.704715e+04 
8.117797e-03 3.906822e+04 
9.325863e-03 4.033341e+04 
1.053393e-02 4.097045e+04 
1.174199e-02 4.109808e+04 
1.295006e-02 4.078826e+04 
1.415813e-02 4.013839e+04 
1.536619e-02 3.923086e+04 
1.657426e-02 3.812327e+04 
1.778233e-02 3.687476e+04 
1.899039e-02 3.554960e+04 
2.019846e-02 3.416407e+04 
2.140652e-02 3.275973e+04 
2.261459e-02 3.136700e+04 
2.382266e-02 3.001599e+04 
2.503072e-02 2.872773e+04 
2.623879e-02 2.751174e+04 
2.744685e-02 2.637006e+04 
2.865492e-02 2.531119e+04 
2.986299e-02 2.433505e+04 
3.100100e-02 2.349006e+04 
3.220400e-02 2.267294e+04 
3.288100e-02 2.224669e+04 
3.424300e-02 2.145799e+04 
3.555100e-02 2.077740e+04 
3.686000e-02 2.016451e+04 
3.795000e-02 1.969847e+04 
3.929100e-02 1.917570e+04 
4.039800e-02 1.877647e+04 
4.164000e-02 1.835593e+04 
4.294400e-02 1.793630e+04 
4.415000e-02 1.756287e+04 
4.542900e-02 1.717117e+04 
4.660900e-02 1.681417e+04 
4.782300e-02 1.643742e+04 
4.892900e-02 1.609127e+04 
5.031200e-02 1.564831e+04 
5.155900e-02 1.523653e+04 
5.238100e-02 1.496000e+04 
5.378200e-02 1.448176e+04 
5.513400e-02 1.401139e+04 
5.627600e-02 1.361008e+04 
5.735300e-02 1.323204e+04 
5.870100e-02 1.276292e+04 
5.988700e-02 1.235836e+04 
6.113500e-02 1.194342e+04 
6.225900e-02 1.158156e+04 
6.340100e-02 1.122809e+04 
6.480200e-02 1.081633e+04 
6.601100e-02 1.048255e+04 
6.725500e-02 1.016114e+04 
6.829100e-02 9.912347e+03 
6.958600e-02 9.622672e+03 
7.071100e-02 9.391827e+03 
7.192300e-02 9.163000e+03 
7.307400e-02 8.963765e+03 
7.412300e-02 8.796418e+03 
7.550400e-02 8.596516e+03 
7.663100e-02 8.446657e+03 
7.791200e-02 8.292092e+03 
7.912700e-02 8.157445e+03 
8.027600e-02 8.037862e+03 
8.138400e-02 7.928127e+03 
8.272200e-02 7.801325e+03 
8.406100e-02 7.678425e+03 
8.534100e-02 7.561830e+03 
8.653800e-02 7.451811e+03 
8.759800e-02 7.353622e+03 
8.900300e-02 7.221116e+03 
9.009000e-02 7.115683e+03 
9.113300e-02 7.011277e+03 
9.239600e-02 6.883271e+03 
9.358000e-02 6.760406e+03 
9.496100e-02 6.612883e+03 
9.608400e-02 6.492203e+03 
9.727500e-02 6.364506e+03 
9.852600e-02 6.227875e+03 
9.973800e-02 6.097675e+03 
1.009000e-01 5.974989e+03 
1.020900e-01 5.850901e+03 
1.034000e-01 5.718437e+03 
1.046000e-01 5.600815e+03 
1.057200e-01 5.495469e+03 
1.069100e-01 5.387414e+03 
1.082500e-01 5.271988e+03 
1.093900e-01 5.178922e+03 
1.105400e-01 5.088843e+03 
1.116900e-01 5.004901e+03 
1.129600e-01 4.916115e+03 
1.142000e-01 4.835657e+03 
1.153300e-01 4.765849e+03 
1.166400e-01 4.689546e+03 
1.177800e-01 4.627231e+03 
1.190000e-01 4.563282e+03 
1.201200e-01 4.508109e+03 
1.213400e-01 4.449811e+03 
1.227100e-01 4.387985e+03 
1.238900e-01 4.336259e+03 
1.250700e-01 4.286226e+03 
1.263200e-01 4.234369e+03 
1.275500e-01 4.184329e+03 
1.287500e-01 4.136151e+03 
1.299900e-01 4.086741e+03 
1.311300e-01 4.041505e+03 
1.323500e-01 3.992915e+03 
1.335900e-01 3.943575e+03 
1.347100e-01 3.898557e+03 
1.359800e-01 3.847642e+03 
1.372100e-01 3.797493e+03 
1.384300e-01 3.748087e+03 
1.395700e-01 3.701082e+03 
1.407700e-01 3.652432e+03 
1.420300e-01 3.600386e+03 
1.432800e-01 3.549899e+03 
1.444500e-01 3.502363e+03 
1.456300e-01 3.455409e+03 
1.468900e-01 3.406099e+03 
1.480500e-01 3.361582e+03 
1.491700e-01 3.319678e+03 
1.503800e-01 3.275606e+03 
1.516400e-01 3.230910e+03 
1.528200e-01 3.190962e+03 
1.540200e-01 3.151132e+03 
1.551900e-01 3.114356e+03 
1.564300e-01 3.076453e+03 
1.576600e-01 3.040327e+03 
1.588700e-01 3.006353e+03 
1.600900e-01 2.972814e+03 
1.612700e-01 2.942278e+03 
1.625400e-01 2.910025e+03 
1.637600e-01 2.880147e+03 
1.649500e-01 2.851834e+03 
1.662200e-01 2.822218e+03 
1.674000e-01 2.795476e+03 
1.685000e-01 2.770961e+03 
1.697500e-01 2.743470e+03 
1.710300e-01 2.715724e+03 
1.722200e-01 2.690383e+03 
1.734400e-01 2.664323e+03 
1.746400e-01 2.639105e+03 
1.758700e-01 2.613471e+03 
1.770900e-01 2.588022e+03 
1.782700e-01 2.563817e+03 
1.794600e-01 2.539429e+03 
1.807000e-01 2.514186e+03 
1.819100e-01 2.489965e+03 
1.830100e-01 2.467914e+03 
1.842200e-01 2.443973e+03 
1.855000e-01 2.419059e+03 
1.867000e-01 2.395845e+03 
1.879200e-01 2.372623e+03 
1.890900e-01 2.350699e+03 
1.902800e-01 2.328723e+03 
1.915200e-01 2.306186e+03 
1.926900e-01 2.285282e+03 
1.939000e-01 2.264091e+03 
1.951700e-01 2.242201e+03 
1.963100e-01 2.222919e+03 
1.975100e-01 2.203099e+03 
1.987800e-01 2.182447e+03 
2.000100e-01 2.162838e+03 
2.012500e-01 2.143563e+03 
2.023400e-01 2.126862e+03 
2.036100e-01 2.107738e+03 
2.048900e-01 2.088976e+03 
2.060400e-01 2.072365e+03 
2.072200e-01 2.055573e+03 
2.084200e-01 2.038923e+03 
2.096900e-01 2.021557e+03 
2.109200e-01 2.004985e+03 
2.121100e-01 1.989296e+03 
2.132700e-01 1.974218e+03 
2.145200e-01 1.958194e+03 
2.157200e-01 1.943084e+03 
2.168800e-01 1.928700e+03 
2.180700e-01 1.914140e+03 
2.193400e-01 1.898828e+03 
2.206000e-01 1.883872e+03 
2.217500e-01 1.870405e+03 
2.229500e-01 1.856534e+03 
2.241400e-01 1.842992e+03 
2.253500e-01 1.829404e+03 
2.264900e-01 1.816765e+03 
2.277100e-01 1.803416e+03 
2.289900e-01 1.789604e+03 
2.301500e-01 1.777250e+03 
2.313600e-01 1.764526e+03 
2.325600e-01 1.752100e+03 
2.337700e-01 1.739729e+03 
2.350000e-01 1.727314e+03 
2.362000e-01 1.715377e+03 
2.374100e-01 1.703518e+03 
2.386500e-01 1.691517e+03 
2.399100e-01 1.679479e+03 
2.410400e-01 1.668865e+03 
2.422500e-01 1.657640e+03 
2.435000e-01 1.646189e+03 
2.447300e-01 1.635070e+03 
2.458700e-01 1.624925e+03 
2.470600e-01 1.614458e+03 
2.483300e-01 1.603423e+03 
2.495600e-01 1.592892e+03 
2.507600e-01 1.582773e+03 
2.519600e-01 1.572773e+03 
2.532200e-01 1.562397e+03 
2.543700e-01 1.553054e+03 
2.555500e-01 1.543585e+03 
2.568000e-01 1.533670e+03 
2.580100e-01 1.524185e+03 
2.592400e-01 1.514666e+03 
2.604100e-01 1.505718e+03 
2.616100e-01 1.496643e+03 
2.628400e-01 1.487446e+03 
2.640600e-01 1.478427e+03 
2.652200e-01 1.469946e+03 
2.664300e-01 1.461195e+03 
2.676500e-01 1.452471e+03 
2.688400e-01 1.444049e+03 
2.700700e-01 1.435437e+03 
2.712400e-01 1.427334e+03 
2.724800e-01 1.418839e+03 
2.736700e-01 1.410759e+03 
2.748800e-01 1.402613e+03 
2.761000e-01 1.394488e+03 
2.773200e-01 1.386451e+03 
2.785400e-01 1.378493e+03 
2.797000e-01 1.370992e+03 
2.808900e-01 1.363375e+03 
2.821400e-01 1.355459e+03 
2.833900e-01 1.347628e+03 
2.845500e-01 1.340411e+03 
2.857800e-01 1.332837e+03 
2.870300e-01 1.325222e+03 
2.882100e-01 1.318107e+03 
2.893900e-01 1.311050e+03 
2.906300e-01 1.303701e+03 
2.918900e-01 1.296312e+03 
2.930500e-01 1.289579e+03 
2.942500e-01 1.282677e+03 
2.954200e-01 1.276002e+03 
2.966500e-01 1.269055e+03 
2.978900e-01 1.262122e+03 
2.990400e-01 1.255755e+03 
3.002700e-01 1.249006e+03 
3.015100e-01 1.242267e+03 
3.026800e-01 1.235972e+03 
3.038500e-01 1.229735e+03 
3.050300e-01 1.223505e+03 
3.062600e-01 1.217069e+03 
3.075000e-01 1.210645e+03 
3.087000e-01 1.204488e+03 
3.099100e-01 1.198339e+03 
3.111200e-01 1.192251e+03 
3.123100e-01 1.186323e+03 
3.135300e-01 1.180303e+03 
3.147300e-01 1.174437e+03 
3.159900e-01 1.168337e+03 
3.171800e-01 1.162636e+03 
3.183700e-01 1.156990e+03 
3.196300e-01 1.151067e+03 
3.208400e-01 1.145434e+03 
3.220300e-01 1.139944e+03 
3.232000e-01 1.134609e+03 
3.244300e-01 1.129056e+03 
3.256700e-01 1.123510e+03 
3.269200e-01 1.117972e+03 
3.280800e-01 1.112878e+03 
3.292500e-01 1.107800e+03 
3.304800e-01 1.102514e+03 
3.317100e-01 1.097275e+03 
3.328900e-01 1.092294e+03 
3.340700e-01 1.087356e+03 
3.353600e-01 1.082026e+03 
3.365300e-01 1.077241e+03 
3.377100e-01 1.072457e+03 
3.389200e-01 1.067593e+03 
3.401600e-01 1.062653e+03 
3.413700e-01 1.057888e+03 
3.425300e-01 1.053369e+03 
3.437700e-01 1.048578e+03 
3.449800e-01 1.043945e+03 
3.461800e-01 1.039389e+03 
3.473600e-01 1.034953e+03 
3.485800e-01 1.030425e+03 
3.498100e-01 1.025898e+03 
3.510200e-01 1.021483e+03 
3.522000e-01 1.017214e+03 
3.533900e-01 1.012943e+03 
3.546400e-01 1.008521e+03 
3.558400e-01 1.004313e+03 
3.570600e-01 1.000071e+03 
3.582700e-01 9.958979e+02 
3.595000e-01 9.916913e+02 
3.607100e-01 9.875997e+02 
3.618900e-01 9.836515e+02 
3.631200e-01 9.795693e+02 
3.643200e-01 9.756193e+02 
3.655500e-01 9.716034e+02 
3.667300e-01 9.677818e+02 
3.679500e-01 9.638909e+02 
3.691900e-01 9.599685e+02 
3.703600e-01 9.562970e+02 
3.715700e-01 9.525298e+02 
3.727700e-01 9.488232e+02 
3.739900e-01 9.450887e+02 
3.752000e-01 9.414216e+02 
3.763900e-01 9.378432e+02 
3.775800e-01 9.342924e+02 
3.788200e-01 9.306214e+02 
3.800300e-01 9.270676e+02 
3.812100e-01 9.236212e+02 
3.824200e-01 9.201094e+02 
3.836100e-01 9.166821e+02 
3.848600e-01 9.131099e+02 
3.860400e-01 9.097638e+02 
3.872400e-01 9.063865e+02 
3.884600e-01 9.030094e+02 
3.896500e-01 8.997517e+02 
3.908700e-01 8.964370e+02 
3.920600e-01 8.932282e+02 
3.933100e-01 8.898833e+02 
3.945300e-01 8.866436e+02 
3.957200e-01 8.834991e+02 
3.969300e-01 8.803232e+02 
3.981700e-01 8.770931e+02 
3.993500e-01 8.740421e+02 
4.094840e-01 8.486445e+02 
4.272360e-01 8.078468e+02 
4.454600e-01 7.697764e+02 
4.630560e-01 7.361772e+02 
4.804610e-01 7.055951e+02 
4.980690e-01 6.771111e+02 
5.159230e-01 6.504385e+02 
5.317440e-01 6.285558e+02 
5.489640e-01 6.063041e+02 
5.671990e-01 5.844228e+02 
5.838690e-01 5.658369e+02 
6.018840e-01 5.471520e+02 
6.202330e-01 5.294595e+02 
6.379250e-01 5.134638e+02 
6.545410e-01 4.993893e+02 
6.714560e-01 4.858942e+02 
6.892080e-01 4.725298e+02 
7.066010e-01 4.601096e+02 
7.240540e-01 4.483373e+02 
7.420450e-01 4.368918e+02 
7.593780e-01 4.263148e+02 
7.764720e-01 4.163955e+02 
7.942840e-01 4.065533e+02 
8.116170e-01 3.973089e+02 
8.288310e-01 3.885437e+02 
8.462240e-01 3.799859e+02 
8.631980e-01 3.719556e+02 
8.810700e-01 3.638231e+02 
8.989410e-01 3.560027e+02 
9.166330e-01 3.485049e+02 
9.345640e-01 3.411212e+02 
9.515980e-01 3.343366e+02 
9.688720e-01 3.276894e+02 
9.865640e-01 3.210728e+02 
1.031870e+00 3.049895e+02 
1.063490e+00 2.944478e+02 
1.097920e+00 2.835332e+02 
1.134370e+00 2.726246e+02 
1.167730e+00 2.630966e+02 
1.203830e+00 2.533215e+02 
1.240470e+00 2.439091e+02 
1.275790e+00 2.352460e+02 
1.309140e+00 2.274802e+02 
1.342970e+00 2.199108e+02 
1.378420e+00 2.123876e+02 
1.413200e+00 2.053176e+02 
1.448110e+00 1.985431e+02 
1.484090e+00 1.918882e+02 
1.518820e+00 1.857476e+02 
1.552880e+00 1.799601e+02 
1.588630e+00 1.741681e+02 
1.623230e+00 1.688075e+02 
1.657720e+00 1.636844e+02 
1.692450e+00 1.587709e+02 
1.726400e+00 1.541222e+02 
1.762200e+00 1.494189e+02 
1.797880e+00 1.449359e+02 
1.833270e+00 1.406734e+02 
1.869070e+00 1.365322e+02 
1.903200e+00 1.327505e+02 
1.937740e+00 1.290666e+02 
1.973190e+00 1.254287e+02 
2.007440e+00 1.220476e+02 
2.042160e+00 1.187492e+02 
2.077900e+00 1.154761e+02 
2.112390e+00 1.124532e+02 
2.146220e+00 1.095685e+02 
2.181600e+00 1.066770e+02 
2.216930e+00 1.038958e+02 
2.250760e+00 1.013213e+02 
2.286500e+00 9.869443e+01 
2.321770e+00 9.619734e+01 
2.355950e+00 9.386229e+01 
2.391280e+00 9.152310e+01 
2.426240e+00 8.929366e+01 
2.460670e+00 8.716971e+01 
2.495640e+00 8.507737e+01 
2.531080e+00 8.303830e+01 
2.566220e+00 8.107819e+01 
2.600830e+00 7.921002e+01 
2.635080e+00 7.742146e+01 
2.670340e+00 7.563144e+01 
2.705970e+00 7.388796e+01 
2.740040e+00 7.227523e+01 
2.774520e+00 7.068369e+01 
2.809730e+00 6.911277e+01 
2.844390e+00 6.761534e+01 
2.879960e+00 6.612334e+01 
2.914860e+00 6.470263e+01 
2.949410e+00 6.333890e+01 
2.984440e+00 6.199994e+01 
3.019760e+00 6.068624e+01 
3.054730e+00 5.942219e+01 
3.089030e+00 5.821910e+01 
3.124060e+00 5.702603e+01 
3.159560e+00 5.585206e+01 
3.194710e+00 5.472343e+01 
3.229010e+00 5.365302e+01 
3.263320e+00 5.260694e+01 
3.297930e+00 5.158175e+01 
3.332830e+00 5.057811e+01 
3.368040e+00 4.959231e+01 
3.403300e+00 4.863141e+01 
3.438450e+00 4.769785e+01 
3.473060e+00 4.680289e+01 
3.508440e+00 4.591630e+01 
3.543110e+00 4.507005e+01 
3.577470e+00 4.425039e+01 
3.613040e+00 4.342475e+01 
3.648120e+00 4.263404e+01 
3.682910e+00 4.186816e+01 
3.718050e+00 4.111097e+01 
3.753320e+00 4.037223e+01 
3.787980e+00 3.966732e+01 
3.822290e+00 3.898537e+01 
3.857020e+00 3.831004e+01 
3.891920e+00 3.764793e+01 
3.926650e+00 3.700504e+01 
3.961970e+00 3.636696e+01 
3.997360e+00 3.574315e+01 
4.031670e+00 3.515286e+01 
4.066330e+00 3.457168e+01 
4.101420e+00 3.399684e+01 
4.136200e+00 3.344010e+01 
4.170810e+00 3.289859e+01 
4.206250e+00 3.235799e+01 
4.241580e+00 3.183154e+01 
4.276300e+00 3.132547e+01 
4.310970e+00 3.083105e+01 
4.346120e+00 3.034145e+01 
4.380600e+00 2.987273e+01 
4.414730e+00 2.941858e+01 
4.450350e+00 2.895440e+01 
4.485320e+00 2.850848e+01 
4.519810e+00 2.807913e+01 
4.555430e+00 2.764558e+01 
4.590870e+00 2.722382e+01 
4.625480e+00 2.682143e+01 
4.659910e+00 2.642923e+01 
4.695230e+00 2.603502e+01 
4.729960e+00 2.565525e+01 
4.764450e+00 2.528556e+01 
4.799530e+00 2.491695e+01 
4.834910e+00 2.455261e+01 
4.869700e+00 2.420395e+01 
4.904370e+00 2.386364e+01 
4.939450e+00 2.352595e+01 
4.973940e+00 2.320027e+01 
5.008430e+00 2.288074e+01 
5.043810e+00 2.255919e+01 
5.078840e+00 2.224688e+01 
5.113500e+00 2.194367e+01 
5.148890e+00 2.164229e+01 
5.184210e+00 2.134725e+01 
5.219060e+00 2.106121e+01 
5.253660e+00 2.078149e+01 
5.288570e+00 2.050439e+01 
5.323420e+00 2.023386e+01 
5.358440e+00 1.996812e+01 
5.393590e+00 1.970618e+01 
5.428310e+00 1.945205e+01 
5.462800e+00 1.920402e+01 
5.497640e+00 1.895784e+01 
5.532670e+00 1.871620e+01 
5.567280e+00 1.848207e+01 
5.602000e+00 1.825120e+01 
5.637270e+00 1.801988e+01 
5.672410e+00 1.779319e+01 
5.707020e+00 1.757369e+01 
5.742040e+00 1.735691e+01 
5.777430e+00 1.714186e+01 
5.812210e+00 1.693404e+01 
5.846820e+00 1.673060e+01 
5.881610e+00 1.652944e+01 
5.916510e+00 1.633093e+01 
5.951600e+00 1.613524e+01 
5.986560e+00 1.594372e+01 
6.021830e+00 1.575363e+01 
6.056490e+00 1.557023e+01 
6.091160e+00 1.539004e+01 
6.125830e+00 1.521268e+01 
6.161090e+00 1.503513e+01 
6.195760e+00 1.486328e+01 
6.230420e+00 1.469413e+01 
6.265690e+00 1.452470e+01 
6.300950e+00 1.435877e+01 
6.335620e+00 1.419811e+01 
6.370880e+00 1.403721e+01 
6.405550e+00 1.388184e+01 
6.440220e+00 1.372897e+01 
6.475480e+00 1.357584e+01 
6.510150e+00 1.342773e+01 
6.544810e+00 1.328233e+01 
6.580080e+00 1.313656e+01 
6.614750e+00 1.299538e+01 
6.649410e+00 1.285632e+01 
6.684080e+00 1.271923e+01 
6.719340e+00 1.258183e+01 
6.754010e+00 1.244885e+01 
6.788680e+00 1.231818e+01 
6.823940e+00 1.218717e+01 
6.859800e+00 1.205586e+01 
6.894470e+00 1.193113e+01 
6.929140e+00 1.180830e+01 
6.963800e+00 1.168720e+01 
6.999070e+00 1.156569e+01 
7.033730e+00 1.144798e+01 
7.068400e+00 1.133185e+01 
7.103660e+00 1.121537e+01 
7.138330e+00 1.110273e+01 
7.173600e+00 1.099037e+01 
7.208260e+00 1.088145e+01 
7.243530e+00 1.077211e+01 
7.277600e+00 1.066768e+01 
7.312860e+00 1.056083e+01 
7.348120e+00 1.045542e+01 
7.382790e+00 1.035315e+01 
7.417460e+00 1.025281e+01 
7.452720e+00 1.015239e+01 
7.487390e+00 1.005495e+01 
7.522650e+00 9.957133e+00 
7.557320e+00 9.862241e+00 
7.591990e+00 9.768577e+00 
7.627250e+00 9.674541e+00 
7.662510e+00 9.581718e+00 
7.697180e+00 9.491915e+00 
7.731850e+00 9.403358e+00 
7.766510e+00 9.315932e+00 
7.801180e+00 9.229570e+00 
7.836440e+00 9.142865e+00 
7.871110e+00 9.058690e+00 
7.906380e+00 8.974121e+00 
7.941040e+00 8.892042e+00 
7.976310e+00 8.809733e+00 
8.011570e+00 8.728686e+00 
8.046240e+00 8.649967e+00 
8.080900e+00 8.572218e+00 
8.115570e+00 8.495430e+00 
8.150830e+00 8.418462e+00 
8.185500e+00 8.343690e+00 
8.220770e+00 8.268534e+00 
8.255430e+00 8.195558e+00 
8.290100e+00 8.123610e+00 
8.324770e+00 8.052526e+00 
8.359430e+00 7.982293e+00 
8.394700e+00 7.911661e+00 
8.429960e+00 7.841997e+00 
8.464630e+00 7.774412e+00 
8.499890e+00 7.706473e+00 
8.534560e+00 7.640442e+00 
8.569200e+00 7.575220e+00 
