# Parameters:
# omega_b = 0.023327, omega_m = 0.143701, n_s = 0.939764, h = 55.472441, w = -1.000000, sigma_8 = 0.797638
# z = 0.500000
#
# k[1/Mpc] # P(k):
8.694000e-04 1.179808e+04 
2.077466e-03 2.469385e+04 
3.285532e-03 3.465914e+04 
4.493598e-03 4.229430e+04 
5.701664e-03 4.794336e+04 
6.909730e-03 5.193489e+04 
8.117797e-03 5.463273e+04 
9.325863e-03 5.622309e+04 
1.053393e-02 5.689121e+04 
1.174199e-02 5.680909e+04 
1.295006e-02 5.608392e+04 
1.415813e-02 5.486419e+04 
1.536619e-02 5.327930e+04 
1.657426e-02 5.142072e+04 
1.778233e-02 4.942864e+04 
1.899039e-02 4.752781e+04 
2.019846e-02 4.567296e+04 
2.140652e-02 4.377261e+04 
2.261459e-02 4.186236e+04 
2.382266e-02 4.001015e+04 
2.503072e-02 3.825069e+04 
2.623879e-02 3.659646e+04 
2.744685e-02 3.504920e+04 
2.865492e-02 3.361803e+04 
2.986299e-02 3.230111e+04 
3.100100e-02 3.116182e+04 
3.220400e-02 3.005927e+04 
3.288100e-02 2.948278e+04 
3.424300e-02 2.841227e+04 
3.555100e-02 2.748261e+04 
3.686000e-02 2.663845e+04 
3.795000e-02 2.599108e+04 
3.929100e-02 2.525677e+04 
4.039800e-02 2.469088e+04 
4.164000e-02 2.409108e+04 
4.294400e-02 2.348953e+04 
4.415000e-02 2.295453e+04 
4.542900e-02 2.239670e+04 
4.660900e-02 2.189229e+04 
4.782300e-02 2.136844e+04 
4.892900e-02 2.089340e+04 
5.031200e-02 2.029569e+04 
5.155900e-02 1.975032e+04 
5.238100e-02 1.938886e+04 
5.378200e-02 1.877128e+04 
5.513400e-02 1.817230e+04 
5.627600e-02 1.766622e+04 
5.735300e-02 1.719229e+04 
5.870100e-02 1.660643e+04 
5.988700e-02 1.610190e+04 
6.113500e-02 1.558400e+04 
6.225900e-02 1.513096e+04 
6.340100e-02 1.468625e+04 
6.480200e-02 1.416506e+04 
6.601100e-02 1.373851e+04 
6.725500e-02 1.332382e+04 
6.829100e-02 1.299924e+04 
6.958600e-02 1.261811e+04 
7.071100e-02 1.231094e+04 
7.192300e-02 1.200363e+04 
7.307400e-02 1.173371e+04 
7.412300e-02 1.150538e+04 
7.550400e-02 1.123067e+04 
7.663100e-02 1.102389e+04 
7.791200e-02 1.081001e+04 
7.912700e-02 1.062400e+04 
8.027600e-02 1.045942e+04 
8.138400e-02 1.030913e+04 
8.272200e-02 1.013669e+04 
8.406100e-02 9.970938e+03 
8.534100e-02 9.815194e+03 
8.653800e-02 9.669259e+03 
8.759800e-02 9.539524e+03 
8.900300e-02 9.365114e+03 
9.009000e-02 9.226751e+03 
9.113300e-02 9.090061e+03 
9.239600e-02 8.922763e+03 
9.358000e-02 8.762549e+03 
9.496100e-02 8.570951e+03 
9.608400e-02 8.414763e+03 
9.727500e-02 8.249943e+03 
9.852600e-02 8.075015e+03 
9.973800e-02 7.909001e+03 
1.009000e-01 7.753121e+03 
1.020900e-01 7.596818e+03 
1.034000e-01 7.430445e+03 
1.046000e-01 7.283211e+03 
1.057200e-01 7.151894e+03 
1.069100e-01 7.017259e+03 
1.082500e-01 6.873499e+03 
1.093900e-01 6.757334e+03 
1.105400e-01 6.644735e+03 
1.116900e-01 6.539059e+03 
1.129600e-01 6.426929e+03 
1.142000e-01 6.324274e+03 
1.153300e-01 6.234661e+03 
1.166400e-01 6.135854e+03 
1.177800e-01 6.054266e+03 
1.190000e-01 5.970105e+03 
1.201200e-01 5.896539e+03 
1.213400e-01 5.818629e+03 
1.227100e-01 5.735024e+03 
1.238900e-01 5.664966e+03 
1.250700e-01 5.596882e+03 
1.263200e-01 5.526355e+03 
1.275500e-01 5.458382e+03 
1.287500e-01 5.393186e+03 
1.299900e-01 5.326710e+03 
1.311300e-01 5.266279e+03 
1.323500e-01 5.202003e+03 
1.335900e-01 5.137295e+03 
1.347100e-01 5.078978e+03 
1.359800e-01 5.013494e+03 
1.372100e-01 4.949922e+03 
1.384300e-01 4.887627e+03 
1.395700e-01 4.829157e+03 
1.407700e-01 4.768711e+03 
1.420300e-01 4.704870e+03 
1.432800e-01 4.642921e+03 
1.444500e-01 4.585033e+03 
1.456300e-01 4.527833e+03 
1.468900e-01 4.467707e+03 
1.480500e-01 4.413395e+03 
1.491700e-01 4.362080e+03 
1.503800e-01 4.307868e+03 
1.516400e-01 4.252732e+03 
1.528200e-01 4.202830e+03 
1.540200e-01 4.153064e+03 
1.551900e-01 4.106380e+03 
1.564300e-01 4.058074e+03 
1.576600e-01 4.011622e+03 
1.588700e-01 3.967435e+03 
1.600900e-01 3.923774e+03 
1.612700e-01 3.883326e+03 
1.625400e-01 3.840603e+03 
1.637600e-01 3.800778e+03 
1.649500e-01 3.762891e+03 
1.662200e-01 3.723256e+03 
1.674000e-01 3.687435e+03 
1.685000e-01 3.654599e+03 
1.697500e-01 3.617930e+03 
1.710300e-01 3.581073e+03 
1.722200e-01 3.547412e+03 
1.734400e-01 3.513291e+03 
1.746400e-01 3.480293e+03 
1.758700e-01 3.446937e+03 
1.770900e-01 3.414194e+03 
1.782700e-01 3.383051e+03 
1.794600e-01 3.351969e+03 
1.807000e-01 3.319993e+03 
1.819100e-01 3.289308e+03 
1.830100e-01 3.261658e+03 
1.842200e-01 3.231681e+03 
1.855000e-01 3.200490e+03 
1.867000e-01 3.171619e+03 
1.879200e-01 3.142733e+03 
1.890900e-01 3.115466e+03 
1.902800e-01 3.088167e+03 
1.915200e-01 3.060166e+03 
1.926900e-01 3.034175e+03 
1.939000e-01 3.007769e+03 
1.951700e-01 2.980487e+03 
1.963100e-01 2.956414e+03 
1.975100e-01 2.931566e+03 
1.987800e-01 2.905671e+03 
2.000100e-01 2.881027e+03 
2.012500e-01 2.856674e+03 
2.023400e-01 2.835570e+03 
2.036100e-01 2.811363e+03 
2.048900e-01 2.787456e+03 
2.060400e-01 2.766289e+03 
2.072200e-01 2.744875e+03 
2.084200e-01 2.723467e+03 
2.096900e-01 2.701137e+03 
2.109200e-01 2.679827e+03 
2.121100e-01 2.659469e+03 
2.132700e-01 2.639893e+03 
2.145200e-01 2.619089e+03 
2.157200e-01 2.599317e+03 
2.168800e-01 2.580423e+03 
2.180700e-01 2.561298e+03 
2.193400e-01 2.541075e+03 
2.206000e-01 2.521118e+03 
2.217500e-01 2.503148e+03 
2.229500e-01 2.484640e+03 
2.241400e-01 2.466208e+03 
2.253500e-01 2.447704e+03 
2.264900e-01 2.430494e+03 
2.277100e-01 2.412096e+03 
2.289900e-01 2.392813e+03 
2.301500e-01 2.375567e+03 
2.313600e-01 2.357802e+03 
2.325600e-01 2.339967e+03 
2.337700e-01 2.322213e+03 
2.350000e-01 2.304399e+03 
2.362000e-01 2.287063e+03 
2.374100e-01 2.269593e+03 
2.386500e-01 2.251919e+03 
2.399100e-01 2.234193e+03 
2.410400e-01 2.218276e+03 
2.422500e-01 2.201411e+03 
2.435000e-01 2.184210e+03 
2.447300e-01 2.167478e+03 
2.458700e-01 2.152080e+03 
2.470600e-01 2.136196e+03 
2.483300e-01 2.119455e+03 
2.495600e-01 2.103493e+03 
2.507600e-01 2.088174e+03 
2.519600e-01 2.073038e+03 
2.532200e-01 2.057339e+03 
2.543700e-01 2.043328e+03 
2.555500e-01 2.029215e+03 
2.568000e-01 2.014442e+03 
2.580100e-01 2.000312e+03 
2.592400e-01 1.986373e+03 
2.604100e-01 1.973378e+03 
2.616100e-01 1.960199e+03 
2.628400e-01 1.946847e+03 
2.640600e-01 1.934042e+03 
2.652200e-01 1.922115e+03 
2.664300e-01 1.909811e+03 
2.676500e-01 1.897545e+03 
2.688400e-01 1.885940e+03 
2.700700e-01 1.874220e+03 
2.712400e-01 1.863193e+03 
2.724800e-01 1.851633e+03 
2.736700e-01 1.840796e+03 
2.748800e-01 1.830032e+03 
2.761000e-01 1.819297e+03 
2.773200e-01 1.808677e+03 
2.785400e-01 1.798238e+03 
2.797000e-01 1.788554e+03 
2.808900e-01 1.778721e+03 
2.821400e-01 1.768502e+03 
2.833900e-01 1.758399e+03 
2.845500e-01 1.749232e+03 
2.857800e-01 1.739611e+03 
2.870300e-01 1.729938e+03 
2.882100e-01 1.720900e+03 
2.893900e-01 1.711996e+03 
2.906300e-01 1.702758e+03 
2.918900e-01 1.693469e+03 
2.930500e-01 1.685004e+03 
2.942500e-01 1.676340e+03 
2.954200e-01 1.667997e+03 
2.966500e-01 1.659312e+03 
2.978900e-01 1.650646e+03 
2.990400e-01 1.642688e+03 
3.002700e-01 1.634270e+03 
3.015100e-01 1.625874e+03 
3.026800e-01 1.618029e+03 
3.038500e-01 1.610258e+03 
3.050300e-01 1.602495e+03 
3.062600e-01 1.594489e+03 
3.075000e-01 1.586496e+03 
3.087000e-01 1.578837e+03 
3.099100e-01 1.571187e+03 
3.111200e-01 1.563615e+03 
3.123100e-01 1.556247e+03 
3.135300e-01 1.548763e+03 
3.147300e-01 1.541472e+03 
3.159900e-01 1.533889e+03 
3.171800e-01 1.526802e+03 
3.183700e-01 1.519785e+03 
3.196300e-01 1.512424e+03 
3.208400e-01 1.505423e+03 
3.220300e-01 1.498600e+03 
3.232000e-01 1.491969e+03 
3.244300e-01 1.485068e+03 
3.256700e-01 1.478176e+03 
3.269200e-01 1.471292e+03 
3.280800e-01 1.464962e+03 
3.292500e-01 1.458651e+03 
3.304800e-01 1.452082e+03 
3.317100e-01 1.445572e+03 
3.328900e-01 1.439382e+03 
3.340700e-01 1.433246e+03 
3.353600e-01 1.426618e+03 
3.365300e-01 1.420669e+03 
3.377100e-01 1.414720e+03 
3.389200e-01 1.408672e+03 
3.401600e-01 1.402530e+03 
3.413700e-01 1.396603e+03 
3.425300e-01 1.390979e+03 
3.437700e-01 1.385018e+03 
3.449800e-01 1.379253e+03 
3.461800e-01 1.373584e+03 
3.473600e-01 1.368063e+03 
3.485800e-01 1.362423e+03 
3.498100e-01 1.356785e+03 
3.510200e-01 1.351285e+03 
3.522000e-01 1.345967e+03 
3.533900e-01 1.340648e+03 
3.546400e-01 1.335133e+03 
3.558400e-01 1.329885e+03 
3.570600e-01 1.324594e+03 
3.582700e-01 1.319389e+03 
3.595000e-01 1.314143e+03 
3.607100e-01 1.309037e+03 
3.618900e-01 1.304108e+03 
3.631200e-01 1.299011e+03 
3.643200e-01 1.294079e+03 
3.655500e-01 1.289066e+03 
3.667300e-01 1.284295e+03 
3.679500e-01 1.279424e+03 
3.691900e-01 1.274515e+03 
3.703600e-01 1.269919e+03 
3.715700e-01 1.265204e+03 
3.727700e-01 1.260564e+03 
3.739900e-01 1.255889e+03 
3.752000e-01 1.251294e+03 
3.763900e-01 1.246811e+03 
3.775800e-01 1.242363e+03 
3.788200e-01 1.237764e+03 
3.800300e-01 1.233312e+03 
3.812100e-01 1.228985e+03 
3.824200e-01 1.224571e+03 
3.836100e-01 1.220262e+03 
3.848600e-01 1.215772e+03 
3.860400e-01 1.211566e+03 
3.872400e-01 1.207321e+03 
3.884600e-01 1.203071e+03 
3.896500e-01 1.198969e+03 
3.908700e-01 1.194796e+03 
3.920600e-01 1.190756e+03 
3.933100e-01 1.186545e+03 
3.945300e-01 1.182467e+03 
3.957200e-01 1.178499e+03 
3.969300e-01 1.174488e+03 
3.981700e-01 1.170410e+03 
3.993500e-01 1.166557e+03 
4.094840e-01 1.134436e+03 
4.272360e-01 1.082620e+03 
4.454600e-01 1.034057e+03 
4.630560e-01 9.910206e+02 
4.804610e-01 9.517315e+02 
4.980690e-01 9.150501e+02 
5.159230e-01 8.806459e+02 
5.317440e-01 8.523834e+02 
5.489640e-01 8.235874e+02 
5.671990e-01 7.952297e+02 
5.838690e-01 7.710829e+02 
6.018840e-01 7.467639e+02 
6.202330e-01 7.236383e+02 
6.379250e-01 7.026859e+02 
6.545410e-01 6.841544e+02 
6.714560e-01 6.663275e+02 
6.892080e-01 6.485884e+02 
7.066010e-01 6.320088e+02 
7.240540e-01 6.162261e+02 
7.420450e-01 6.007946e+02 
7.593780e-01 5.864494e+02 
7.764720e-01 5.729303e+02 
7.942840e-01 5.594578e+02 
8.116170e-01 5.467265e+02 
8.288310e-01 5.345849e+02 
8.462240e-01 5.226865e+02 
8.631980e-01 5.114706e+02 
8.810700e-01 5.000677e+02 
8.989410e-01 4.890606e+02 
9.166330e-01 4.784646e+02 
9.345640e-01 4.680000e+02 
9.515980e-01 4.583558e+02 
9.688720e-01 4.488801e+02 
9.865640e-01 4.394258e+02 
1.031870e+00 4.163773e+02 
1.063490e+00 4.012159e+02 
1.097920e+00 3.854928e+02 
1.134370e+00 3.697636e+02 
1.167730e+00 3.560231e+02 
1.203830e+00 3.419201e+02 
1.240470e+00 3.283569e+02 
1.275790e+00 3.158845e+02 
1.309140e+00 3.047200e+02 
1.342970e+00 2.938607e+02 
1.378420e+00 2.830847e+02 
1.413200e+00 2.729765e+02 
1.448110e+00 2.633147e+02 
1.484090e+00 2.538426e+02 
1.518820e+00 2.451309e+02 
1.552880e+00 2.369364e+02 
1.588630e+00 2.287609e+02 
1.623230e+00 2.212103e+02 
1.657720e+00 2.140150e+02 
1.692450e+00 2.071263e+02 
1.726400e+00 2.006294e+02 
1.762200e+00 1.940775e+02 
1.797880e+00 1.878475e+02 
1.833270e+00 1.819369e+02 
1.869070e+00 1.762120e+02 
1.903200e+00 1.709959e+02 
1.937740e+00 1.659278e+02 
1.973190e+00 1.609368e+02 
2.007440e+00 1.563097e+02 
2.042160e+00 1.518054e+02 
2.077900e+00 1.473468e+02 
2.112390e+00 1.432382e+02 
2.146220e+00 1.393293e+02 
2.181600e+00 1.354180e+02 
2.216930e+00 1.316654e+02 
2.250760e+00 1.281993e+02 
2.286500e+00 1.246707e+02 
2.321770e+00 1.213240e+02 
2.355950e+00 1.182007e+02 
2.391280e+00 1.150794e+02 
2.426240e+00 1.121106e+02 
2.460670e+00 1.092881e+02 
2.495640e+00 1.065131e+02 
2.531080e+00 1.038143e+02 
2.566220e+00 1.012257e+02 
2.600830e+00 9.876310e+01 
2.635080e+00 9.640927e+01 
2.670340e+00 9.405942e+01 
2.705970e+00 9.177449e+01 
2.740040e+00 8.966421e+01 
2.774520e+00 8.758579e+01 
2.809730e+00 8.553804e+01 
2.844390e+00 8.358902e+01 
2.879960e+00 8.165080e+01 
2.914860e+00 7.980870e+01 
2.949410e+00 7.804286e+01 
2.984440e+00 7.631220e+01 
3.019760e+00 7.461710e+01 
3.054730e+00 7.298820e+01 
3.089030e+00 7.144107e+01 
3.124060e+00 6.990870e+01 
3.159560e+00 6.840320e+01 
3.194710e+00 6.695826e+01 
3.229010e+00 6.558923e+01 
3.263320e+00 6.425418e+01 
3.297930e+00 6.294707e+01 
3.332830e+00 6.166936e+01 
3.368040e+00 6.041611e+01 
3.403300e+00 5.919594e+01 
3.438450e+00 5.801261e+01 
3.473060e+00 5.687910e+01 
3.508440e+00 5.575819e+01 
3.543110e+00 5.468904e+01 
3.577470e+00 5.365536e+01 
3.613040e+00 5.261494e+01 
3.648120e+00 5.161997e+01 
3.682910e+00 5.065719e+01 
3.718050e+00 4.970675e+01 
3.753320e+00 4.878029e+01 
3.787980e+00 4.789723e+01 
3.822290e+00 4.704379e+01 
3.857020e+00 4.619975e+01 
3.891920e+00 4.537293e+01 
3.926650e+00 4.457117e+01 
3.961970e+00 4.377599e+01 
3.997360e+00 4.299960e+01 
4.031670e+00 4.226535e+01 
4.066330e+00 4.154338e+01 
4.101420e+00 4.082957e+01 
4.136200e+00 4.013930e+01 
4.170810e+00 3.946815e+01 
4.206250e+00 3.879905e+01 
4.241580e+00 3.814779e+01 
4.276300e+00 3.752243e+01 
4.310970e+00 3.691194e+01 
4.346120e+00 3.630781e+01 
4.380600e+00 3.572998e+01 
4.414730e+00 3.517030e+01 
4.450350e+00 3.459911e+01 
4.485320e+00 3.405055e+01 
4.519810e+00 3.352290e+01 
4.555430e+00 3.299041e+01 
4.590870e+00 3.247268e+01 
4.625480e+00 3.197915e+01 
4.659910e+00 3.149826e+01 
4.695230e+00 3.101549e+01 
4.729960e+00 3.055059e+01 
4.764450e+00 3.009832e+01 
4.799530e+00 2.964775e+01 
4.834910e+00 2.920253e+01 
4.869700e+00 2.877681e+01 
4.904370e+00 2.836145e+01 
4.939450e+00 2.794948e+01 
4.973940e+00 2.755249e+01 
5.008430e+00 2.716311e+01 
5.043810e+00 2.677157e+01 
5.078840e+00 2.639150e+01 
5.113500e+00 2.602258e+01 
5.148890e+00 2.565620e+01 
5.184210e+00 2.529761e+01 
5.219060e+00 2.495010e+01 
5.253660e+00 2.461055e+01 
5.288570e+00 2.427424e+01 
5.323420e+00 2.394607e+01 
5.358440e+00 2.362388e+01 
5.393590e+00 2.330635e+01 
5.428310e+00 2.299849e+01 
5.462800e+00 2.269817e+01 
5.497640e+00 2.240014e+01 
5.532670e+00 2.210774e+01 
5.567280e+00 2.182452e+01 
5.602000e+00 2.154530e+01 
5.637270e+00 2.126576e+01 
5.672410e+00 2.099189e+01 
5.707020e+00 2.072677e+01 
5.742040e+00 2.046507e+01 
5.777430e+00 2.020551e+01 
5.812210e+00 1.995473e+01 
5.846820e+00 1.970938e+01 
5.881610e+00 1.946685e+01 
5.916510e+00 1.922755e+01 
5.951600e+00 1.899176e+01 
5.986560e+00 1.876106e+01 
6.021830e+00 1.853211e+01 
6.056490e+00 1.831132e+01 
6.091160e+00 1.809446e+01 
6.125830e+00 1.788104e+01 
6.161090e+00 1.766746e+01 
6.195760e+00 1.746083e+01 
6.230420e+00 1.725749e+01 
6.265690e+00 1.705385e+01 
6.300950e+00 1.685449e+01 
6.335620e+00 1.666150e+01 
6.370880e+00 1.646825e+01 
6.405550e+00 1.628173e+01 
6.440220e+00 1.609825e+01 
6.475480e+00 1.591448e+01 
6.510150e+00 1.573679e+01 
6.544810e+00 1.556240e+01 
6.580080e+00 1.538759e+01 
6.614750e+00 1.521831e+01 
6.649410e+00 1.505165e+01 
6.684080e+00 1.488739e+01 
6.719340e+00 1.472279e+01 
6.754010e+00 1.456351e+01 
6.788680e+00 1.440703e+01 
6.823940e+00 1.425018e+01 
6.859800e+00 1.409299e+01 
6.894470e+00 1.394373e+01 
6.929140e+00 1.379677e+01 
6.963800e+00 1.365191e+01 
6.999070e+00 1.350658e+01 
7.033730e+00 1.336586e+01 
7.068400e+00 1.322705e+01 
7.103660e+00 1.308784e+01 
7.138330e+00 1.295324e+01 
7.173600e+00 1.281901e+01 
7.208260e+00 1.268890e+01 
7.243530e+00 1.255830e+01 
7.277600e+00 1.243361e+01 
7.312860e+00 1.230608e+01 
7.348120e+00 1.218029e+01 
7.382790e+00 1.205825e+01 
7.417460e+00 1.193855e+01 
7.452720e+00 1.181879e+01 
7.487390e+00 1.170258e+01 
7.522650e+00 1.158596e+01 
7.557320e+00 1.147284e+01 
7.591990e+00 1.136121e+01 
7.627250e+00 1.124915e+01 
7.662510e+00 1.113856e+01 
7.697180e+00 1.103160e+01 
7.731850e+00 1.092614e+01 
7.766510e+00 1.082205e+01 
7.801180e+00 1.071925e+01 
7.836440e+00 1.061606e+01 
7.871110e+00 1.051590e+01 
7.906380e+00 1.041529e+01 
7.941040e+00 1.031766e+01 
7.976310e+00 1.021978e+01 
8.011570e+00 1.012341e+01 
8.046240e+00 1.002983e+01 
8.080900e+00 9.937423e+00 
8.115570e+00 9.846171e+00 
8.150830e+00 9.754735e+00 
8.185500e+00 9.665921e+00 
8.220770e+00 9.576665e+00 
8.255430e+00 9.490011e+00 
8.290100e+00 9.404608e+00 
8.324770e+00 9.320246e+00 
8.359430e+00 9.236906e+00 
8.394700e+00 9.153106e+00 
8.429960e+00 9.070471e+00 
8.464630e+00 8.990319e+00 
8.499890e+00 8.909761e+00 
8.534560e+00 8.831476e+00 
8.569200e+00 8.754163e+00 
