# Parameters:
# omega_b = 0.023264, omega_m = 0.148937, n_s = 0.870472, h = 68.700787, w = -1.000000, sigma_8 = 0.796063
# z = 0.500000
#
# k[1/Mpc] # P(k):
8.694000e-04 1.207887e+04 
2.077466e-03 2.387642e+04 
3.285532e-03 3.255135e+04 
4.493598e-03 3.897526e+04 
5.701664e-03 4.357601e+04 
6.909730e-03 4.671346e+04 
8.117797e-03 4.874342e+04 
9.325863e-03 4.984704e+04 
1.053393e-02 5.019280e+04 
1.174199e-02 4.992877e+04 
1.295006e-02 4.915019e+04 
1.415813e-02 4.798259e+04 
1.536619e-02 4.652783e+04 
1.657426e-02 4.485186e+04 
1.778233e-02 4.298982e+04 
1.899039e-02 4.101658e+04 
2.019846e-02 3.903350e+04 
2.140652e-02 3.711726e+04 
2.261459e-02 3.527561e+04 
2.382266e-02 3.352536e+04 
2.503072e-02 3.188457e+04 
2.623879e-02 3.036065e+04 
2.744685e-02 2.895448e+04 
2.865492e-02 2.766988e+04 
2.986299e-02 2.650259e+04 
3.100100e-02 2.550708e+04 
3.220400e-02 2.455734e+04 
3.288100e-02 2.406773e+04 
3.424300e-02 2.317100e+04 
3.555100e-02 2.240610e+04 
3.686000e-02 2.172408e+04 
3.795000e-02 2.120879e+04 
3.929100e-02 2.063315e+04 
4.039800e-02 2.019335e+04 
4.164000e-02 1.972863e+04 
4.294400e-02 1.926036e+04 
4.415000e-02 1.883992e+04 
4.542900e-02 1.839259e+04 
4.660900e-02 1.798083e+04 
4.782300e-02 1.754038e+04 
4.892900e-02 1.713301e+04 
5.031200e-02 1.660860e+04 
5.155900e-02 1.611959e+04 
5.238100e-02 1.579130e+04 
5.378200e-02 1.522475e+04 
5.513400e-02 1.467076e+04 
5.627600e-02 1.420173e+04 
5.735300e-02 1.376353e+04 
5.870100e-02 1.322531e+04 
5.988700e-02 1.276646e+04 
6.113500e-02 1.230138e+04 
6.225900e-02 1.190096e+04 
6.340100e-02 1.151463e+04 
6.480200e-02 1.106988e+04 
6.601100e-02 1.071471e+04 
6.725500e-02 1.037683e+04 
6.829100e-02 1.011849e+04 
6.958600e-02 9.820159e+03 
7.071100e-02 9.584678e+03 
7.192300e-02 9.352846e+03 
7.307400e-02 9.152070e+03 
7.412300e-02 8.983979e+03 
7.550400e-02 8.783531e+03 
7.663100e-02 8.633144e+03 
7.791200e-02 8.477339e+03 
7.912700e-02 8.340496e+03 
8.027600e-02 8.217885e+03 
8.138400e-02 8.104356e+03 
8.272200e-02 7.971686e+03 
8.406100e-02 7.841547e+03 
8.534100e-02 7.716471e+03 
8.653800e-02 7.597357e+03 
8.759800e-02 7.490507e+03 
8.900300e-02 7.345633e+03 
9.009000e-02 7.229976e+03 
9.113300e-02 7.115298e+03 
9.239600e-02 6.974668e+03 
9.358000e-02 6.839756e+03 
9.496100e-02 6.678087e+03 
9.608400e-02 6.546146e+03 
9.727500e-02 6.406826e+03 
9.852600e-02 6.258541e+03 
9.973800e-02 6.117771e+03 
1.009000e-01 5.985581e+03 
1.020900e-01 5.853092e+03 
1.034000e-01 5.712395e+03 
1.046000e-01 5.588222e+03 
1.057200e-01 5.478379e+03 
1.069100e-01 5.366271e+03 
1.082500e-01 5.248085e+03 
1.093900e-01 5.153808e+03 
1.105400e-01 5.063156e+03 
1.116900e-01 4.980006e+03 
1.129600e-01 4.892488e+03 
1.142000e-01 4.814203e+03 
1.153300e-01 4.746545e+03 
1.166400e-01 4.673013e+03 
1.177800e-01 4.613023e+03 
1.190000e-01 4.551490e+03 
1.201200e-01 4.497971e+03 
1.213400e-01 4.441340e+03 
1.227100e-01 4.380110e+03 
1.238900e-01 4.328580e+03 
1.250700e-01 4.277734e+03 
1.263200e-01 4.224632e+03 
1.275500e-01 4.172496e+03 
1.287500e-01 4.121910e+03 
1.299900e-01 4.069420e+03 
1.311300e-01 4.021162e+03 
1.323500e-01 3.969030e+03 
1.335900e-01 3.916095e+03 
1.347100e-01 3.867798e+03 
1.359800e-01 3.813322e+03 
1.372100e-01 3.759939e+03 
1.384300e-01 3.707549e+03 
1.395700e-01 3.658160e+03 
1.407700e-01 3.607129e+03 
1.420300e-01 3.553265e+03 
1.432800e-01 3.501032e+03 
1.444500e-01 3.452561e+03 
1.456300e-01 3.404696e+03 
1.468900e-01 3.354894e+03 
1.480500e-01 3.310074e+03 
1.491700e-01 3.268069e+03 
1.503800e-01 3.224123e+03 
1.516400e-01 3.179606e+03 
1.528200e-01 3.140031e+03 
1.540200e-01 3.100575e+03 
1.551900e-01 3.064230e+03 
1.564300e-01 3.026791e+03 
1.576600e-01 2.991098e+03 
1.588700e-01 2.957516e+03 
1.600900e-01 2.924359e+03 
1.612700e-01 2.894046e+03 
1.625400e-01 2.862028e+03 
1.637600e-01 2.832250e+03 
1.649500e-01 2.803962e+03 
1.662200e-01 2.774338e+03 
1.674000e-01 2.747402e+03 
1.685000e-01 2.722710e+03 
1.697500e-01 2.694926e+03 
1.710300e-01 2.666793e+03 
1.722200e-01 2.641100e+03 
1.734400e-01 2.614547e+03 
1.746400e-01 2.588850e+03 
1.758700e-01 2.562720e+03 
1.770900e-01 2.536753e+03 
1.782700e-01 2.512058e+03 
1.794600e-01 2.487196e+03 
1.807000e-01 2.461477e+03 
1.819100e-01 2.436803e+03 
1.830100e-01 2.414422e+03 
1.842200e-01 2.390137e+03 
1.855000e-01 2.364874e+03 
1.867000e-01 2.341464e+03 
1.879200e-01 2.318050e+03 
1.890900e-01 2.295969e+03 
1.902800e-01 2.273948e+03 
1.915200e-01 2.251367e+03 
1.926900e-01 2.230452e+03 
1.939000e-01 2.209340e+03 
1.951700e-01 2.187534e+03 
1.963100e-01 2.168346e+03 
1.975100e-01 2.148679e+03 
1.987800e-01 2.128187e+03 
2.000100e-01 2.108740e+03 
2.012500e-01 2.089640e+03 
2.023400e-01 2.073092e+03 
2.036100e-01 2.054140e+03 
2.048900e-01 2.035534e+03 
2.060400e-01 2.019063e+03 
2.072200e-01 2.002409e+03 
2.084200e-01 1.985857e+03 
2.096900e-01 1.968595e+03 
2.109200e-01 1.952121e+03 
2.121100e-01 1.936479e+03 
2.132700e-01 1.921442e+03 
2.145200e-01 1.905465e+03 
2.157200e-01 1.890369e+03 
2.168800e-01 1.875985e+03 
2.180700e-01 1.861426e+03 
2.193400e-01 1.846110e+03 
2.206000e-01 1.831140e+03 
2.217500e-01 1.817660e+03 
2.229500e-01 1.803777e+03 
2.241400e-01 1.790227e+03 
2.253500e-01 1.776631e+03 
2.264900e-01 1.763985e+03 
2.277100e-01 1.750644e+03 
2.289900e-01 1.736856e+03 
2.301500e-01 1.724525e+03 
2.313600e-01 1.711825e+03 
2.325600e-01 1.699462e+03 
2.337700e-01 1.687156e+03 
2.350000e-01 1.674806e+03 
2.362000e-01 1.662950e+03 
2.374100e-01 1.651194e+03 
2.386500e-01 1.639298e+03 
2.399100e-01 1.627366e+03 
2.410400e-01 1.616872e+03 
2.422500e-01 1.605780e+03 
2.435000e-01 1.594463e+03 
2.447300e-01 1.583480e+03 
2.458700e-01 1.573476e+03 
2.470600e-01 1.563154e+03 
2.483300e-01 1.552272e+03 
2.495600e-01 1.541891e+03 
2.507600e-01 1.531922e+03 
2.519600e-01 1.522070e+03 
2.532200e-01 1.511849e+03 
2.543700e-01 1.502644e+03 
2.555500e-01 1.493316e+03 
2.568000e-01 1.483550e+03 
2.580100e-01 1.474206e+03 
2.592400e-01 1.464827e+03 
2.604100e-01 1.456009e+03 
2.616100e-01 1.447066e+03 
2.628400e-01 1.438003e+03 
2.640600e-01 1.429114e+03 
2.652200e-01 1.420754e+03 
2.664300e-01 1.412128e+03 
2.676500e-01 1.403528e+03 
2.688400e-01 1.395224e+03 
2.700700e-01 1.386731e+03 
2.712400e-01 1.378739e+03 
2.724800e-01 1.370362e+03 
2.736700e-01 1.362392e+03 
2.748800e-01 1.354355e+03 
2.761000e-01 1.346340e+03 
2.773200e-01 1.338412e+03 
2.785400e-01 1.330561e+03 
2.797000e-01 1.323159e+03 
2.808900e-01 1.315643e+03 
2.821400e-01 1.307832e+03 
2.833900e-01 1.300104e+03 
2.845500e-01 1.292981e+03 
2.857800e-01 1.285505e+03 
2.870300e-01 1.277989e+03 
2.882100e-01 1.270967e+03 
2.893900e-01 1.264001e+03 
2.906300e-01 1.256747e+03 
2.918900e-01 1.249453e+03 
2.930500e-01 1.242807e+03 
2.942500e-01 1.235995e+03 
2.954200e-01 1.229407e+03 
2.966500e-01 1.222550e+03 
2.978900e-01 1.215708e+03 
2.990400e-01 1.209425e+03 
3.002700e-01 1.202765e+03 
3.015100e-01 1.196117e+03 
3.026800e-01 1.189905e+03 
3.038500e-01 1.183752e+03 
3.050300e-01 1.177605e+03 
3.062600e-01 1.171258e+03 
3.075000e-01 1.164923e+03 
3.087000e-01 1.158852e+03 
3.099100e-01 1.152789e+03 
3.111200e-01 1.146787e+03 
3.123100e-01 1.140946e+03 
3.135300e-01 1.135015e+03 
3.147300e-01 1.129236e+03 
3.159900e-01 1.123226e+03 
3.171800e-01 1.117611e+03 
3.183700e-01 1.112052e+03 
3.196300e-01 1.106222e+03 
3.208400e-01 1.100677e+03 
3.220300e-01 1.095272e+03 
3.232000e-01 1.090023e+03 
3.244300e-01 1.084562e+03 
3.256700e-01 1.079107e+03 
3.269200e-01 1.073660e+03 
3.280800e-01 1.068650e+03 
3.292500e-01 1.063659e+03 
3.304800e-01 1.058465e+03 
3.317100e-01 1.053317e+03 
3.328900e-01 1.048423e+03 
3.340700e-01 1.043571e+03 
3.353600e-01 1.038336e+03 
3.365300e-01 1.033639e+03 
3.377100e-01 1.028941e+03 
3.389200e-01 1.024166e+03 
3.401600e-01 1.019316e+03 
3.413700e-01 1.014641e+03 
3.425300e-01 1.010207e+03 
3.437700e-01 1.005507e+03 
3.449800e-01 1.000962e+03 
3.461800e-01 9.964924e+02 
3.473600e-01 9.921422e+02 
3.485800e-01 9.877020e+02 
3.498100e-01 9.832638e+02 
3.510200e-01 9.789349e+02 
3.522000e-01 9.747484e+02 
3.533900e-01 9.705612e+02 
3.546400e-01 9.662275e+02 
3.558400e-01 9.621039e+02 
3.570600e-01 9.579463e+02 
3.582700e-01 9.538570e+02 
3.595000e-01 9.497347e+02 
3.607100e-01 9.457259e+02 
3.618900e-01 9.418581e+02 
3.631200e-01 9.378592e+02 
3.643200e-01 9.339897e+02 
3.655500e-01 9.300557e+02 
3.667300e-01 9.263120e+02 
3.679500e-01 9.225017e+02 
3.691900e-01 9.186605e+02 
3.703600e-01 9.150650e+02 
3.715700e-01 9.113758e+02 
3.727700e-01 9.077460e+02 
3.739900e-01 9.040890e+02 
3.752000e-01 9.004982e+02 
3.763900e-01 8.969943e+02 
3.775800e-01 8.935175e+02 
3.788200e-01 8.899230e+02 
3.800300e-01 8.864431e+02 
3.812100e-01 8.830695e+02 
3.824200e-01 8.796323e+02 
3.836100e-01 8.762779e+02 
3.848600e-01 8.727817e+02 
3.860400e-01 8.695067e+02 
3.872400e-01 8.662012e+02 
3.884600e-01 8.628956e+02 
3.896500e-01 8.597068e+02 
3.908700e-01 8.564622e+02 
3.920600e-01 8.533212e+02 
3.933100e-01 8.500469e+02 
3.945300e-01 8.468757e+02 
3.957200e-01 8.437983e+02 
3.969300e-01 8.406903e+02 
3.981700e-01 8.375293e+02 
3.993500e-01 8.345435e+02 
4.094840e-01 8.096956e+02 
4.272360e-01 7.697971e+02 
4.454600e-01 7.326044e+02 
4.630560e-01 6.998154e+02 
4.804610e-01 6.700073e+02 
4.980690e-01 6.422747e+02 
5.159230e-01 6.163332e+02 
5.317440e-01 5.950675e+02 
5.489640e-01 5.734597e+02 
5.671990e-01 5.522278e+02 
5.838690e-01 5.342013e+02 
6.018840e-01 5.160863e+02 
6.202330e-01 4.989397e+02 
6.379250e-01 4.834467e+02 
6.545410e-01 4.698207e+02 
6.714560e-01 4.567609e+02 
6.892080e-01 4.438362e+02 
7.066010e-01 4.318345e+02 
7.240540e-01 4.204655e+02 
7.420450e-01 4.094225e+02 
7.593780e-01 3.992287e+02 
7.764720e-01 3.896769e+02 
7.942840e-01 3.802087e+02 
8.116170e-01 3.713293e+02 
8.288310e-01 3.629189e+02 
8.462240e-01 3.547185e+02 
8.631980e-01 3.470329e+02 
8.810700e-01 3.392597e+02 
8.989410e-01 3.317937e+02 
9.166330e-01 3.246450e+02 
9.345640e-01 3.176158e+02 
9.515980e-01 3.111657e+02 
9.688720e-01 3.048533e+02 
9.865640e-01 2.985788e+02 
1.031870e+00 2.833561e+02 
1.063490e+00 2.734043e+02 
1.097920e+00 2.631210e+02 
1.134370e+00 2.528620e+02 
1.167730e+00 2.439177e+02 
1.203830e+00 2.347571e+02 
1.240470e+00 2.259491e+02 
1.275790e+00 2.178543e+02 
1.309140e+00 2.106057e+02 
1.342970e+00 2.035494e+02 
1.378420e+00 1.965422e+02 
1.413200e+00 1.899630e+02 
1.448110e+00 1.836646e+02 
1.484090e+00 1.774812e+02 
1.518820e+00 1.717804e+02 
1.552880e+00 1.664107e+02 
1.588630e+00 1.610399e+02 
1.623230e+00 1.560708e+02 
1.657720e+00 1.513245e+02 
1.692450e+00 1.467739e+02 
1.726400e+00 1.424704e+02 
1.762200e+00 1.381180e+02 
1.797880e+00 1.339707e+02 
1.833270e+00 1.300283e+02 
1.869070e+00 1.261991e+02 
1.903200e+00 1.227030e+02 
1.937740e+00 1.192981e+02 
1.973190e+00 1.159363e+02 
2.007440e+00 1.128122e+02 
2.042160e+00 1.097649e+02 
2.077900e+00 1.067414e+02 
2.112390e+00 1.039493e+02 
2.146220e+00 1.012852e+02 
2.181600e+00 9.861487e+01 
2.216930e+00 9.604658e+01 
2.250760e+00 9.366932e+01 
2.286500e+00 9.124396e+01 
2.321770e+00 8.893837e+01 
2.355950e+00 8.678238e+01 
2.391280e+00 8.462281e+01 
2.426240e+00 8.256450e+01 
2.460670e+00 8.060353e+01 
2.495640e+00 7.867172e+01 
2.531080e+00 7.678902e+01 
2.566220e+00 7.497924e+01 
2.600830e+00 7.325435e+01 
2.635080e+00 7.160298e+01 
2.670340e+00 6.995012e+01 
2.705970e+00 6.834020e+01 
2.740040e+00 6.685098e+01 
2.774520e+00 6.538124e+01 
2.809730e+00 6.393043e+01 
2.844390e+00 6.254743e+01 
2.879960e+00 6.116937e+01 
2.914860e+00 5.985703e+01 
2.949410e+00 5.859727e+01 
2.984440e+00 5.736029e+01 
3.019760e+00 5.614665e+01 
3.054730e+00 5.497884e+01 
3.089030e+00 5.386706e+01 
3.124060e+00 5.276455e+01 
3.159560e+00 5.167970e+01 
3.194710e+00 5.063659e+01 
3.229010e+00 4.964723e+01 
3.263320e+00 4.868027e+01 
3.297930e+00 4.773257e+01 
3.332830e+00 4.680467e+01 
3.368040e+00 4.589321e+01 
3.403300e+00 4.500472e+01 
3.438450e+00 4.414140e+01 
3.473060e+00 4.331374e+01 
3.508440e+00 4.249374e+01 
3.543110e+00 4.171102e+01 
3.577470e+00 4.095273e+01 
3.613040e+00 4.018888e+01 
3.648120e+00 3.945731e+01 
3.682910e+00 3.874867e+01 
3.718050e+00 3.804799e+01 
3.753320e+00 3.736434e+01 
3.787980e+00 3.671192e+01 
3.822290e+00 3.608071e+01 
3.857020e+00 3.545558e+01 
3.891920e+00 3.484265e+01 
3.926650e+00 3.424748e+01 
3.961970e+00 3.365673e+01 
3.997360e+00 3.307908e+01 
4.031670e+00 3.253247e+01 
4.066330e+00 3.199420e+01 
4.101420e+00 3.146182e+01 
4.136200e+00 3.094610e+01 
4.170810e+00 3.044451e+01 
4.206250e+00 2.994373e+01 
4.241580e+00 2.945605e+01 
4.276300e+00 2.898717e+01 
4.310970e+00 2.852907e+01 
4.346120e+00 2.807541e+01 
4.380600e+00 2.764104e+01 
4.414730e+00 2.722019e+01 
4.450350e+00 2.678999e+01 
4.485320e+00 2.637672e+01 
4.519810e+00 2.597875e+01 
4.555430e+00 2.557688e+01 
4.590870e+00 2.518591e+01 
4.625480e+00 2.481288e+01 
4.659910e+00 2.444931e+01 
4.695230e+00 2.408383e+01 
4.729960e+00 2.373173e+01 
4.764450e+00 2.338897e+01 
4.799530e+00 2.304719e+01 
4.834910e+00 2.270939e+01 
4.869700e+00 2.238607e+01 
4.904370e+00 2.207050e+01 
4.939450e+00 2.175735e+01 
4.973940e+00 2.145530e+01 
5.008430e+00 2.115897e+01 
5.043810e+00 2.086076e+01 
5.078840e+00 2.057113e+01 
5.113500e+00 2.028994e+01 
5.148890e+00 2.001041e+01 
5.184210e+00 1.973677e+01 
5.219060e+00 1.947147e+01 
5.253660e+00 1.921203e+01 
5.288570e+00 1.895502e+01 
5.323420e+00 1.870410e+01 
5.358440e+00 1.845761e+01 
5.393590e+00 1.821464e+01 
5.428310e+00 1.797893e+01 
5.462800e+00 1.774889e+01 
5.497640e+00 1.752056e+01 
5.532670e+00 1.729643e+01 
5.567280e+00 1.707926e+01 
5.602000e+00 1.686513e+01 
5.637270e+00 1.665059e+01 
5.672410e+00 1.644034e+01 
5.707020e+00 1.623677e+01 
5.742040e+00 1.603573e+01 
5.777430e+00 1.583629e+01 
5.812210e+00 1.564357e+01 
5.846820e+00 1.545491e+01 
5.881610e+00 1.526836e+01 
5.916510e+00 1.508427e+01 
5.951600e+00 1.490281e+01 
5.986560e+00 1.472522e+01 
6.021830e+00 1.454896e+01 
6.056490e+00 1.437892e+01 
6.091160e+00 1.421185e+01 
6.125830e+00 1.404740e+01 
6.161090e+00 1.388280e+01 
6.195760e+00 1.372349e+01 
6.230420e+00 1.356669e+01 
6.265690e+00 1.340963e+01 
6.300950e+00 1.325582e+01 
6.335620e+00 1.310690e+01 
6.370880e+00 1.295776e+01 
6.405550e+00 1.281378e+01 
6.440220e+00 1.267212e+01 
6.475480e+00 1.253022e+01 
6.510150e+00 1.239298e+01 
6.544810e+00 1.225826e+01 
6.580080e+00 1.212320e+01 
6.614750e+00 1.199239e+01 
6.649410e+00 1.186356e+01 
6.684080e+00 1.173658e+01 
6.719340e+00 1.160930e+01 
6.754010e+00 1.148613e+01 
6.788680e+00 1.136510e+01 
6.823940e+00 1.124377e+01 
6.859800e+00 1.112216e+01 
6.894470e+00 1.100667e+01 
6.929140e+00 1.089294e+01 
6.963800e+00 1.078081e+01 
6.999070e+00 1.066832e+01 
7.033730e+00 1.055937e+01 
7.068400e+00 1.045189e+01 
7.103660e+00 1.034408e+01 
7.138330e+00 1.023983e+01 
7.173600e+00 1.013586e+01 
7.208260e+00 1.003506e+01 
7.243530e+00 9.933881e+00 
7.277600e+00 9.837255e+00 
7.312860e+00 9.738410e+00 
7.348120e+00 9.640896e+00 
7.382790e+00 9.546286e+00 
7.417460e+00 9.453478e+00 
7.452720e+00 9.360622e+00 
7.487390e+00 9.270513e+00 
7.522650e+00 9.180063e+00 
7.557320e+00 9.092328e+00 
7.591990e+00 9.005735e+00 
7.627250e+00 8.918799e+00 
7.662510e+00 8.832986e+00 
7.697180e+00 8.749987e+00 
7.731850e+00 8.668148e+00 
7.766510e+00 8.587356e+00 
7.801180e+00 8.507549e+00 
7.836440e+00 8.427437e+00 
7.871110e+00 8.349671e+00 
7.906380e+00 8.271543e+00 
7.941040e+00 8.195717e+00 
7.976310e+00 8.119691e+00 
8.011570e+00 8.044847e+00 
8.046240e+00 7.972153e+00 
8.080900e+00 7.900356e+00 
8.115570e+00 7.829452e+00 
8.150830e+00 7.758398e+00 
8.185500e+00 7.689373e+00 
8.220770e+00 7.619993e+00 
8.255430e+00 7.552626e+00 
8.290100e+00 7.486235e+00 
8.324770e+00 7.420646e+00 
8.359430e+00 7.355841e+00 
8.394700e+00 7.290669e+00 
8.429960e+00 7.226397e+00 
8.464630e+00 7.164051e+00 
8.499890e+00 7.101379e+00 
8.534560e+00 7.040468e+00 
8.569200e+00 6.980303e+00 
