# Parameters:
# omega_b = 0.022240, omega_m = 0.135709, n_s = 0.865748, h = 83.818898, w = -1.000000, sigma_8 = 0.807087
# z = 0.500000
#
# k[1/Mpc] # P(k):
8.694000e-04 1.406151e+04 
2.077466e-03 2.735325e+04 
3.285532e-03 3.685263e+04 
4.493598e-03 4.362313e+04 
5.701664e-03 4.824886e+04 
6.909730e-03 5.119511e+04 
8.117797e-03 5.289971e+04 
9.325863e-03 5.358632e+04 
1.053393e-02 5.345797e+04 
1.174199e-02 5.268963e+04 
1.295006e-02 5.139525e+04 
1.415813e-02 4.972101e+04 
1.536619e-02 4.778206e+04 
1.657426e-02 4.565398e+04 
1.778233e-02 4.335032e+04 
1.899039e-02 4.087988e+04 
2.019846e-02 3.839779e+04 
2.140652e-02 3.607178e+04 
2.261459e-02 3.391285e+04 
2.382266e-02 3.191851e+04 
2.503072e-02 3.009615e+04 
2.623879e-02 2.844603e+04 
2.744685e-02 2.696675e+04 
2.865492e-02 2.565040e+04 
2.986299e-02 2.448508e+04 
3.100100e-02 2.351942e+04 
3.220400e-02 2.262277e+04 
3.288100e-02 2.217196e+04 
3.424300e-02 2.136441e+04 
3.555100e-02 2.069293e+04 
3.686000e-02 2.010721e+04 
3.795000e-02 1.967042e+04 
3.929100e-02 1.918513e+04 
4.039800e-02 1.881127e+04 
4.164000e-02 1.840988e+04 
4.294400e-02 1.798983e+04 
4.415000e-02 1.760068e+04 
4.542900e-02 1.716690e+04 
4.660900e-02 1.675523e+04 
4.782300e-02 1.629710e+04 
4.892900e-02 1.586494e+04 
5.031200e-02 1.529843e+04 
5.155900e-02 1.476398e+04 
5.238100e-02 1.440419e+04 
5.378200e-02 1.378386e+04 
5.513400e-02 1.318173e+04 
5.627600e-02 1.267788e+04 
5.735300e-02 1.221345e+04 
5.870100e-02 1.165301e+04 
5.988700e-02 1.118489e+04 
6.113500e-02 1.072073e+04 
6.225900e-02 1.033099e+04 
6.340100e-02 9.964461e+03 
6.480200e-02 9.553244e+03 
6.601100e-02 9.236251e+03 
6.725500e-02 8.944183e+03 
6.829100e-02 8.728754e+03 
6.958600e-02 8.486460e+03 
7.071100e-02 8.301780e+03 
7.192300e-02 8.125096e+03 
7.307400e-02 7.976037e+03 
7.412300e-02 7.853700e+03 
7.550400e-02 7.710265e+03 
7.663100e-02 7.603162e+03 
7.791200e-02 7.491156e+03 
7.912700e-02 7.389728e+03 
8.027600e-02 7.295388e+03 
8.138400e-02 7.204498e+03 
8.272200e-02 7.092773e+03 
8.406100e-02 6.977058e+03 
8.534100e-02 6.859091e+03 
8.653800e-02 6.741919e+03 
8.759800e-02 6.634371e+03 
8.900300e-02 6.485435e+03 
9.009000e-02 6.364770e+03 
9.113300e-02 6.244491e+03 
9.239600e-02 6.096950e+03 
9.358000e-02 5.955874e+03 
9.496100e-02 5.788546e+03 
9.608400e-02 5.653465e+03 
9.727500e-02 5.512138e+03 
9.852600e-02 5.365214e+03 
9.973800e-02 5.227676e+03 
1.009000e-01 5.100123e+03 
1.020900e-01 4.976272e+03 
1.034000e-01 4.846803e+03 
1.046000e-01 4.734648e+03 
1.057200e-01 4.638901e+03 
1.069100e-01 4.542462e+03 
1.082500e-01 4.444421e+03 
1.093900e-01 4.368326e+03 
1.105400e-01 4.296402e+03 
1.116900e-01 4.233055e+03 
1.129600e-01 4.167164e+03 
1.142000e-01 4.110008e+03 
1.153300e-01 4.060921e+03 
1.166400e-01 4.008086e+03 
1.177800e-01 3.964624e+03 
1.190000e-01 3.919874e+03 
1.201200e-01 3.879315e+03 
1.213400e-01 3.836099e+03 
1.227100e-01 3.785887e+03 
1.238900e-01 3.742819e+03 
1.250700e-01 3.697677e+03 
1.263200e-01 3.649543e+03 
1.275500e-01 3.600105e+03 
1.287500e-01 3.551263e+03 
1.299900e-01 3.499225e+03 
1.311300e-01 3.450996e+03 
1.323500e-01 3.398326e+03 
1.335900e-01 3.344946e+03 
1.347100e-01 3.296359e+03 
1.359800e-01 3.241964e+03 
1.372100e-01 3.189414e+03 
1.384300e-01 3.138353e+03 
1.395700e-01 3.091340e+03 
1.407700e-01 3.042972e+03 
1.420300e-01 2.993665e+03 
1.432800e-01 2.945883e+03 
1.444500e-01 2.903235e+03 
1.456300e-01 2.861133e+03 
1.468900e-01 2.818413e+03 
1.480500e-01 2.780291e+03 
1.491700e-01 2.744985e+03 
1.503800e-01 2.708586e+03 
1.516400e-01 2.671820e+03 
1.528200e-01 2.639610e+03 
1.540200e-01 2.607491e+03 
1.551900e-01 2.578072e+03 
1.564300e-01 2.547807e+03 
1.576600e-01 2.518901e+03 
1.588700e-01 2.491644e+03 
1.600900e-01 2.464711e+03 
1.612700e-01 2.439741e+03 
1.625400e-01 2.413366e+03 
1.637600e-01 2.388513e+03 
1.649500e-01 2.364713e+03 
1.662200e-01 2.339702e+03 
1.674000e-01 2.316475e+03 
1.685000e-01 2.295184e+03 
1.697500e-01 2.270970e+03 
1.710300e-01 2.246196e+03 
1.722200e-01 2.223574e+03 
1.734400e-01 2.199820e+03 
1.746400e-01 2.176821e+03 
1.758700e-01 2.153375e+03 
1.770900e-01 2.129956e+03 
1.782700e-01 2.107690e+03 
1.794600e-01 2.085259e+03 
1.807000e-01 2.062049e+03 
1.819100e-01 2.039788e+03 
1.830100e-01 2.019694e+03 
1.842200e-01 1.997912e+03 
1.855000e-01 1.975269e+03 
1.867000e-01 1.954489e+03 
1.879200e-01 1.933711e+03 
1.890900e-01 1.914158e+03 
1.902800e-01 1.894865e+03 
1.915200e-01 1.875086e+03 
1.926900e-01 1.856823e+03 
1.939000e-01 1.838568e+03 
1.951700e-01 1.819715e+03 
1.963100e-01 1.803176e+03 
1.975100e-01 1.786352e+03 
1.987800e-01 1.768823e+03 
2.000100e-01 1.752221e+03 
2.012500e-01 1.735990e+03 
2.023400e-01 1.721927e+03 
2.036100e-01 1.705830e+03 
2.048900e-01 1.690053e+03 
2.060400e-01 1.676087e+03 
2.072200e-01 1.661965e+03 
2.084200e-01 1.647913e+03 
2.096900e-01 1.633258e+03 
2.109200e-01 1.619275e+03 
2.121100e-01 1.605956e+03 
2.132700e-01 1.593153e+03 
2.145200e-01 1.579548e+03 
2.157200e-01 1.566675e+03 
2.168800e-01 1.554402e+03 
2.180700e-01 1.541979e+03 
2.193400e-01 1.528921e+03 
2.206000e-01 1.516177e+03 
2.217500e-01 1.504702e+03 
2.229500e-01 1.492885e+03 
2.241400e-01 1.481423e+03 
2.253500e-01 1.469924e+03 
2.264900e-01 1.459230e+03 
2.277100e-01 1.448017e+03 
2.289900e-01 1.436504e+03 
2.301500e-01 1.426208e+03 
2.313600e-01 1.415606e+03 
2.325600e-01 1.405463e+03 
2.337700e-01 1.395366e+03 
2.350000e-01 1.385233e+03 
2.362000e-01 1.375590e+03 
2.374100e-01 1.366127e+03 
2.386500e-01 1.356552e+03 
2.399100e-01 1.346947e+03 
2.410400e-01 1.338627e+03 
2.422500e-01 1.329849e+03 
2.435000e-01 1.320892e+03 
2.447300e-01 1.312219e+03 
2.458700e-01 1.304396e+03 
2.470600e-01 1.296324e+03 
2.483300e-01 1.287813e+03 
2.495600e-01 1.279705e+03 
2.507600e-01 1.271931e+03 
2.519600e-01 1.264249e+03 
2.532200e-01 1.256278e+03 
2.543700e-01 1.249073e+03 
2.555500e-01 1.241754e+03 
2.568000e-01 1.234090e+03 
2.580100e-01 1.226759e+03 
2.592400e-01 1.219330e+03 
2.604100e-01 1.212315e+03 
2.616100e-01 1.205201e+03 
2.628400e-01 1.197991e+03 
2.640600e-01 1.190831e+03 
2.652200e-01 1.184061e+03 
2.664300e-01 1.177077e+03 
2.676500e-01 1.170114e+03 
2.688400e-01 1.163313e+03 
2.700700e-01 1.156308e+03 
2.712400e-01 1.149718e+03 
2.724800e-01 1.142809e+03 
2.736700e-01 1.136184e+03 
2.748800e-01 1.129449e+03 
2.761000e-01 1.122733e+03 
2.773200e-01 1.116089e+03 
2.785400e-01 1.109485e+03 
2.797000e-01 1.103205e+03 
2.808900e-01 1.096828e+03 
2.821400e-01 1.090201e+03 
2.833900e-01 1.083643e+03 
2.845500e-01 1.077548e+03 
2.857800e-01 1.071153e+03 
2.870300e-01 1.064722e+03 
2.882100e-01 1.058715e+03 
2.893900e-01 1.052734e+03 
2.906300e-01 1.046496e+03 
2.918900e-01 1.040224e+03 
2.930500e-01 1.034509e+03 
2.942500e-01 1.028648e+03 
2.954200e-01 1.022968e+03 
2.966500e-01 1.017056e+03 
2.978900e-01 1.011158e+03 
2.990400e-01 1.005741e+03 
3.002700e-01 9.999954e+02 
3.015100e-01 9.942566e+02 
3.026800e-01 9.888949e+02 
3.038500e-01 9.835842e+02 
3.050300e-01 9.782791e+02 
3.062600e-01 9.728003e+02 
3.075000e-01 9.673317e+02 
3.087000e-01 9.620912e+02 
3.099100e-01 9.568577e+02 
3.111200e-01 9.516782e+02 
3.123100e-01 9.466392e+02 
3.135300e-01 9.415222e+02 
3.147300e-01 9.365368e+02 
3.159900e-01 9.313524e+02 
3.171800e-01 9.265109e+02 
3.183700e-01 9.217194e+02 
3.196300e-01 9.166940e+02 
3.208400e-01 9.119138e+02 
3.220300e-01 9.072558e+02 
3.232000e-01 9.027336e+02 
3.244300e-01 8.980292e+02 
3.256700e-01 8.933309e+02 
3.269200e-01 8.886392e+02 
3.280800e-01 8.843246e+02 
3.292500e-01 8.800280e+02 
3.304800e-01 8.755568e+02 
3.317100e-01 8.711265e+02 
3.328900e-01 8.669141e+02 
3.340700e-01 8.627383e+02 
3.353600e-01 8.582351e+02 
3.365300e-01 8.541952e+02 
3.377100e-01 8.501557e+02 
3.389200e-01 8.460493e+02 
3.401600e-01 8.418785e+02 
3.413700e-01 8.378591e+02 
3.425300e-01 8.340487e+02 
3.437700e-01 8.300105e+02 
3.449800e-01 8.261043e+02 
3.461800e-01 8.222636e+02 
3.473600e-01 8.185261e+02 
3.485800e-01 8.147124e+02 
3.498100e-01 8.109005e+02 
3.510200e-01 8.071826e+02 
3.522000e-01 8.035871e+02 
3.533900e-01 7.999910e+02 
3.546400e-01 7.962704e+02 
3.558400e-01 7.927303e+02 
3.570600e-01 7.891611e+02 
3.582700e-01 7.856506e+02 
3.595000e-01 7.821117e+02 
3.607100e-01 7.786710e+02 
3.618900e-01 7.753517e+02 
3.631200e-01 7.719200e+02 
3.643200e-01 7.685994e+02 
3.655500e-01 7.652236e+02 
3.667300e-01 7.620110e+02 
3.679500e-01 7.587443e+02 
3.691900e-01 7.554511e+02 
3.703600e-01 7.523686e+02 
3.715700e-01 7.492057e+02 
3.727700e-01 7.460939e+02 
3.739900e-01 7.429588e+02 
3.752000e-01 7.398807e+02 
3.763900e-01 7.368772e+02 
3.775800e-01 7.338968e+02 
3.788200e-01 7.308156e+02 
3.800300e-01 7.278327e+02 
3.812100e-01 7.249431e+02 
3.824200e-01 7.220008e+02 
3.836100e-01 7.191292e+02 
3.848600e-01 7.161363e+02 
3.860400e-01 7.133328e+02 
3.872400e-01 7.105033e+02 
3.884600e-01 7.076746e+02 
3.896500e-01 7.049463e+02 
3.908700e-01 7.021703e+02 
3.920600e-01 6.994829e+02 
3.933100e-01 6.966815e+02 
3.945300e-01 6.939682e+02 
3.957200e-01 6.913379e+02 
3.969300e-01 6.886823e+02 
3.981700e-01 6.859813e+02 
3.993500e-01 6.834301e+02 
4.094840e-01 6.622186e+02 
4.272360e-01 6.282430e+02 
4.454600e-01 5.966815e+02 
4.630560e-01 5.689501e+02 
4.804610e-01 5.438127e+02 
4.980690e-01 5.204804e+02 
5.159230e-01 4.986886e+02 
5.317440e-01 4.808435e+02 
5.489640e-01 4.627262e+02 
5.671990e-01 4.449350e+02 
5.838690e-01 4.298408e+02 
6.018840e-01 4.146778e+02 
6.202330e-01 4.003429e+02 
6.379250e-01 3.874059e+02 
6.545410e-01 3.760496e+02 
6.714560e-01 3.651822e+02 
6.892080e-01 3.544563e+02 
7.066010e-01 3.445297e+02 
7.240540e-01 3.351502e+02 
7.420450e-01 3.260774e+02 
7.593780e-01 3.177358e+02 
7.764720e-01 3.099479e+02 
7.942840e-01 3.022562e+02 
8.116170e-01 2.950798e+02 
8.288310e-01 2.883138e+02 
8.462240e-01 2.817431e+02 
8.631980e-01 2.756103e+02 
8.810700e-01 2.694328e+02 
8.989410e-01 2.635227e+02 
9.166330e-01 2.578868e+02 
9.345640e-01 2.523661e+02 
9.515980e-01 2.473184e+02 
9.688720e-01 2.423952e+02 
9.865640e-01 2.375185e+02 
1.031870e+00 2.257371e+02 
1.063490e+00 2.180777e+02 
1.097920e+00 2.101926e+02 
1.134370e+00 2.023482e+02 
1.167730e+00 1.955245e+02 
1.203830e+00 1.885515e+02 
1.240470e+00 1.818515e+02 
1.275790e+00 1.756995e+02 
1.309140e+00 1.701912e+02 
1.342970e+00 1.648270e+02 
1.378420e+00 1.594988e+02 
1.413200e+00 1.544916e+02 
1.448110e+00 1.496931e+02 
1.484090e+00 1.449768e+02 
1.518820e+00 1.406213e+02 
1.552880e+00 1.365126e+02 
1.588630e+00 1.323957e+02 
1.623230e+00 1.285802e+02 
1.657720e+00 1.249290e+02 
1.692450e+00 1.214235e+02 
1.726400e+00 1.180996e+02 
1.762200e+00 1.147303e+02 
1.797880e+00 1.115136e+02 
1.833270e+00 1.084499e+02 
1.869070e+00 1.054669e+02 
1.903200e+00 1.027381e+02 
1.937740e+00 1.000750e+02 
1.973190e+00 9.743953e+01 
2.007440e+00 9.498478e+01 
2.042160e+00 9.258561e+01 
2.077900e+00 9.019974e+01 
2.112390e+00 8.799281e+01 
2.146220e+00 8.588088e+01 
2.181600e+00 8.376045e+01 
2.216930e+00 8.171658e+01 
2.250760e+00 7.982078e+01 
2.286500e+00 7.788263e+01 
2.321770e+00 7.603636e+01 
2.355950e+00 7.430661e+01 
2.391280e+00 7.256980e+01 
2.426240e+00 7.091136e+01 
2.460670e+00 6.932828e+01 
2.495640e+00 6.776555e+01 
2.531080e+00 6.623958e+01 
2.566220e+00 6.476965e+01 
2.600830e+00 6.336622e+01 
2.635080e+00 6.202045e+01 
2.670340e+00 6.067000e+01 
2.705970e+00 5.935258e+01 
2.740040e+00 5.813206e+01 
2.774520e+00 5.692494e+01 
2.809730e+00 5.573124e+01 
2.844390e+00 5.459164e+01 
2.879960e+00 5.345392e+01 
2.914860e+00 5.236829e+01 
2.949410e+00 5.132473e+01 
2.984440e+00 5.029824e+01 
3.019760e+00 4.928938e+01 
3.054730e+00 4.831732e+01 
3.089030e+00 4.738976e+01 
3.124060e+00 4.646884e+01 
3.159560e+00 4.556130e+01 
3.194710e+00 4.468713e+01 
3.229010e+00 4.385713e+01 
3.263320e+00 4.304408e+01 
3.297930e+00 4.224641e+01 
3.332830e+00 4.146419e+01 
3.368040e+00 4.069467e+01 
3.403300e+00 3.994361e+01 
3.438450e+00 3.921245e+01 
3.473060e+00 3.851091e+01 
3.508440e+00 3.781457e+01 
3.543110e+00 3.714938e+01 
3.577470e+00 3.650359e+01 
3.613040e+00 3.585256e+01 
3.648120e+00 3.522816e+01 
3.682910e+00 3.462268e+01 
3.718050e+00 3.402299e+01 
3.753320e+00 3.343732e+01 
3.787980e+00 3.287774e+01 
3.822290e+00 3.233577e+01 
3.857020e+00 3.179822e+01 
3.891920e+00 3.127068e+01 
3.926650e+00 3.075774e+01 
3.961970e+00 3.024817e+01 
3.997360e+00 2.974915e+01 
4.031670e+00 2.927663e+01 
4.066330e+00 2.881064e+01 
4.101420e+00 2.834955e+01 
4.136200e+00 2.790211e+01 
4.170810e+00 2.746676e+01 
4.206250e+00 2.703148e+01 
4.241580e+00 2.660735e+01 
4.276300e+00 2.619905e+01 
4.310970e+00 2.579979e+01 
4.346120e+00 2.540407e+01 
4.380600e+00 2.502478e+01 
4.414730e+00 2.465715e+01 
4.450350e+00 2.428073e+01 
4.485320e+00 2.391901e+01 
4.519810e+00 2.357027e+01 
4.555430e+00 2.321786e+01 
4.590870e+00 2.287480e+01 
4.625480e+00 2.254715e+01 
4.659910e+00 2.222772e+01 
4.695230e+00 2.190614e+01 
4.729960e+00 2.159618e+01 
4.764450e+00 2.129424e+01 
4.799530e+00 2.099286e+01 
4.834910e+00 2.069490e+01 
4.869700e+00 2.040941e+01 
4.904370e+00 2.013065e+01 
4.939450e+00 1.985386e+01 
4.973940e+00 1.958659e+01 
5.008430e+00 1.932431e+01 
5.043810e+00 1.906014e+01 
5.078840e+00 1.880340e+01 
5.113500e+00 1.855408e+01 
5.148890e+00 1.830598e+01 
5.184210e+00 1.806303e+01 
5.219060e+00 1.782736e+01 
5.253660e+00 1.759665e+01 
5.288570e+00 1.736804e+01 
5.323420e+00 1.714472e+01 
5.358440e+00 1.692521e+01 
5.393590e+00 1.670878e+01 
5.428310e+00 1.649864e+01 
5.462800e+00 1.629345e+01 
5.497640e+00 1.608974e+01 
5.532670e+00 1.588963e+01 
5.567280e+00 1.569567e+01 
5.602000e+00 1.550438e+01 
5.637270e+00 1.531253e+01 
5.672410e+00 1.512444e+01 
5.707020e+00 1.494229e+01 
5.742040e+00 1.476229e+01 
5.777430e+00 1.458367e+01 
5.812210e+00 1.441103e+01 
5.846820e+00 1.424188e+01 
5.881610e+00 1.407455e+01 
5.916510e+00 1.390941e+01 
5.951600e+00 1.374652e+01 
5.986560e+00 1.358704e+01 
6.021830e+00 1.342873e+01 
6.056490e+00 1.327592e+01 
6.091160e+00 1.312571e+01 
6.125830e+00 1.297783e+01 
6.161090e+00 1.282975e+01 
6.195760e+00 1.268634e+01 
6.230420e+00 1.254517e+01 
6.265690e+00 1.240374e+01 
6.300950e+00 1.226512e+01 
6.335620e+00 1.213088e+01 
6.370880e+00 1.199642e+01 
6.405550e+00 1.186655e+01 
6.440220e+00 1.173874e+01 
6.475480e+00 1.161068e+01 
6.510150e+00 1.148679e+01 
6.544810e+00 1.136510e+01 
6.580080e+00 1.124309e+01 
6.614750e+00 1.112489e+01 
6.649410e+00 1.100841e+01 
6.684080e+00 1.089355e+01 
6.719340e+00 1.077842e+01 
6.754010e+00 1.066696e+01 
6.788680e+00 1.055739e+01 
6.823940e+00 1.044754e+01 
6.859800e+00 1.033740e+01 
6.894470e+00 1.023276e+01 
6.929140e+00 1.012968e+01 
6.963800e+00 1.002804e+01 
6.999070e+00 9.926047e+00 
7.033730e+00 9.827210e+00 
7.068400e+00 9.729684e+00 
7.103660e+00 9.631847e+00 
7.138330e+00 9.537213e+00 
7.173600e+00 9.442787e+00 
7.208260e+00 9.351235e+00 
7.243530e+00 9.259312e+00 
7.277600e+00 9.171485e+00 
7.312860e+00 9.081600e+00 
7.348120e+00 8.992909e+00 
7.382790e+00 8.906847e+00 
7.417460e+00 8.822398e+00 
7.452720e+00 8.737886e+00 
7.487390e+00 8.655860e+00 
7.522650e+00 8.573511e+00 
7.557320e+00 8.493588e+00 
7.591990e+00 8.414680e+00 
7.627250e+00 8.335448e+00 
7.662510e+00 8.257226e+00 
7.697180e+00 8.181537e+00 
7.731850e+00 8.106885e+00 
7.766510e+00 8.033178e+00 
7.801180e+00 7.960358e+00 
7.836440e+00 7.887223e+00 
7.871110e+00 7.816204e+00 
7.906380e+00 7.744844e+00 
7.941040e+00 7.675575e+00 
7.976310e+00 7.606103e+00 
8.011570e+00 7.537686e+00 
8.046240e+00 7.471226e+00 
8.080900e+00 7.405577e+00 
8.115570e+00 7.340726e+00 
8.150830e+00 7.275702e+00 
8.185500e+00 7.212524e+00 
8.220770e+00 7.149014e+00 
8.255430e+00 7.087337e+00 
8.290100e+00 7.026522e+00 
8.324770e+00 6.966430e+00 
8.359430e+00 6.907048e+00 
8.394700e+00 6.847323e+00 
8.429960e+00 6.788395e+00 
8.464630e+00 6.731208e+00 
8.499890e+00 6.673714e+00 
8.534560e+00 6.617827e+00 
8.569200e+00 6.562618e+00 
