# Parameters:
# omega_b = 0.021579, omega_m = 0.148110, n_s = 0.872047, h = 67.519685, w = -1.000000, sigma_8 = 0.852756
# z = 0.500000
#
# k[1/Mpc] # P(k):
8.694000e-04 1.363754e+04 
2.077466e-03 2.698642e+04 
3.285532e-03 3.679638e+04 
4.493598e-03 4.403805e+04 
5.701664e-03 4.923823e+04 
6.909730e-03 5.279279e+04 
8.117797e-03 5.509267e+04 
9.325863e-03 5.634173e+04 
1.053393e-02 5.673533e+04 
1.174199e-02 5.644826e+04 
1.295006e-02 5.558827e+04 
1.415813e-02 5.429590e+04 
1.536619e-02 5.268764e+04 
1.657426e-02 5.084364e+04 
1.778233e-02 4.883373e+04 
1.899039e-02 4.672897e+04 
2.019846e-02 4.457473e+04 
2.140652e-02 4.244970e+04 
2.261459e-02 4.039085e+04 
2.382266e-02 3.842976e+04 
2.503072e-02 3.658901e+04 
2.623879e-02 3.487730e+04 
2.744685e-02 3.329559e+04 
2.865492e-02 3.184848e+04 
2.986299e-02 3.053130e+04 
3.100100e-02 2.940551e+04 
3.220400e-02 2.832879e+04 
3.288100e-02 2.777213e+04 
3.424300e-02 2.674934e+04 
3.555100e-02 2.587276e+04 
3.686000e-02 2.508684e+04 
3.795000e-02 2.448991e+04 
3.929100e-02 2.381870e+04 
4.039800e-02 2.330320e+04 
4.164000e-02 2.275658e+04 
4.294400e-02 2.220427e+04 
4.415000e-02 2.170851e+04 
4.542900e-02 2.118263e+04 
4.660900e-02 2.070046e+04 
4.782300e-02 2.018865e+04 
4.892900e-02 1.971811e+04 
5.031200e-02 1.911693e+04 
5.155900e-02 1.856083e+04 
5.238100e-02 1.818955e+04 
5.378200e-02 1.755187e+04 
5.513400e-02 1.693165e+04 
5.627600e-02 1.640835e+04 
5.735300e-02 1.592028e+04 
5.870100e-02 1.532123e+04 
5.988700e-02 1.481025e+04 
6.113500e-02 1.429153e+04 
6.225900e-02 1.384379e+04 
6.340100e-02 1.341033e+04 
6.480200e-02 1.290935e+04 
6.601100e-02 1.250691e+04 
6.725500e-02 1.212190e+04 
6.829100e-02 1.182561e+04 
6.958600e-02 1.148176e+04 
7.071100e-02 1.120859e+04 
7.192300e-02 1.093823e+04 
7.307400e-02 1.070292e+04 
7.412300e-02 1.050513e+04 
7.550400e-02 1.026831e+04 
7.663100e-02 1.009021e+04 
7.791200e-02 9.905370e+03 
7.912700e-02 9.743103e+03 
8.027600e-02 9.597908e+03 
8.138400e-02 9.463717e+03 
8.272200e-02 9.307325e+03 
8.406100e-02 9.154379e+03 
8.534100e-02 9.007892e+03 
8.653800e-02 8.868747e+03 
8.759800e-02 8.744132e+03 
8.900300e-02 8.575474e+03 
9.009000e-02 8.441077e+03 
9.113300e-02 8.308100e+03 
9.239600e-02 8.145304e+03 
9.358000e-02 7.989509e+03 
9.496100e-02 7.803557e+03 
9.608400e-02 7.652266e+03 
9.727500e-02 7.492881e+03 
9.852600e-02 7.324324e+03 
9.973800e-02 7.164742e+03 
1.009000e-01 7.015227e+03 
1.020900e-01 6.866167e+03 
1.034000e-01 6.708073e+03 
1.046000e-01 6.568755e+03 
1.057200e-01 6.445631e+03 
1.069100e-01 6.319892e+03 
1.082500e-01 6.187086e+03 
1.093900e-01 6.080765e+03 
1.105400e-01 5.978294e+03 
1.116900e-01 5.883537e+03 
1.129600e-01 5.783468e+03 
1.142000e-01 5.693032e+03 
1.153300e-01 5.614442e+03 
1.166400e-01 5.528353e+03 
1.177800e-01 5.457498e+03 
1.190000e-01 5.384517e+03 
1.201200e-01 5.320491e+03 
1.213400e-01 5.252638e+03 
1.227100e-01 5.178887e+03 
1.238900e-01 5.116814e+03 
1.250700e-01 5.055587e+03 
1.263200e-01 4.991756e+03 
1.275500e-01 4.929333e+03 
1.287500e-01 4.869002e+03 
1.299900e-01 4.806766e+03 
1.311300e-01 4.749847e+03 
1.323500e-01 4.688798e+03 
1.335900e-01 4.627140e+03 
1.347100e-01 4.571312e+03 
1.359800e-01 4.508589e+03 
1.372100e-01 4.447620e+03 
1.384300e-01 4.387944e+03 
1.395700e-01 4.332075e+03 
1.407700e-01 4.274370e+03 
1.420300e-01 4.213820e+03 
1.432800e-01 4.155082e+03 
1.444500e-01 4.100723e+03 
1.456300e-01 4.047022e+03 
1.468900e-01 3.991044e+03 
1.480500e-01 3.940623e+03 
1.491700e-01 3.893229e+03 
1.503800e-01 3.843470e+03 
1.516400e-01 3.792963e+03 
1.528200e-01 3.747671e+03 
1.540200e-01 3.702507e+03 
1.551900e-01 3.660473e+03 
1.564300e-01 3.617062e+03 
1.576600e-01 3.575445e+03 
1.588700e-01 3.536013e+03 
1.600900e-01 3.497057e+03 
1.612700e-01 3.461086e+03 
1.625400e-01 3.423090e+03 
1.637600e-01 3.387646e+03 
1.649500e-01 3.353913e+03 
1.662200e-01 3.318594e+03 
1.674000e-01 3.286519e+03 
1.685000e-01 3.257116e+03 
1.697500e-01 3.224144e+03 
1.710300e-01 3.190867e+03 
1.722200e-01 3.160476e+03 
1.734400e-01 3.129376e+03 
1.746400e-01 3.099289e+03 
1.758700e-01 3.068794e+03 
1.770900e-01 3.038693e+03 
1.782700e-01 3.010064e+03 
1.794600e-01 2.981385e+03 
1.807000e-01 2.951813e+03 
1.819100e-01 2.923437e+03 
1.830100e-01 2.897807e+03 
1.842200e-01 2.870012e+03 
1.855000e-01 2.841095e+03 
1.867000e-01 2.814335e+03 
1.879200e-01 2.787565e+03 
1.890900e-01 2.762308e+03 
1.902800e-01 2.737082e+03 
1.915200e-01 2.711210e+03 
1.926900e-01 2.687221e+03 
1.939000e-01 2.662931e+03 
1.951700e-01 2.637838e+03 
1.963100e-01 2.615726e+03 
1.975100e-01 2.592979e+03 
1.987800e-01 2.569275e+03 
2.000100e-01 2.546745e+03 
2.012500e-01 2.524546e+03 
2.023400e-01 2.505310e+03 
2.036100e-01 2.483262e+03 
2.048900e-01 2.461551e+03 
2.060400e-01 2.442329e+03 
2.072200e-01 2.422889e+03 
2.084200e-01 2.403523e+03 
2.096900e-01 2.383324e+03 
2.109200e-01 2.364047e+03 
2.121100e-01 2.345717e+03 
2.132700e-01 2.328096e+03 
2.145200e-01 2.309370e+03 
2.157200e-01 2.291666e+03 
2.168800e-01 2.274792e+03 
2.180700e-01 2.257711e+03 
2.193400e-01 2.239730e+03 
2.206000e-01 2.222136e+03 
2.217500e-01 2.206293e+03 
2.229500e-01 2.189975e+03 
2.241400e-01 2.174010e+03 
2.253500e-01 2.157989e+03 
2.264900e-01 2.143088e+03 
2.277100e-01 2.127335e+03 
2.289900e-01 2.111019e+03 
2.301500e-01 2.096426e+03 
2.313600e-01 2.081396e+03 
2.325600e-01 2.066692e+03 
2.337700e-01 2.052054e+03 
2.350000e-01 2.037364e+03 
2.362000e-01 2.023229e+03 
2.374100e-01 2.009171e+03 
2.386500e-01 1.994946e+03 
2.399100e-01 1.980678e+03 
2.410400e-01 1.968082e+03 
2.422500e-01 1.954760e+03 
2.435000e-01 1.941169e+03 
2.447300e-01 1.927972e+03 
2.458700e-01 1.915930e+03 
2.470600e-01 1.903504e+03 
2.483300e-01 1.890405e+03 
2.495600e-01 1.877910e+03 
2.507600e-01 1.865913e+03 
2.519600e-01 1.854057e+03 
2.532200e-01 1.841756e+03 
2.543700e-01 1.830697e+03 
2.555500e-01 1.819501e+03 
2.568000e-01 1.807780e+03 
2.580100e-01 1.796566e+03 
2.592400e-01 1.785344e+03 
2.604100e-01 1.774809e+03 
2.616100e-01 1.764125e+03 
2.628400e-01 1.753298e+03 
2.640600e-01 1.742717e+03 
2.652200e-01 1.732782e+03 
2.664300e-01 1.722531e+03 
2.676500e-01 1.712311e+03 
2.688400e-01 1.702475e+03 
2.700700e-01 1.692434e+03 
2.712400e-01 1.682986e+03 
2.724800e-01 1.673082e+03 
2.736700e-01 1.663679e+03 
2.748800e-01 1.654219e+03 
2.761000e-01 1.644783e+03 
2.773200e-01 1.635449e+03 
2.785400e-01 1.626217e+03 
2.797000e-01 1.617532e+03 
2.808900e-01 1.608713e+03 
2.821400e-01 1.599548e+03 
2.833900e-01 1.590482e+03 
2.845500e-01 1.582143e+03 
2.857800e-01 1.573392e+03 
2.870300e-01 1.564592e+03 
2.882100e-01 1.556371e+03 
2.893900e-01 1.548223e+03 
2.906300e-01 1.539744e+03 
2.918900e-01 1.531218e+03 
2.930500e-01 1.523448e+03 
2.942500e-01 1.515487e+03 
2.954200e-01 1.507791e+03 
2.966500e-01 1.499780e+03 
2.978900e-01 1.491787e+03 
2.990400e-01 1.484446e+03 
3.002700e-01 1.476668e+03 
3.015100e-01 1.468904e+03 
3.026800e-01 1.461650e+03 
3.038500e-01 1.454465e+03 
3.050300e-01 1.447286e+03 
3.062600e-01 1.439876e+03 
3.075000e-01 1.432479e+03 
3.087000e-01 1.425390e+03 
3.099100e-01 1.418310e+03 
3.111200e-01 1.411302e+03 
3.123100e-01 1.404481e+03 
3.135300e-01 1.397555e+03 
3.147300e-01 1.390806e+03 
3.159900e-01 1.383787e+03 
3.171800e-01 1.377229e+03 
3.183700e-01 1.370736e+03 
3.196300e-01 1.363925e+03 
3.208400e-01 1.357447e+03 
3.220300e-01 1.351133e+03 
3.232000e-01 1.345000e+03 
3.244300e-01 1.338617e+03 
3.256700e-01 1.332241e+03 
3.269200e-01 1.325875e+03 
3.280800e-01 1.320020e+03 
3.292500e-01 1.314184e+03 
3.304800e-01 1.308110e+03 
3.317100e-01 1.302091e+03 
3.328900e-01 1.296368e+03 
3.340700e-01 1.290695e+03 
3.353600e-01 1.284569e+03 
3.365300e-01 1.279071e+03 
3.377100e-01 1.273574e+03 
3.389200e-01 1.267985e+03 
3.401600e-01 1.262308e+03 
3.413700e-01 1.256833e+03 
3.425300e-01 1.251638e+03 
3.437700e-01 1.246132e+03 
3.449800e-01 1.240807e+03 
3.461800e-01 1.235570e+03 
3.473600e-01 1.230472e+03 
3.485800e-01 1.225263e+03 
3.498100e-01 1.220058e+03 
3.510200e-01 1.214980e+03 
3.522000e-01 1.210069e+03 
3.533900e-01 1.205157e+03 
3.546400e-01 1.200067e+03 
3.558400e-01 1.195223e+03 
3.570600e-01 1.190339e+03 
3.582700e-01 1.185535e+03 
3.595000e-01 1.180692e+03 
3.607100e-01 1.175980e+03 
3.618900e-01 1.171431e+03 
3.631200e-01 1.166728e+03 
3.643200e-01 1.162177e+03 
3.655500e-01 1.157550e+03 
3.667300e-01 1.153147e+03 
3.679500e-01 1.148656e+03 
3.691900e-01 1.144128e+03 
3.703600e-01 1.139890e+03 
3.715700e-01 1.135541e+03 
3.727700e-01 1.131263e+03 
3.739900e-01 1.126951e+03 
3.752000e-01 1.122714e+03 
3.763900e-01 1.118580e+03 
3.775800e-01 1.114478e+03 
3.788200e-01 1.110238e+03 
3.800300e-01 1.106132e+03 
3.812100e-01 1.102145e+03 
3.824200e-01 1.098078e+03 
3.836100e-01 1.094109e+03 
3.848600e-01 1.089972e+03 
3.860400e-01 1.086097e+03 
3.872400e-01 1.082186e+03 
3.884600e-01 1.078271e+03 
3.896500e-01 1.074494e+03 
3.908700e-01 1.070650e+03 
3.920600e-01 1.066930e+03 
3.933100e-01 1.063051e+03 
3.945300e-01 1.059295e+03 
3.957200e-01 1.055643e+03 
3.969300e-01 1.051953e+03 
3.981700e-01 1.048199e+03 
3.993500e-01 1.044654e+03 
4.094840e-01 1.015112e+03 
4.272360e-01 9.675261e+02 
4.454600e-01 9.230162e+02 
4.630560e-01 8.836490e+02 
4.804610e-01 8.477691e+02 
4.980690e-01 8.143159e+02 
5.159230e-01 7.829681e+02 
5.317440e-01 7.572325e+02 
5.489640e-01 7.310265e+02 
5.671990e-01 7.052305e+02 
5.838690e-01 6.832767e+02 
6.018840e-01 6.611729e+02 
6.202330e-01 6.401730e+02 
6.379250e-01 6.211606e+02 
6.545410e-01 6.043676e+02 
6.714560e-01 5.882291e+02 
6.892080e-01 5.721975e+02 
7.066010e-01 5.572450e+02 
7.240540e-01 5.430335e+02 
7.420450e-01 5.291724e+02 
7.593780e-01 5.163181e+02 
7.764720e-01 5.042296e+02 
7.942840e-01 4.922080e+02 
8.116170e-01 4.808812e+02 
8.288310e-01 4.701069e+02 
8.462240e-01 4.595717e+02 
8.631980e-01 4.496633e+02 
8.810700e-01 4.396117e+02 
8.989410e-01 4.299292e+02 
9.166330e-01 4.206285e+02 
9.345640e-01 4.114611e+02 
9.515980e-01 4.030281e+02 
9.688720e-01 3.947566e+02 
9.865640e-01 3.865181e+02 
1.031870e+00 3.664757e+02 
1.063490e+00 3.533274e+02 
1.097920e+00 3.397160e+02 
1.134370e+00 3.261171e+02 
1.167730e+00 3.142498e+02 
1.203830e+00 3.020817e+02 
1.240470e+00 2.903825e+02 
1.275790e+00 2.796281e+02 
1.309140e+00 2.700012e+02 
1.342970e+00 2.606356e+02 
1.378420e+00 2.513400e+02 
1.413200e+00 2.426166e+02 
1.448110e+00 2.342739e+02 
1.484090e+00 2.260902e+02 
1.518820e+00 2.185574e+02 
1.552880e+00 2.114667e+02 
1.588630e+00 2.043861e+02 
1.623230e+00 1.978413e+02 
1.657720e+00 1.915989e+02 
1.692450e+00 1.856184e+02 
1.726400e+00 1.799712e+02 
1.762200e+00 1.742701e+02 
1.797880e+00 1.688440e+02 
1.833270e+00 1.636914e+02 
1.869070e+00 1.586948e+02 
1.903200e+00 1.541382e+02 
1.937740e+00 1.497065e+02 
1.973190e+00 1.453373e+02 
2.007440e+00 1.412825e+02 
2.042160e+00 1.373316e+02 
2.077900e+00 1.334165e+02 
2.112390e+00 1.298059e+02 
2.146220e+00 1.263661e+02 
2.181600e+00 1.229215e+02 
2.216930e+00 1.196131e+02 
2.250760e+00 1.165544e+02 
2.286500e+00 1.134375e+02 
2.321770e+00 1.104784e+02 
2.355950e+00 1.077143e+02 
2.391280e+00 1.049490e+02 
2.426240e+00 1.023165e+02 
2.460670e+00 9.981126e+01 
2.495640e+00 9.734601e+01 
2.531080e+00 9.494610e+01 
2.566220e+00 9.264207e+01 
2.600830e+00 9.044830e+01 
2.635080e+00 8.834985e+01 
2.670340e+00 8.625247e+01 
2.705970e+00 8.421152e+01 
2.740040e+00 8.232520e+01 
2.774520e+00 8.046552e+01 
2.809730e+00 7.863174e+01 
2.844390e+00 7.688515e+01 
2.879960e+00 7.514666e+01 
2.914860e+00 7.349286e+01 
2.949410e+00 7.190648e+01 
2.984440e+00 7.035042e+01 
3.019760e+00 6.882511e+01 
3.054730e+00 6.735845e+01 
3.089030e+00 6.596390e+01 
3.124060e+00 6.458188e+01 
3.159560e+00 6.322314e+01 
3.194710e+00 6.191796e+01 
3.229010e+00 6.068072e+01 
3.263320e+00 5.947294e+01 
3.297930e+00 5.828985e+01 
3.332830e+00 5.713251e+01 
3.368040e+00 5.599654e+01 
3.403300e+00 5.488989e+01 
3.438450e+00 5.381572e+01 
3.473060e+00 5.278636e+01 
3.508440e+00 5.176756e+01 
3.543110e+00 5.079544e+01 
3.577470e+00 4.985466e+01 
3.613040e+00 4.890737e+01 
3.648120e+00 4.800087e+01 
3.682910e+00 4.712325e+01 
3.718050e+00 4.625620e+01 
3.753320e+00 4.541065e+01 
3.787980e+00 4.460425e+01 
3.822290e+00 4.382449e+01 
3.857020e+00 4.305279e+01 
3.891920e+00 4.229652e+01 
3.926650e+00 4.156270e+01 
3.961970e+00 4.083461e+01 
3.997360e+00 4.012321e+01 
4.031670e+00 3.945022e+01 
4.066330e+00 3.878802e+01 
4.101420e+00 3.813318e+01 
4.136200e+00 3.749941e+01 
4.170810e+00 3.688308e+01 
4.206250e+00 3.626822e+01 
4.241580e+00 3.566959e+01 
4.276300e+00 3.509442e+01 
4.310970e+00 3.453270e+01 
4.346120e+00 3.397661e+01 
4.380600e+00 3.344446e+01 
4.414730e+00 3.292894e+01 
4.450350e+00 3.240241e+01 
4.485320e+00 3.189666e+01 
4.519810e+00 3.140991e+01 
4.555430e+00 3.091854e+01 
4.590870e+00 3.044064e+01 
4.625480e+00 2.998488e+01 
4.659910e+00 2.954071e+01 
4.695230e+00 2.909452e+01 
4.729960e+00 2.866474e+01 
4.764450e+00 2.824650e+01 
4.799530e+00 2.782964e+01 
4.834910e+00 2.741767e+01 
4.869700e+00 2.702355e+01 
4.904370e+00 2.663893e+01 
4.939450e+00 2.625736e+01 
4.973940e+00 2.588948e+01 
5.008430e+00 2.552859e+01 
5.043810e+00 2.516556e+01 
5.078840e+00 2.481306e+01 
5.113500e+00 2.447086e+01 
5.148890e+00 2.413085e+01 
5.184210e+00 2.379802e+01 
5.219060e+00 2.347539e+01 
5.253660e+00 2.316001e+01 
5.288570e+00 2.284760e+01 
5.323420e+00 2.254266e+01 
5.358440e+00 2.224319e+01 
5.393590e+00 2.194802e+01 
5.428310e+00 2.166174e+01 
5.462800e+00 2.138239e+01 
5.497640e+00 2.110514e+01 
5.532670e+00 2.083305e+01 
5.567280e+00 2.056946e+01 
5.602000e+00 2.030955e+01 
5.637270e+00 2.004924e+01 
5.672410e+00 1.979416e+01 
5.707020e+00 1.954720e+01 
5.742040e+00 1.930336e+01 
5.777430e+00 1.906148e+01 
5.812210e+00 1.882776e+01 
5.846820e+00 1.859901e+01 
5.881610e+00 1.837284e+01 
5.916510e+00 1.814967e+01 
5.951600e+00 1.792971e+01 
5.986560e+00 1.771447e+01 
6.021830e+00 1.750084e+01 
6.056490e+00 1.729477e+01 
6.091160e+00 1.709233e+01 
6.125830e+00 1.689308e+01 
6.161090e+00 1.669365e+01 
6.195760e+00 1.650066e+01 
6.230420e+00 1.631072e+01 
6.265690e+00 1.612048e+01 
6.300950e+00 1.593418e+01 
6.335620e+00 1.575381e+01 
6.370880e+00 1.557319e+01 
6.405550e+00 1.539881e+01 
6.440220e+00 1.522727e+01 
6.475480e+00 1.505544e+01 
6.510150e+00 1.488926e+01 
6.544810e+00 1.472614e+01 
6.580080e+00 1.456260e+01 
6.614750e+00 1.440422e+01 
6.649410e+00 1.424826e+01 
6.684080e+00 1.409452e+01 
6.719340e+00 1.394045e+01 
6.754010e+00 1.379134e+01 
6.788680e+00 1.364482e+01 
6.823940e+00 1.349794e+01 
6.859800e+00 1.335074e+01 
6.894470e+00 1.321093e+01 
6.929140e+00 1.307326e+01 
6.963800e+00 1.293754e+01 
6.999070e+00 1.280137e+01 
7.033730e+00 1.266950e+01 
7.068400e+00 1.253940e+01 
7.103660e+00 1.240892e+01 
7.138330e+00 1.228274e+01 
7.173600e+00 1.215688e+01 
7.208260e+00 1.203489e+01 
7.243530e+00 1.191242e+01 
7.277600e+00 1.179547e+01 
7.312860e+00 1.167583e+01 
7.348120e+00 1.155781e+01 
7.382790e+00 1.144331e+01 
7.417460e+00 1.133098e+01 
7.452720e+00 1.121859e+01 
7.487390e+00 1.110953e+01 
7.522650e+00 1.100007e+01 
7.557320e+00 1.089388e+01 
7.591990e+00 1.078906e+01 
7.627250e+00 1.068384e+01 
7.662510e+00 1.057999e+01 
7.697180e+00 1.047953e+01 
7.731850e+00 1.038047e+01 
7.766510e+00 1.028269e+01 
7.801180e+00 1.018611e+01 
7.836440e+00 1.008915e+01 
7.871110e+00 9.995020e+00 
7.906380e+00 9.900463e+00 
7.941040e+00 9.808698e+00 
7.976310e+00 9.716684e+00 
8.011570e+00 9.626089e+00 
8.046240e+00 9.538104e+00 
8.080900e+00 9.451211e+00 
8.115570e+00 9.365399e+00 
8.150830e+00 9.279395e+00 
8.185500e+00 9.195852e+00 
8.220770e+00 9.111887e+00 
8.255430e+00 9.030363e+00 
8.290100e+00 8.950003e+00 
8.324770e+00 8.870616e+00 
8.359430e+00 8.792185e+00 
8.394700e+00 8.713316e+00 
8.429960e+00 8.635529e+00 
8.464630e+00 8.560068e+00 
8.499890e+00 8.484217e+00 
8.534560e+00 8.410502e+00 
8.569200e+00 8.337697e+00 
