# Parameters:
# omega_b = 0.022760, omega_m = 0.142874, n_s = 0.946063, h = 73.188976, w = -1.000000, sigma_8 = 0.876378
# z = 0.700000
#
# k[1/Mpc] # P(k):
8.694000e-04 8.982616e+03 
2.077466e-03 1.889362e+04 
3.285532e-03 2.654794e+04 
4.493598e-03 3.241068e+04 
5.701664e-03 3.673862e+04 
6.909730e-03 3.979521e+04 
8.117797e-03 4.186747e+04 
9.325863e-03 4.310159e+04 
1.053393e-02 4.363691e+04 
1.174199e-02 4.360026e+04 
1.295006e-02 4.307447e+04 
1.415813e-02 4.217279e+04 
1.536619e-02 4.098864e+04 
1.657426e-02 3.957884e+04 
1.778233e-02 3.794917e+04 
1.899039e-02 3.615685e+04 
2.019846e-02 3.435375e+04 
2.140652e-02 3.264331e+04 
2.261459e-02 3.101714e+04 
2.382266e-02 2.948031e+04 
2.503072e-02 2.804761e+04 
2.623879e-02 2.672575e+04 
2.744685e-02 2.551690e+04 
2.865492e-02 2.442271e+04 
2.986299e-02 2.343756e+04 
3.100100e-02 2.260733e+04 
3.220400e-02 2.182330e+04 
3.288100e-02 2.142385e+04 
3.424300e-02 2.069824e+04 
3.555100e-02 2.008532e+04 
3.686000e-02 1.954298e+04 
3.795000e-02 1.913461e+04 
3.929100e-02 1.867774e+04 
4.039800e-02 1.832603e+04 
4.164000e-02 1.794996e+04 
4.294400e-02 1.756196e+04 
4.415000e-02 1.720721e+04 
4.542900e-02 1.681881e+04 
4.660900e-02 1.645482e+04 
4.782300e-02 1.605598e+04 
4.892900e-02 1.568251e+04 
5.031200e-02 1.519616e+04 
5.155900e-02 1.473846e+04 
5.238100e-02 1.443009e+04 
5.378200e-02 1.389668e+04 
5.513400e-02 1.337500e+04 
5.627600e-02 1.293454e+04 
5.735300e-02 1.252443e+04 
5.870100e-02 1.202312e+04 
5.988700e-02 1.159829e+04 
6.113500e-02 1.117054e+04 
6.225900e-02 1.080512e+04 
6.340100e-02 1.045543e+04 
6.480200e-02 1.005612e+04 
6.601100e-02 9.740933e+03 
6.725500e-02 9.444313e+03 
6.829100e-02 9.220527e+03 
6.958600e-02 8.964655e+03 
7.071100e-02 8.765456e+03 
7.192300e-02 8.571596e+03 
7.307400e-02 8.405736e+03 
7.412300e-02 8.268312e+03 
7.550400e-02 8.106110e+03 
7.663100e-02 7.985189e+03 
7.791200e-02 7.860349e+03 
7.912700e-02 7.750039e+03 
8.027600e-02 7.650226e+03 
8.138400e-02 7.556461e+03 
8.272200e-02 7.444438e+03 
8.406100e-02 7.331609e+03 
8.534100e-02 7.219690e+03 
8.653800e-02 7.110012e+03 
8.759800e-02 7.009884e+03 
8.900300e-02 6.871635e+03 
9.009000e-02 6.759476e+03 
9.113300e-02 6.647085e+03 
9.239600e-02 6.508524e+03 
9.358000e-02 6.375041e+03 
9.496100e-02 6.215021e+03 
9.608400e-02 6.084717e+03 
9.727500e-02 5.947446e+03 
9.852600e-02 5.802816e+03 
9.973800e-02 5.666370e+03 
1.009000e-01 5.538946e+03 
1.020900e-01 5.413362e+03 
1.034000e-01 5.281116e+03 
1.046000e-01 5.165566e+03 
1.057200e-01 5.065314e+03 
1.069100e-01 4.963708e+03 
1.082500e-01 4.858695e+03 
1.093900e-01 4.776079e+03 
1.105400e-01 4.697314e+03 
1.116900e-01 4.626564e+03 
1.129600e-01 4.552512e+03 
1.142000e-01 4.487182e+03 
1.153300e-01 4.430898e+03 
1.166400e-01 4.370030e+03 
1.177800e-01 4.320121e+03 
1.190000e-01 4.268809e+03 
1.201200e-01 4.223280e+03 
1.213400e-01 4.174939e+03 
1.227100e-01 4.120691e+03 
1.238900e-01 4.074584e+03 
1.250700e-01 4.027614e+03 
1.263200e-01 3.977997e+03 
1.275500e-01 3.928039e+03 
1.287500e-01 3.879091e+03 
1.299900e-01 3.827562e+03 
1.311300e-01 3.779966e+03 
1.323500e-01 3.728224e+03 
1.335900e-01 3.675707e+03 
1.347100e-01 3.627817e+03 
1.359800e-01 3.574010e+03 
1.372100e-01 3.521681e+03 
1.384300e-01 3.470586e+03 
1.395700e-01 3.423010e+03 
1.407700e-01 3.373954e+03 
1.420300e-01 3.323144e+03 
1.432800e-01 3.273875e+03 
1.444500e-01 3.228960e+03 
1.456300e-01 3.184603e+03 
1.468900e-01 3.139031e+03 
1.480500e-01 3.098186e+03 
1.491700e-01 3.060104e+03 
1.503800e-01 3.020520e+03 
1.516400e-01 2.980457e+03 
1.528200e-01 2.945032e+03 
1.540200e-01 2.909706e+03 
1.551900e-01 2.877185e+03 
1.564300e-01 2.843685e+03 
1.576600e-01 2.811688e+03 
1.588700e-01 2.781516e+03 
1.600900e-01 2.751707e+03 
1.612700e-01 2.724204e+03 
1.625400e-01 2.695152e+03 
1.637600e-01 2.667935e+03 
1.649500e-01 2.641963e+03 
1.662200e-01 2.614716e+03 
1.674000e-01 2.589669e+03 
1.685000e-01 2.566708e+03 
1.697500e-01 2.540738e+03 
1.710300e-01 2.514306e+03 
1.722200e-01 2.490168e+03 
1.734400e-01 2.465025e+03 
1.746400e-01 2.440684e+03 
1.758700e-01 2.415903e+03 
1.770900e-01 2.391218e+03 
1.782700e-01 2.367743e+03 
1.794600e-01 2.344105e+03 
1.807000e-01 2.319651e+03 
1.819100e-01 2.296190e+03 
1.830100e-01 2.274949e+03 
1.842200e-01 2.251908e+03 
1.855000e-01 2.227945e+03 
1.867000e-01 2.205841e+03 
1.879200e-01 2.183732e+03 
1.890900e-01 2.162902e+03 
1.902800e-01 2.142237e+03 
1.915200e-01 2.121047e+03 
1.926900e-01 2.101448e+03 
1.939000e-01 2.081759e+03 
1.951700e-01 2.061421e+03 
1.963100e-01 2.043548e+03 
1.975100e-01 2.025287e+03 
1.987800e-01 2.006259e+03 
2.000100e-01 1.988219e+03 
2.012500e-01 1.970543e+03 
2.023400e-01 1.955227e+03 
2.036100e-01 1.937689e+03 
2.048900e-01 1.920484e+03 
2.060400e-01 1.905252e+03 
2.072200e-01 1.889849e+03 
2.084200e-01 1.874526e+03 
2.096900e-01 1.858546e+03 
2.109200e-01 1.843295e+03 
2.121100e-01 1.828752e+03 
2.132700e-01 1.814769e+03 
2.145200e-01 1.799910e+03 
2.157200e-01 1.785833e+03 
2.168800e-01 1.772403e+03 
2.180700e-01 1.758809e+03 
2.193400e-01 1.744472e+03 
2.206000e-01 1.730395e+03 
2.217500e-01 1.717720e+03 
2.229500e-01 1.704665e+03 
2.241400e-01 1.691842e+03 
2.253500e-01 1.678974e+03 
2.264900e-01 1.667006e+03 
2.277100e-01 1.654344e+03 
2.289900e-01 1.641220e+03 
2.301500e-01 1.629483e+03 
2.313600e-01 1.617394e+03 
2.325600e-01 1.605567e+03 
2.337700e-01 1.593793e+03 
2.350000e-01 1.581978e+03 
2.362000e-01 1.570610e+03 
2.374100e-01 1.559305e+03 
2.386500e-01 1.547866e+03 
2.399100e-01 1.536393e+03 
2.410400e-01 1.526283e+03 
2.422500e-01 1.515594e+03 
2.435000e-01 1.504689e+03 
2.447300e-01 1.494105e+03 
2.458700e-01 1.484463e+03 
2.470600e-01 1.474515e+03 
2.483300e-01 1.464028e+03 
2.495600e-01 1.454026e+03 
2.507600e-01 1.444424e+03 
2.519600e-01 1.434934e+03 
2.532200e-01 1.425090e+03 
2.543700e-01 1.416245e+03 
2.555500e-01 1.407294e+03 
2.568000e-01 1.397924e+03 
2.580100e-01 1.388959e+03 
2.592400e-01 1.379988e+03 
2.604100e-01 1.371566e+03 
2.616100e-01 1.363025e+03 
2.628400e-01 1.354370e+03 
2.640600e-01 1.345909e+03 
2.652200e-01 1.337963e+03 
2.664300e-01 1.329765e+03 
2.676500e-01 1.321592e+03 
2.688400e-01 1.313724e+03 
2.700700e-01 1.305692e+03 
2.712400e-01 1.298135e+03 
2.724800e-01 1.290213e+03 
2.736700e-01 1.282696e+03 
2.748800e-01 1.275139e+03 
2.761000e-01 1.267601e+03 
2.773200e-01 1.260145e+03 
2.785400e-01 1.252770e+03 
2.797000e-01 1.245833e+03 
2.808900e-01 1.238790e+03 
2.821400e-01 1.231470e+03 
2.833900e-01 1.224229e+03 
2.845500e-01 1.217575e+03 
2.857800e-01 1.210592e+03 
2.870300e-01 1.203571e+03 
2.882100e-01 1.197012e+03 
2.893900e-01 1.190522e+03 
2.906300e-01 1.183773e+03 
2.918900e-01 1.176988e+03 
2.930500e-01 1.170804e+03 
2.942500e-01 1.164468e+03 
2.954200e-01 1.158343e+03 
2.966500e-01 1.151969e+03 
2.978900e-01 1.145608e+03 
2.990400e-01 1.139767e+03 
3.002700e-01 1.133583e+03 
3.015100e-01 1.127413e+03 
3.026800e-01 1.121647e+03 
3.038500e-01 1.115937e+03 
3.050300e-01 1.110231e+03 
3.062600e-01 1.104345e+03 
3.075000e-01 1.098468e+03 
3.087000e-01 1.092837e+03 
3.099100e-01 1.087213e+03 
3.111200e-01 1.081646e+03 
3.123100e-01 1.076229e+03 
3.135300e-01 1.070729e+03 
3.147300e-01 1.065369e+03 
3.159900e-01 1.059796e+03 
3.171800e-01 1.054586e+03 
3.183700e-01 1.049428e+03 
3.196300e-01 1.044018e+03 
3.208400e-01 1.038871e+03 
3.220300e-01 1.033856e+03 
3.232000e-01 1.028981e+03 
3.244300e-01 1.023908e+03 
3.256700e-01 1.018842e+03 
3.269200e-01 1.013782e+03 
3.280800e-01 1.009129e+03 
3.292500e-01 1.004489e+03 
3.304800e-01 9.996600e+02 
3.317100e-01 9.948744e+02 
3.328900e-01 9.903241e+02 
3.340700e-01 9.858131e+02 
3.353600e-01 9.809412e+02 
3.365300e-01 9.765678e+02 
3.377100e-01 9.721946e+02 
3.389200e-01 9.677489e+02 
3.401600e-01 9.632332e+02 
3.413700e-01 9.588762e+02 
3.425300e-01 9.547420e+02 
3.437700e-01 9.503605e+02 
3.449800e-01 9.461222e+02 
3.461800e-01 9.419547e+02 
3.473600e-01 9.378981e+02 
3.485800e-01 9.337562e+02 
3.498100e-01 9.296162e+02 
3.510200e-01 9.255781e+02 
3.522000e-01 9.216729e+02 
3.533900e-01 9.177670e+02 
3.546400e-01 9.137136e+02 
3.558400e-01 9.098560e+02 
3.570600e-01 9.059666e+02 
3.582700e-01 9.021412e+02 
3.595000e-01 8.982848e+02 
3.607100e-01 8.945316e+02 
3.618900e-01 8.909083e+02 
3.631200e-01 8.871621e+02 
3.643200e-01 8.835371e+02 
3.655500e-01 8.798518e+02 
3.667300e-01 8.763446e+02 
3.679500e-01 8.727592e+02 
3.691900e-01 8.691447e+02 
3.703600e-01 8.657614e+02 
3.715700e-01 8.622899e+02 
3.727700e-01 8.588743e+02 
3.739900e-01 8.554354e+02 
3.752000e-01 8.520627e+02 
3.763900e-01 8.487718e+02 
3.775800e-01 8.455061e+02 
3.788200e-01 8.421300e+02 
3.800300e-01 8.388616e+02 
3.812100e-01 8.357008e+02 
3.824200e-01 8.324858e+02 
3.836100e-01 8.293482e+02 
3.848600e-01 8.260780e+02 
3.860400e-01 8.230147e+02 
3.872400e-01 8.199229e+02 
3.884600e-01 8.168125e+02 
3.896500e-01 8.138048e+02 
3.908700e-01 8.107446e+02 
3.920600e-01 8.077821e+02 
3.933100e-01 8.046938e+02 
3.945300e-01 8.017028e+02 
3.957200e-01 7.988071e+02 
3.969300e-01 7.958846e+02 
3.981700e-01 7.929121e+02 
3.993500e-01 7.901045e+02 
4.094840e-01 7.667921e+02 
4.272360e-01 7.292436e+02 
4.454600e-01 6.943149e+02 
4.630560e-01 6.635825e+02 
4.804610e-01 6.357242e+02 
4.980690e-01 6.097754e+02 
5.159230e-01 5.855398e+02 
5.317440e-01 5.656111e+02 
5.489640e-01 5.454390e+02 
5.671990e-01 5.256529e+02 
5.838690e-01 5.088258e+02 
6.018840e-01 4.918925e+02 
6.202330e-01 4.758370e+02 
6.379250e-01 4.613851e+02 
6.545410e-01 4.486691e+02 
6.714560e-01 4.364595e+02 
6.892080e-01 4.244240e+02 
7.066010e-01 4.132842e+02 
7.240540e-01 4.027053e+02 
7.420450e-01 3.923933e+02 
7.593780e-01 3.829633e+02 
7.764720e-01 3.740993e+02 
7.942840e-01 3.652933e+02 
8.116170e-01 3.570935e+02 
8.288310e-01 3.492987e+02 
8.462240e-01 3.417399e+02 
8.631980e-01 3.346436e+02 
8.810700e-01 3.274557e+02 
8.989410e-01 3.205388e+02 
9.166330e-01 3.139317e+02 
9.345640e-01 3.074610e+02 
9.515980e-01 3.015145e+02 
9.688720e-01 2.956704e+02 
9.865640e-01 2.898627e+02 
1.031870e+00 2.758047e+02 
1.063490e+00 2.665587e+02 
1.097920e+00 2.570607e+02 
1.134370e+00 2.474864e+02 
1.167730e+00 2.391789e+02 
1.203830e+00 2.306168e+02 
1.240470e+00 2.223830e+02 
1.275790e+00 2.147961e+02 
1.309140e+00 2.079869e+02 
1.342970e+00 2.013348e+02 
1.378420e+00 1.947121e+02 
1.413200e+00 1.884957e+02 
1.448110e+00 1.825051e+02 
1.484090e+00 1.766275e+02 
1.518820e+00 1.711741e+02 
1.552880e+00 1.660637e+02 
1.588630e+00 1.609080e+02 
1.623230e+00 1.561407e+02 
1.657720e+00 1.515765e+02 
1.692450e+00 1.471900e+02 
1.726400e+00 1.430315e+02 
1.762200e+00 1.388180e+02 
1.797880e+00 1.348059e+02 
1.833270e+00 1.309672e+02 
1.869070e+00 1.272495e+02 
1.903200e+00 1.238380e+02 
1.937740e+00 1.205115e+02 
1.973190e+00 1.172188e+02 
2.007440e+00 1.141612e+02 
2.042160e+00 1.111814e+02 
2.077900e+00 1.082089e+02 
2.112390e+00 1.054599e+02 
2.146220e+00 1.028348e+02 
2.181600e+00 1.001974e+02 
2.216930e+00 9.765948e+01 
2.250760e+00 9.530124e+01 
2.286500e+00 9.289178e+01 
2.321770e+00 9.060924e+01 
2.355950e+00 8.848104e+01 
2.391280e+00 8.633530e+01 
2.426240e+00 8.428178e+01 
2.460670e+00 8.232506e+01 
2.495640e+00 8.040188e+01 
2.531080e+00 7.852417e+01 
2.566220e+00 7.671289e+01 
2.600830e+00 7.498705e+01 
2.635080e+00 7.333777e+01 
2.670340e+00 7.167803e+01 
2.705970e+00 7.006053e+01 
2.740040e+00 6.856470e+01 
2.774520e+00 6.709245e+01 
2.809730e+00 6.563372e+01 
2.844390e+00 6.424087e+01 
2.879960e+00 6.285252e+01 
2.914860e+00 6.152979e+01 
2.949410e+00 6.025846e+01 
2.984440e+00 5.900489e+01 
3.019760e+00 5.778153e+01 
3.054730e+00 5.660740e+01 
3.089030e+00 5.547958e+01 
3.124060e+00 5.436277e+01 
3.159560e+00 5.326626e+01 
3.194710e+00 5.220463e+01 
3.229010e+00 5.119608e+01 
3.263320e+00 5.021837e+01 
3.297930e+00 4.925849e+01 
3.332830e+00 4.831553e+01 
3.368040e+00 4.738910e+01 
3.403300e+00 4.648586e+01 
3.438450e+00 4.560832e+01 
3.473060e+00 4.476694e+01 
3.508440e+00 4.393277e+01 
3.543110e+00 4.313596e+01 
3.577470e+00 4.236142e+01 
3.613040e+00 4.158105e+01 
3.648120e+00 4.083340e+01 
3.682910e+00 4.011030e+01 
3.718050e+00 3.939750e+01 
3.753320e+00 3.869955e+01 
3.787980e+00 3.802996e+01 
3.822290e+00 3.738431e+01 
3.857020e+00 3.674817e+01 
3.891920e+00 3.612260e+01 
3.926650e+00 3.551190e+01 
3.961970e+00 3.490645e+01 
3.997360e+00 3.431629e+01 
4.031670e+00 3.375734e+01 
4.066330e+00 3.320510e+01 
4.101420e+00 3.265890e+01 
4.136200e+00 3.213179e+01 
4.170810e+00 3.161904e+01 
4.206250e+00 3.110519e+01 
4.241580e+00 3.060438e+01 
4.276300e+00 3.012353e+01 
4.310970e+00 2.965406e+01 
4.346120e+00 2.918871e+01 
4.380600e+00 2.874250e+01 
4.414730e+00 2.831014e+01 
4.450350e+00 2.786890e+01 
4.485320e+00 2.744498e+01 
4.519810e+00 2.703611e+01 
4.555430e+00 2.662292e+01 
4.590870e+00 2.622069e+01 
4.625480e+00 2.583644e+01 
4.659910e+00 2.546190e+01 
4.695230e+00 2.508608e+01 
4.729960e+00 2.472409e+01 
4.764450e+00 2.437200e+01 
4.799530e+00 2.402146e+01 
4.834910e+00 2.367494e+01 
4.869700e+00 2.334155e+01 
4.904370e+00 2.301584e+01 
4.939450e+00 2.269285e+01 
4.973940e+00 2.238191e+01 
5.008430e+00 2.207682e+01 
5.043810e+00 2.177034e+01 
5.078840e+00 2.147297e+01 
5.113500e+00 2.118422e+01 
5.148890e+00 2.089551e+01 
5.184210e+00 2.061278e+01 
5.219060e+00 2.033915e+01 
5.253660e+00 2.007298e+01 
5.288570e+00 1.980926e+01 
5.323420e+00 1.955109e+01 
5.358440e+00 1.929670e+01 
5.393590e+00 1.904592e+01 
5.428310e+00 1.880308e+01 
5.462800e+00 1.856629e+01 
5.497640e+00 1.833124e+01 
5.532670e+00 1.809958e+01 
5.567280e+00 1.787480e+01 
5.602000e+00 1.765314e+01 
5.637270e+00 1.743234e+01 
5.672410e+00 1.721622e+01 
5.707020e+00 1.700694e+01 
5.742040e+00 1.679932e+01 
5.777430e+00 1.659314e+01 
5.812210e+00 1.639389e+01 
5.846820e+00 1.619925e+01 
5.881610e+00 1.600687e+01 
5.916510e+00 1.581702e+01 
5.951600e+00 1.562975e+01 
5.986560e+00 1.544641e+01 
6.021830e+00 1.526442e+01 
6.056490e+00 1.508873e+01 
6.091160e+00 1.491601e+01 
6.125830e+00 1.474598e+01 
6.161090e+00 1.457593e+01 
6.195760e+00 1.441167e+01 
6.230420e+00 1.424997e+01 
6.265690e+00 1.408798e+01 
6.300950e+00 1.392918e+01 
6.335620e+00 1.377542e+01 
6.370880e+00 1.362140e+01 
6.405550e+00 1.347254e+01 
6.440220e+00 1.332601e+01 
6.475480e+00 1.317922e+01 
6.510150e+00 1.303718e+01 
6.544810e+00 1.289764e+01 
6.580080e+00 1.275773e+01 
6.614750e+00 1.262220e+01 
6.649410e+00 1.248904e+01 
6.684080e+00 1.235781e+01 
6.719340e+00 1.222627e+01 
6.754010e+00 1.209891e+01 
6.788680e+00 1.197364e+01 
6.823940e+00 1.184803e+01 
6.859800e+00 1.172213e+01 
6.894470e+00 1.160240e+01 
6.929140e+00 1.148443e+01 
6.963800e+00 1.136813e+01 
6.999070e+00 1.125144e+01 
7.033730e+00 1.113875e+01 
7.068400e+00 1.102756e+01 
7.103660e+00 1.091601e+01 
7.138330e+00 1.080794e+01 
7.173600e+00 1.069970e+01 
7.208260e+00 1.059477e+01 
7.243530e+00 1.048942e+01 
7.277600e+00 1.038917e+01 
7.312860e+00 1.028693e+01 
7.348120e+00 1.018606e+01 
7.382790e+00 1.008818e+01 
7.417460e+00 9.991788e+00 
7.452720e+00 9.895139e+00 
7.487390e+00 9.801339e+00 
7.522650e+00 9.707174e+00 
7.557320e+00 9.615988e+00 
7.591990e+00 9.526038e+00 
7.627250e+00 9.435723e+00 
7.662510e+00 9.346564e+00 
7.697180e+00 9.260208e+00 
7.731850e+00 9.175007e+00 
7.766510e+00 9.090889e+00 
7.801180e+00 9.007787e+00 
7.836440e+00 8.924463e+00 
7.871110e+00 8.843635e+00 
7.906380e+00 8.762420e+00 
7.941040e+00 8.683590e+00 
7.976310e+00 8.604454e+00 
8.011570e+00 8.526435e+00 
8.046240e+00 8.450650e+00 
8.080900e+00 8.375793e+00 
8.115570e+00 8.301866e+00 
8.150830e+00 8.227801e+00 
8.185500e+00 8.155844e+00 
8.220770e+00 8.083510e+00 
8.255430e+00 8.013268e+00 
8.290100e+00 7.943976e+00 
8.324770e+00 7.875508e+00 
8.359430e+00 7.807852e+00 
8.394700e+00 7.739808e+00 
8.429960e+00 7.672680e+00 
8.464630e+00 7.607543e+00 
8.499890e+00 7.542059e+00 
8.534560e+00 7.478408e+00 
8.569200e+00 7.415533e+00 
