# Parameters:
# omega_b = 0.022744, omega_m = 0.143976, n_s = 0.966535, h = 55.708661, w = -1.000000, sigma_8 = 0.833858
# z = 0.700000
#
# k[1/Mpc] # P(k):
8.694000e-04 8.923478e+03 
2.077466e-03 1.910109e+04 
3.285532e-03 2.713858e+04 
4.493598e-03 3.340214e+04 
5.701664e-03 3.812203e+04 
6.909730e-03 4.153057e+04 
8.117797e-03 4.390027e+04 
9.325863e-03 4.537152e+04 
1.053393e-02 4.608739e+04 
1.174199e-02 4.618459e+04 
1.295006e-02 4.574678e+04 
1.415813e-02 4.489220e+04 
1.536619e-02 4.372614e+04 
1.657426e-02 4.233349e+04 
1.778233e-02 4.086627e+04 
1.899039e-02 3.949023e+04 
2.019846e-02 3.809213e+04 
2.140652e-02 3.659592e+04 
2.261459e-02 3.506441e+04 
2.382266e-02 3.356991e+04 
2.503072e-02 3.214511e+04 
2.623879e-02 3.080163e+04 
2.744685e-02 2.954160e+04 
2.865492e-02 2.837434e+04 
2.986299e-02 2.729838e+04 
3.100100e-02 2.636711e+04 
3.220400e-02 2.546464e+04 
3.288100e-02 2.499332e+04 
3.424300e-02 2.411738e+04 
3.555100e-02 2.335677e+04 
3.686000e-02 2.266620e+04 
3.795000e-02 2.213669e+04 
3.929100e-02 2.153595e+04 
4.039800e-02 2.107300e+04 
4.164000e-02 2.058176e+04 
4.294400e-02 2.008822e+04 
4.415000e-02 1.964886e+04 
4.542900e-02 1.918905e+04 
4.660900e-02 1.877245e+04 
4.782300e-02 1.833804e+04 
4.892900e-02 1.794313e+04 
5.031200e-02 1.744495e+04 
5.155900e-02 1.698872e+04 
5.238100e-02 1.668563e+04 
5.378200e-02 1.616636e+04 
5.513400e-02 1.566086e+04 
5.627600e-02 1.523273e+04 
5.735300e-02 1.483078e+04 
5.870100e-02 1.433258e+04 
5.988700e-02 1.390245e+04 
6.113500e-02 1.345990e+04 
6.225900e-02 1.307185e+04 
6.340100e-02 1.269014e+04 
6.480200e-02 1.224192e+04 
6.601100e-02 1.187426e+04 
6.725500e-02 1.151634e+04 
6.829100e-02 1.123596e+04 
6.958600e-02 1.090667e+04 
7.071100e-02 1.064134e+04 
7.192300e-02 1.037594e+04 
7.307400e-02 1.014319e+04 
7.412300e-02 9.946685e+03 
7.550400e-02 9.710853e+03 
7.663100e-02 9.533935e+03 
7.791200e-02 9.351920e+03 
7.912700e-02 9.194476e+03 
8.027600e-02 9.055986e+03 
8.138400e-02 8.929999e+03 
8.272200e-02 8.785871e+03 
8.406100e-02 8.647668e+03 
8.534100e-02 8.518063e+03 
8.653800e-02 8.396238e+03 
8.759800e-02 8.287605e+03 
8.900300e-02 8.140920e+03 
9.009000e-02 8.023845e+03 
9.113300e-02 7.907404e+03 
9.239600e-02 7.764234e+03 
9.358000e-02 7.626357e+03 
9.496100e-02 7.460361e+03 
9.608400e-02 7.324451e+03 
9.727500e-02 7.180577e+03 
9.852600e-02 7.027098e+03 
9.973800e-02 6.881073e+03 
1.009000e-01 6.743662e+03 
1.020900e-01 6.605428e+03 
1.034000e-01 6.458175e+03 
1.046000e-01 6.327747e+03 
1.057200e-01 6.211245e+03 
1.069100e-01 6.091800e+03 
1.082500e-01 5.964318e+03 
1.093900e-01 5.861311e+03 
1.105400e-01 5.761473e+03 
1.116900e-01 5.668023e+03 
1.129600e-01 5.568956e+03 
1.142000e-01 5.478451e+03 
1.153300e-01 5.399644e+03 
1.166400e-01 5.313060e+03 
1.177800e-01 5.241836e+03 
1.190000e-01 5.168497e+03 
1.201200e-01 5.104837e+03 
1.213400e-01 5.037500e+03 
1.227100e-01 4.965718e+03 
1.238900e-01 4.905655e+03 
1.250700e-01 4.847558e+03 
1.263200e-01 4.787420e+03 
1.275500e-01 4.729559e+03 
1.287500e-01 4.674080e+03 
1.299900e-01 4.617541e+03 
1.311300e-01 4.566067e+03 
1.323500e-01 4.511203e+03 
1.335900e-01 4.455795e+03 
1.347100e-01 4.405631e+03 
1.359800e-01 4.349142e+03 
1.372100e-01 4.293984e+03 
1.384300e-01 4.239794e+03 
1.395700e-01 4.188602e+03 
1.407700e-01 4.135645e+03 
1.420300e-01 4.079342e+03 
1.432800e-01 4.024713e+03 
1.444500e-01 3.973224e+03 
1.456300e-01 3.922354e+03 
1.468900e-01 3.868800e+03 
1.480500e-01 3.820405e+03 
1.491700e-01 3.774661e+03 
1.503800e-01 3.726311e+03 
1.516400e-01 3.677157e+03 
1.528200e-01 3.632735e+03 
1.540200e-01 3.588440e+03 
1.551900e-01 3.547021e+03 
1.564300e-01 3.504198e+03 
1.576600e-01 3.463126e+03 
1.588700e-01 3.424182e+03 
1.600900e-01 3.385717e+03 
1.612700e-01 3.350285e+03 
1.625400e-01 3.312862e+03 
1.637600e-01 3.278101e+03 
1.649500e-01 3.245106e+03 
1.662200e-01 3.210607e+03 
1.674000e-01 3.179536e+03 
1.685000e-01 3.151053e+03 
1.697500e-01 3.119279e+03 
1.710300e-01 3.087375e+03 
1.722200e-01 3.058238e+03 
1.734400e-01 3.028685e+03 
1.746400e-01 3.000105e+03 
1.758700e-01 2.971192e+03 
1.770900e-01 2.942765e+03 
1.782700e-01 2.915727e+03 
1.794600e-01 2.888684e+03 
1.807000e-01 2.860824e+03 
1.819100e-01 2.834091e+03 
1.830100e-01 2.809903e+03 
1.842200e-01 2.783663e+03 
1.855000e-01 2.756357e+03 
1.867000e-01 2.730980e+03 
1.879200e-01 2.705591e+03 
1.890900e-01 2.681615e+03 
1.902800e-01 2.657556e+03 
1.915200e-01 2.632879e+03 
1.926900e-01 2.609965e+03 
1.939000e-01 2.586658e+03 
1.951700e-01 2.562579e+03 
1.963100e-01 2.541328e+03 
1.975100e-01 2.519379e+03 
1.987800e-01 2.496507e+03 
2.000100e-01 2.474748e+03 
2.012500e-01 2.453262e+03 
2.023400e-01 2.434643e+03 
2.036100e-01 2.413297e+03 
2.048900e-01 2.392255e+03 
2.060400e-01 2.373625e+03 
2.072200e-01 2.354784e+03 
2.084200e-01 2.336011e+03 
2.096900e-01 2.316430e+03 
2.109200e-01 2.297744e+03 
2.121100e-01 2.279924e+03 
2.132700e-01 2.262790e+03 
2.145200e-01 2.244582e+03 
2.157200e-01 2.227307e+03 
2.168800e-01 2.210813e+03 
2.180700e-01 2.194118e+03 
2.193400e-01 2.176459e+03 
2.206000e-01 2.159026e+03 
2.217500e-01 2.143329e+03 
2.229500e-01 2.127162e+03 
2.241400e-01 2.111029e+03 
2.253500e-01 2.094833e+03 
2.264900e-01 2.079770e+03 
2.277100e-01 2.063644e+03 
2.289900e-01 2.046718e+03 
2.301500e-01 2.031581e+03 
2.313600e-01 2.015989e+03 
2.325600e-01 2.000273e+03 
2.337700e-01 1.984631e+03 
2.350000e-01 1.968936e+03 
2.362000e-01 1.953624e+03 
2.374100e-01 1.938147e+03 
2.386500e-01 1.922492e+03 
2.399100e-01 1.906792e+03 
2.410400e-01 1.892643e+03 
2.422500e-01 1.877647e+03 
2.435000e-01 1.862353e+03 
2.447300e-01 1.847471e+03 
2.458700e-01 1.833743e+03 
2.470600e-01 1.819585e+03 
2.483300e-01 1.804665e+03 
2.495600e-01 1.790425e+03 
2.507600e-01 1.776739e+03 
2.519600e-01 1.763217e+03 
2.532200e-01 1.749195e+03 
2.543700e-01 1.736685e+03 
2.555500e-01 1.724089e+03 
2.568000e-01 1.710905e+03 
2.580100e-01 1.698296e+03 
2.592400e-01 1.685874e+03 
2.604100e-01 1.674300e+03 
2.616100e-01 1.662565e+03 
2.628400e-01 1.650676e+03 
2.640600e-01 1.639301e+03 
2.652200e-01 1.628718e+03 
2.664300e-01 1.617801e+03 
2.676500e-01 1.606918e+03 
2.688400e-01 1.596650e+03 
2.700700e-01 1.586299e+03 
2.712400e-01 1.576560e+03 
2.724800e-01 1.566351e+03 
2.736700e-01 1.556808e+03 
2.748800e-01 1.547360e+03 
2.761000e-01 1.537937e+03 
2.773200e-01 1.528616e+03 
2.785400e-01 1.519466e+03 
2.797000e-01 1.511004e+03 
2.808900e-01 1.502413e+03 
2.821400e-01 1.493484e+03 
2.833900e-01 1.484658e+03 
2.845500e-01 1.476684e+03 
2.857800e-01 1.468315e+03 
2.870300e-01 1.459900e+03 
2.882100e-01 1.452039e+03 
2.893900e-01 1.444318e+03 
2.906300e-01 1.436322e+03 
2.918900e-01 1.428281e+03 
2.930500e-01 1.420954e+03 
2.942500e-01 1.413456e+03 
2.954200e-01 1.406245e+03 
2.966500e-01 1.398739e+03 
2.978900e-01 1.391249e+03 
2.990400e-01 1.384371e+03 
3.002700e-01 1.377104e+03 
3.015100e-01 1.369860e+03 
3.026800e-01 1.363091e+03 
3.038500e-01 1.356387e+03 
3.050300e-01 1.349689e+03 
3.062600e-01 1.342785e+03 
3.075000e-01 1.335893e+03 
3.087000e-01 1.329289e+03 
3.099100e-01 1.322692e+03 
3.111200e-01 1.316163e+03 
3.123100e-01 1.309809e+03 
3.135300e-01 1.303357e+03 
3.147300e-01 1.297070e+03 
3.159900e-01 1.290532e+03 
3.171800e-01 1.284418e+03 
3.183700e-01 1.278363e+03 
3.196300e-01 1.272011e+03 
3.208400e-01 1.265969e+03 
3.220300e-01 1.260081e+03 
3.232000e-01 1.254355e+03 
3.244300e-01 1.248393e+03 
3.256700e-01 1.242439e+03 
3.269200e-01 1.236493e+03 
3.280800e-01 1.231024e+03 
3.292500e-01 1.225569e+03 
3.304800e-01 1.219888e+03 
3.317100e-01 1.214259e+03 
3.328900e-01 1.208907e+03 
3.340700e-01 1.203601e+03 
3.353600e-01 1.197867e+03 
3.365300e-01 1.192717e+03 
3.377100e-01 1.187568e+03 
3.389200e-01 1.182333e+03 
3.401600e-01 1.177016e+03 
3.413700e-01 1.171884e+03 
3.425300e-01 1.167013e+03 
3.437700e-01 1.161850e+03 
3.449800e-01 1.156856e+03 
3.461800e-01 1.151945e+03 
3.473600e-01 1.147165e+03 
3.485800e-01 1.142282e+03 
3.498100e-01 1.137402e+03 
3.510200e-01 1.132641e+03 
3.522000e-01 1.128038e+03 
3.533900e-01 1.123433e+03 
3.546400e-01 1.118652e+03 
3.558400e-01 1.114102e+03 
3.570600e-01 1.109514e+03 
3.582700e-01 1.105002e+03 
3.595000e-01 1.100453e+03 
3.607100e-01 1.096026e+03 
3.618900e-01 1.091751e+03 
3.631200e-01 1.087332e+03 
3.643200e-01 1.083055e+03 
3.655500e-01 1.078707e+03 
3.667300e-01 1.074570e+03 
3.679500e-01 1.070338e+03 
3.691900e-01 1.066072e+03 
3.703600e-01 1.062080e+03 
3.715700e-01 1.057983e+03 
3.727700e-01 1.053952e+03 
3.739900e-01 1.049893e+03 
3.752000e-01 1.045913e+03 
3.763900e-01 1.042029e+03 
3.775800e-01 1.038175e+03 
3.788200e-01 1.034190e+03 
3.800300e-01 1.030333e+03 
3.812100e-01 1.026601e+03 
3.824200e-01 1.022806e+03 
3.836100e-01 1.019102e+03 
3.848600e-01 1.015241e+03 
3.860400e-01 1.011625e+03 
3.872400e-01 1.007975e+03 
3.884600e-01 1.004302e+03 
3.896500e-01 1.000751e+03 
3.908700e-01 9.971378e+02 
3.920600e-01 9.936400e+02 
3.933100e-01 9.899939e+02 
3.945300e-01 9.864625e+02 
3.957200e-01 9.830409e+02 
3.969300e-01 9.795868e+02 
3.981700e-01 9.760738e+02 
3.993500e-01 9.727556e+02 
4.094840e-01 9.451955e+02 
4.272360e-01 9.007376e+02 
4.454600e-01 8.592718e+02 
4.630560e-01 8.226773e+02 
4.804610e-01 7.894248e+02 
4.980690e-01 7.583787e+02 
5.159230e-01 7.293470e+02 
5.317440e-01 7.054533e+02 
5.489640e-01 6.812656e+02 
5.671990e-01 6.575498e+02 
5.838690e-01 6.373904e+02 
6.018840e-01 6.171183e+02 
6.202330e-01 5.979011e+02 
6.379250e-01 5.806094e+02 
6.545410e-01 5.653930e+02 
6.714560e-01 5.507689e+02 
6.892080e-01 5.363434e+02 
7.066010e-01 5.229591e+02 
7.240540e-01 5.102225e+02 
7.420450e-01 4.977686e+02 
7.593780e-01 4.863427e+02 
7.764720e-01 4.755643e+02 
7.942840e-01 4.648139e+02 
8.116170e-01 4.547501e+02 
8.288310e-01 4.451396e+02 
8.462240e-01 4.357773e+02 
8.631980e-01 4.269450e+02 
8.810700e-01 4.179556e+02 
8.989410e-01 4.092628e+02 
9.166330e-01 4.009182e+02 
9.345640e-01 3.927043e+02 
9.515980e-01 3.851217e+02 
9.688720e-01 3.776363e+02 
9.865640e-01 3.701611e+02 
1.031870e+00 3.519622e+02 
1.063490e+00 3.398951e+02 
1.097920e+00 3.274267e+02 
1.134370e+00 3.148033e+02 
1.167730e+00 3.037995e+02 
1.203830e+00 2.924179e+02 
1.240470e+00 2.814459e+02 
1.275790e+00 2.713125e+02 
1.309140e+00 2.622076e+02 
1.342970e+00 2.533008e+02 
1.378420e+00 2.444313e+02 
1.413200e+00 2.361033e+02 
1.448110e+00 2.280800e+02 
1.484090e+00 2.202112e+02 
1.518820e+00 2.129190e+02 
1.552880e+00 2.060897e+02 
1.588630e+00 1.992115e+02 
1.623230e+00 1.928587e+02 
1.657720e+00 1.867856e+02 
1.692450e+00 1.809561e+02 
1.726400e+00 1.754420e+02 
1.762200e+00 1.698652e+02 
1.797880e+00 1.645647e+02 
1.833270e+00 1.595051e+02 
1.869070e+00 1.546136e+02 
1.903200e+00 1.501350e+02 
1.937740e+00 1.457771e+02 
1.973190e+00 1.414726e+02 
2.007440e+00 1.374851e+02 
2.042160e+00 1.336060e+02 
2.077900e+00 1.297471e+02 
2.112390e+00 1.261844e+02 
2.146220e+00 1.227930e+02 
2.181600e+00 1.193909e+02 
2.216930e+00 1.161254e+02 
2.250760e+00 1.130986e+02 
2.286500e+00 1.100130e+02 
2.321770e+00 1.070959e+02 
2.355950e+00 1.043809e+02 
2.391280e+00 1.016513e+02 
2.426240e+00 9.904531e+01 
2.460670e+00 9.656763e+01 
2.495640e+00 9.413735e+01 
2.531080e+00 9.176954e+01 
2.566220e+00 8.949180e+01 
2.600830e+00 8.732583e+01 
2.635080e+00 8.525941e+01 
2.670340e+00 8.318628e+01 
2.705970e+00 8.116980e+01 
2.740040e+00 7.930828e+01 
2.774520e+00 7.747985e+01 
2.809730e+00 7.567247e+01 
2.844390e+00 7.394995e+01 
2.879960e+00 7.223687e+01 
2.914860e+00 7.060861e+01 
2.949410e+00 6.904630e+01 
2.984440e+00 6.750936e+01 
3.019760e+00 6.601206e+01 
3.054730e+00 6.457711e+01 
3.089030e+00 6.320311e+01 
3.124060e+00 6.184442e+01 
3.159560e+00 6.051272e+01 
3.194710e+00 5.922662e+01 
3.229010e+00 5.800654e+01 
3.263320e+00 5.682644e+01 
3.297930e+00 5.566944e+01 
3.332830e+00 5.453518e+01 
3.368040e+00 5.342289e+01 
3.403300e+00 5.234015e+01 
3.438450e+00 5.129066e+01 
3.473060e+00 5.028551e+01 
3.508440e+00 4.929125e+01 
3.543110e+00 4.834251e+01 
3.577470e+00 4.742283e+01 
3.613040e+00 4.649718e+01 
3.648120e+00 4.561196e+01 
3.682910e+00 4.475693e+01 
3.718050e+00 4.391573e+01 
3.753320e+00 4.309322e+01 
3.787980e+00 4.230557e+01 
3.822290e+00 4.154701e+01 
3.857020e+00 4.080085e+01 
3.891920e+00 4.006808e+01 
3.926650e+00 3.935419e+01 
3.961970e+00 3.864718e+01 
3.997360e+00 3.795925e+01 
4.031670e+00 3.730829e+01 
4.066330e+00 3.666650e+01 
4.101420e+00 3.603212e+01 
4.136200e+00 3.542120e+01 
4.170810e+00 3.482721e+01 
4.206250e+00 3.423326e+01 
4.241580e+00 3.365485e+01 
4.276300e+00 3.310039e+01 
4.310970e+00 3.255966e+01 
4.346120e+00 3.202428e+01 
4.380600e+00 3.151174e+01 
4.414730e+00 3.101537e+01 
4.450350e+00 3.050990e+01 
4.485320e+00 3.002448e+01 
4.519810e+00 2.955710e+01 
4.555430e+00 2.908523e+01 
4.590870e+00 2.862631e+01 
4.625480e+00 2.818856e+01 
4.659910e+00 2.776203e+01 
4.695230e+00 2.733487e+01 
4.729960e+00 2.692368e+01 
4.764450e+00 2.652415e+01 
4.799530e+00 2.612691e+01 
4.834910e+00 2.573438e+01 
4.869700e+00 2.535739e+01 
4.904370e+00 2.498930e+01 
4.939450e+00 2.462456e+01 
4.973940e+00 2.427397e+01 
5.008430e+00 2.393009e+01 
5.043810e+00 2.358508e+01 
5.078840e+00 2.325062e+01 
5.113500e+00 2.292597e+01 
5.148890e+00 2.260193e+01 
5.184210e+00 2.228473e+01 
5.219060e+00 2.197794e+01 
5.253660e+00 2.167993e+01 
5.288570e+00 2.138476e+01 
5.323420e+00 2.109607e+01 
5.358440e+00 2.081190e+01 
5.393590e+00 2.053186e+01 
5.428310e+00 2.026099e+01 
5.462800e+00 1.999708e+01 
5.497640e+00 1.973519e+01 
5.532670e+00 1.947738e+01 
5.567280e+00 1.922739e+01 
5.602000e+00 1.898093e+01 
5.637270e+00 1.873573e+01 
5.672410e+00 1.849586e+01 
5.707020e+00 1.826364e+01 
5.742040e+00 1.803355e+01 
5.777430e+00 1.780517e+01 
5.812210e+00 1.758451e+01 
5.846820e+00 1.736922e+01 
5.881610e+00 1.715654e+01 
5.916510e+00 1.694669e+01 
5.951600e+00 1.673991e+01 
5.986560e+00 1.653758e+01 
6.021830e+00 1.633678e+01 
6.056490e+00 1.614311e+01 
6.091160e+00 1.595284e+01 
6.125830e+00 1.576559e+01 
6.161090e+00 1.557840e+01 
6.195760e+00 1.539775e+01 
6.230420e+00 1.521995e+01 
6.265690e+00 1.504189e+01 
6.300950e+00 1.486754e+01 
6.335620e+00 1.469876e+01 
6.370880e+00 1.452974e+01 
6.405550e+00 1.436651e+01 
6.440220e+00 1.420592e+01 
6.475480e+00 1.404506e+01 
6.510150e+00 1.388949e+01 
6.544810e+00 1.373679e+01 
6.580080e+00 1.358371e+01 
6.614750e+00 1.343546e+01 
6.649410e+00 1.328993e+01 
6.684080e+00 1.314656e+01 
6.719340e+00 1.300289e+01 
6.754010e+00 1.286383e+01 
6.788680e+00 1.272715e+01 
6.823940e+00 1.259015e+01 
6.859800e+00 1.245283e+01 
6.894470e+00 1.232236e+01 
6.929140e+00 1.219386e+01 
6.963800e+00 1.206719e+01 
6.999070e+00 1.194013e+01 
7.033730e+00 1.181754e+01 
7.068400e+00 1.169659e+01 
7.103660e+00 1.157528e+01 
7.138330e+00 1.145780e+01 
7.173600e+00 1.134022e+01 
7.208260e+00 1.122626e+01 
7.243530e+00 1.111186e+01 
7.277600e+00 1.100305e+01 
7.312860e+00 1.089215e+01 
7.348120e+00 1.078274e+01 
7.382790e+00 1.067659e+01 
7.417460e+00 1.057212e+01 
7.452720e+00 1.046742e+01 
7.487390e+00 1.036582e+01 
7.522650e+00 1.026384e+01 
7.557320e+00 1.016515e+01 
7.591990e+00 1.006783e+01 
7.627250e+00 9.970133e+00 
7.662510e+00 9.873700e+00 
7.697180e+00 9.780359e+00 
7.731850e+00 9.688297e+00 
7.766510e+00 9.597417e+00 
7.801180e+00 9.507649e+00 
7.836440e+00 9.417692e+00 
7.871110e+00 9.330466e+00 
7.906380e+00 9.242835e+00 
7.941040e+00 9.157788e+00 
7.976310e+00 9.072450e+00 
8.011570e+00 8.988356e+00 
8.046240e+00 8.906682e+00 
8.080900e+00 8.826019e+00 
8.115570e+00 8.746379e+00 
8.150830e+00 8.666646e+00 
8.185500e+00 8.589191e+00 
8.220770e+00 8.511341e+00 
8.255430e+00 8.435751e+00 
8.290100e+00 8.361237e+00 
8.324770e+00 8.287622e+00 
8.359430e+00 8.214889e+00 
8.394700e+00 8.141748e+00 
8.429960e+00 8.069625e+00 
8.464630e+00 7.999671e+00 
8.499890e+00 7.929354e+00 
8.534560e+00 7.861014e+00 
8.569200e+00 7.793514e+00 
