# Parameters:
# omega_b = 0.023280, omega_m = 0.145079, n_s = 0.944488, h = 70.826772, w = -1.000000, sigma_8 = 0.846457
# z = 0.700000
#
# k[1/Mpc] # P(k):
8.694000e-04 8.372843e+03 
2.077466e-03 1.760971e+04 
3.285532e-03 2.475707e+04 
4.493598e-03 3.025698e+04 
5.701664e-03 3.433350e+04 
6.909730e-03 3.722970e+04 
8.117797e-03 3.921200e+04 
9.325863e-03 4.041482e+04 
1.053393e-02 4.096535e+04 
1.174199e-02 4.097887e+04 
1.295006e-02 4.053142e+04 
1.415813e-02 3.972777e+04 
1.536619e-02 3.865436e+04 
1.657426e-02 3.736428e+04 
1.778233e-02 3.586682e+04 
1.899039e-02 3.422676e+04 
2.019846e-02 3.258013e+04 
2.140652e-02 3.101071e+04 
2.261459e-02 2.950960e+04 
2.382266e-02 2.808421e+04 
2.503072e-02 2.674973e+04 
2.623879e-02 2.551325e+04 
2.744685e-02 2.437690e+04 
2.865492e-02 2.334371e+04 
2.986299e-02 2.240927e+04 
3.100100e-02 2.161788e+04 
3.220400e-02 2.086704e+04 
3.288100e-02 2.048284e+04 
3.424300e-02 1.978242e+04 
3.555100e-02 1.918836e+04 
3.686000e-02 1.866102e+04 
3.795000e-02 1.826331e+04 
3.929100e-02 1.781839e+04 
4.039800e-02 1.747671e+04 
4.164000e-02 1.711266e+04 
4.294400e-02 1.673989e+04 
4.415000e-02 1.640104e+04 
4.542900e-02 1.603308e+04 
4.660900e-02 1.569003e+04 
4.782300e-02 1.531650e+04 
4.892900e-02 1.496772e+04 
5.031200e-02 1.451463e+04 
5.155900e-02 1.408870e+04 
5.238100e-02 1.380169e+04 
5.378200e-02 1.330483e+04 
5.513400e-02 1.281791e+04 
5.627600e-02 1.240575e+04 
5.735300e-02 1.202096e+04 
5.870100e-02 1.154907e+04 
5.988700e-02 1.114775e+04 
6.113500e-02 1.074220e+04 
6.225900e-02 1.039434e+04 
6.340100e-02 1.006016e+04 
6.480200e-02 9.677110e+03 
6.601100e-02 9.373234e+03 
6.725500e-02 9.086025e+03 
6.829100e-02 8.868306e+03 
6.958600e-02 8.618539e+03 
7.071100e-02 8.423248e+03 
7.192300e-02 8.232531e+03 
7.307400e-02 8.068853e+03 
7.412300e-02 7.932921e+03 
7.550400e-02 7.772168e+03 
7.663100e-02 7.652272e+03 
7.791200e-02 7.528661e+03 
7.912700e-02 7.419886e+03 
8.027600e-02 7.321970e+03 
8.138400e-02 7.230506e+03 
8.272200e-02 7.122038e+03 
8.406100e-02 7.013680e+03 
8.534100e-02 6.907176e+03 
8.653800e-02 6.803506e+03 
8.759800e-02 6.709219e+03 
8.900300e-02 6.579490e+03 
9.009000e-02 6.474514e+03 
9.113300e-02 6.369420e+03 
9.239600e-02 6.239870e+03 
9.358000e-02 6.115009e+03 
9.496100e-02 5.965056e+03 
9.608400e-02 5.842715e+03 
9.727500e-02 5.713626e+03 
9.852600e-02 5.577011e+03 
9.973800e-02 5.447790e+03 
1.009000e-01 5.326837e+03 
1.020900e-01 5.206900e+03 
1.034000e-01 5.080236e+03 
1.046000e-01 4.969182e+03 
1.057200e-01 4.872193e+03 
1.069100e-01 4.773668e+03 
1.082500e-01 4.671187e+03 
1.093900e-01 4.590192e+03 
1.105400e-01 4.512753e+03 
1.116900e-01 4.442750e+03 
1.129600e-01 4.369358e+03 
1.142000e-01 4.304345e+03 
1.153300e-01 4.248319e+03 
1.166400e-01 4.187699e+03 
1.177800e-01 4.138142e+03 
1.190000e-01 4.087261e+03 
1.201200e-01 4.042522e+03 
1.213400e-01 3.995092e+03 
1.227100e-01 3.942622e+03 
1.238900e-01 3.898184e+03 
1.250700e-01 3.853420e+03 
1.263200e-01 3.806301e+03 
1.275500e-01 3.759227e+03 
1.287500e-01 3.713228e+03 
1.299900e-01 3.664992e+03 
1.311300e-01 3.620459e+03 
1.323500e-01 3.572079e+03 
1.335900e-01 3.522903e+03 
1.347100e-01 3.477969e+03 
1.359800e-01 3.427368e+03 
1.372100e-01 3.377938e+03 
1.384300e-01 3.329555e+03 
1.395700e-01 3.284230e+03 
1.407700e-01 3.237456e+03 
1.420300e-01 3.188616e+03 
1.432800e-01 3.141258e+03 
1.444500e-01 3.097734e+03 
1.456300e-01 3.054753e+03 
1.468900e-01 3.010405e+03 
1.480500e-01 2.970602e+03 
1.491700e-01 2.933437e+03 
1.503800e-01 2.894732e+03 
1.516400e-01 2.855559e+03 
1.528200e-01 2.820905e+03 
1.540200e-01 2.786350e+03 
1.551900e-01 2.754592e+03 
1.564300e-01 2.721894e+03 
1.576600e-01 2.690721e+03 
1.588700e-01 2.661393e+03 
1.600900e-01 2.632429e+03 
1.612700e-01 2.605848e+03 
1.625400e-01 2.577770e+03 
1.637600e-01 2.551552e+03 
1.649500e-01 2.526585e+03 
1.662200e-01 2.500406e+03 
1.674000e-01 2.476429e+03 
1.685000e-01 2.454449e+03 
1.697500e-01 2.429616e+03 
1.710300e-01 2.404369e+03 
1.722200e-01 2.381313e+03 
1.734400e-01 2.357305e+03 
1.746400e-01 2.334064e+03 
1.758700e-01 2.310393e+03 
1.770900e-01 2.286796e+03 
1.782700e-01 2.264355e+03 
1.794600e-01 2.241730e+03 
1.807000e-01 2.218305e+03 
1.819100e-01 2.195831e+03 
1.830100e-01 2.175440e+03 
1.842200e-01 2.153315e+03 
1.855000e-01 2.130302e+03 
1.867000e-01 2.109022e+03 
1.879200e-01 2.087738e+03 
1.890900e-01 2.067680e+03 
1.902800e-01 2.047745e+03 
1.915200e-01 2.027303e+03 
1.926900e-01 2.008391e+03 
1.939000e-01 1.989370e+03 
1.951700e-01 1.969723e+03 
1.963100e-01 1.952454e+03 
1.975100e-01 1.934803e+03 
1.987800e-01 1.916410e+03 
2.000100e-01 1.898973e+03 
2.012500e-01 1.881890e+03 
2.023400e-01 1.867089e+03 
2.036100e-01 1.850144e+03 
2.048900e-01 1.833532e+03 
2.060400e-01 1.818825e+03 
2.072200e-01 1.803956e+03 
2.084200e-01 1.789180e+03 
2.096900e-01 1.773771e+03 
2.109200e-01 1.759066e+03 
2.121100e-01 1.745061e+03 
2.132700e-01 1.731596e+03 
2.145200e-01 1.717289e+03 
2.157200e-01 1.703742e+03 
2.168800e-01 1.690821e+03 
2.180700e-01 1.677742e+03 
2.193400e-01 1.663950e+03 
2.206000e-01 1.650411e+03 
2.217500e-01 1.638219e+03 
2.229500e-01 1.625664e+03 
2.241400e-01 1.613323e+03 
2.253500e-01 1.600939e+03 
2.264900e-01 1.589421e+03 
2.277100e-01 1.577229e+03 
2.289900e-01 1.564584e+03 
2.301500e-01 1.553274e+03 
2.313600e-01 1.541627e+03 
2.325600e-01 1.530210e+03 
2.337700e-01 1.518844e+03 
2.350000e-01 1.507439e+03 
2.362000e-01 1.496456e+03 
2.374100e-01 1.485522e+03 
2.386500e-01 1.474460e+03 
2.399100e-01 1.463364e+03 
2.410400e-01 1.453571e+03 
2.422500e-01 1.443216e+03 
2.435000e-01 1.432651e+03 
2.447300e-01 1.422396e+03 
2.458700e-01 1.413043e+03 
2.470600e-01 1.403394e+03 
2.483300e-01 1.393223e+03 
2.495600e-01 1.383520e+03 
2.507600e-01 1.374203e+03 
2.519600e-01 1.364996e+03 
2.532200e-01 1.355444e+03 
2.543700e-01 1.346864e+03 
2.555500e-01 1.338184e+03 
2.568000e-01 1.329096e+03 
2.580100e-01 1.320402e+03 
2.592400e-01 1.311708e+03 
2.604100e-01 1.303549e+03 
2.616100e-01 1.295275e+03 
2.628400e-01 1.286890e+03 
2.640600e-01 1.278703e+03 
2.652200e-01 1.271018e+03 
2.664300e-01 1.263089e+03 
2.676500e-01 1.255185e+03 
2.688400e-01 1.247583e+03 
2.700700e-01 1.239827e+03 
2.712400e-01 1.232531e+03 
2.724800e-01 1.224881e+03 
2.736700e-01 1.217629e+03 
2.748800e-01 1.210343e+03 
2.761000e-01 1.203077e+03 
2.773200e-01 1.195889e+03 
2.785400e-01 1.188782e+03 
2.797000e-01 1.182103e+03 
2.808900e-01 1.175321e+03 
2.821400e-01 1.168273e+03 
2.833900e-01 1.161302e+03 
2.845500e-01 1.154901e+03 
2.857800e-01 1.148183e+03 
2.870300e-01 1.141428e+03 
2.882100e-01 1.135118e+03 
2.893900e-01 1.128876e+03 
2.906300e-01 1.122386e+03 
2.918900e-01 1.115860e+03 
2.930500e-01 1.109914e+03 
2.942500e-01 1.103821e+03 
2.954200e-01 1.097933e+03 
2.966500e-01 1.091805e+03 
2.978900e-01 1.085690e+03 
2.990400e-01 1.080074e+03 
3.002700e-01 1.074128e+03 
3.015100e-01 1.068195e+03 
3.026800e-01 1.062652e+03 
3.038500e-01 1.057162e+03 
3.050300e-01 1.051677e+03 
3.062600e-01 1.046016e+03 
3.075000e-01 1.040366e+03 
3.087000e-01 1.034951e+03 
3.099100e-01 1.029543e+03 
3.111200e-01 1.024190e+03 
3.123100e-01 1.018981e+03 
3.135300e-01 1.013691e+03 
3.147300e-01 1.008537e+03 
3.159900e-01 1.003177e+03 
3.171800e-01 9.981675e+02 
3.183700e-01 9.932063e+02 
3.196300e-01 9.880027e+02 
3.208400e-01 9.830528e+02 
3.220300e-01 9.782292e+02 
3.232000e-01 9.735411e+02 
3.244300e-01 9.686621e+02 
3.256700e-01 9.637891e+02 
3.269200e-01 9.589228e+02 
3.280800e-01 9.544476e+02 
3.292500e-01 9.499857e+02 
3.304800e-01 9.453409e+02 
3.317100e-01 9.407382e+02 
3.328900e-01 9.363619e+02 
3.340700e-01 9.320236e+02 
3.353600e-01 9.273386e+02 
3.365300e-01 9.231331e+02 
3.377100e-01 9.189279e+02 
3.389200e-01 9.146531e+02 
3.401600e-01 9.103110e+02 
3.413700e-01 9.061222e+02 
3.425300e-01 9.021481e+02 
3.437700e-01 8.979364e+02 
3.449800e-01 8.938623e+02 
3.461800e-01 8.898564e+02 
3.473600e-01 8.859573e+02 
3.485800e-01 8.819774e+02 
3.498100e-01 8.779992e+02 
3.510200e-01 8.741191e+02 
3.522000e-01 8.703666e+02 
3.533900e-01 8.666134e+02 
3.546400e-01 8.627206e+02 
3.558400e-01 8.590160e+02 
3.570600e-01 8.552809e+02 
3.582700e-01 8.516071e+02 
3.595000e-01 8.479037e+02 
3.607100e-01 8.443005e+02 
3.618900e-01 8.408228e+02 
3.631200e-01 8.372272e+02 
3.643200e-01 8.337479e+02 
3.655500e-01 8.302106e+02 
3.667300e-01 8.268445e+02 
3.679500e-01 8.234056e+02 
3.691900e-01 8.199389e+02 
3.703600e-01 8.166939e+02 
3.715700e-01 8.133643e+02 
3.727700e-01 8.100883e+02 
3.739900e-01 8.067907e+02 
3.752000e-01 8.035580e+02 
3.763900e-01 8.004036e+02 
3.775800e-01 7.972734e+02 
3.788200e-01 7.940374e+02 
3.800300e-01 7.909046e+02 
3.812100e-01 7.878763e+02 
3.824200e-01 7.847970e+02 
3.836100e-01 7.817918e+02 
3.848600e-01 7.786596e+02 
3.860400e-01 7.757256e+02 
3.872400e-01 7.727643e+02 
3.884600e-01 7.697863e+02 
3.896500e-01 7.669071e+02 
3.908700e-01 7.639775e+02 
3.920600e-01 7.611415e+02 
3.933100e-01 7.581852e+02 
3.945300e-01 7.553219e+02 
3.957200e-01 7.525520e+02 
3.969300e-01 7.497570e+02 
3.981700e-01 7.469143e+02 
3.993500e-01 7.442292e+02 
4.094840e-01 7.219403e+02 
4.272360e-01 6.860736e+02 
4.454600e-01 6.527375e+02 
4.630560e-01 6.234265e+02 
4.804610e-01 5.968643e+02 
4.980690e-01 5.721343e+02 
5.159230e-01 5.490425e+02 
5.317440e-01 5.300634e+02 
5.489640e-01 5.108608e+02 
5.671990e-01 4.920378e+02 
5.838690e-01 4.760400e+02 
6.018840e-01 4.599527e+02 
6.202330e-01 4.447182e+02 
6.379250e-01 4.310135e+02 
6.545410e-01 4.189699e+02 
6.714560e-01 4.074167e+02 
6.892080e-01 3.960378e+02 
7.066010e-01 3.855201e+02 
7.240540e-01 3.755410e+02 
7.420450e-01 3.658249e+02 
7.593780e-01 3.569480e+02 
7.764720e-01 3.486116e+02 
7.942840e-01 3.403379e+02 
8.116170e-01 3.326431e+02 
8.288310e-01 3.253337e+02 
8.462240e-01 3.182511e+02 
8.631980e-01 3.116074e+02 
8.810700e-01 3.048826e+02 
8.989410e-01 2.984158e+02 
9.166330e-01 2.922429e+02 
9.345640e-01 2.862020e+02 
9.515980e-01 2.806533e+02 
9.688720e-01 2.752032e+02 
9.865640e-01 2.697902e+02 
1.031870e+00 2.566945e+02 
1.063490e+00 2.480897e+02 
1.097920e+00 2.392546e+02 
1.134370e+00 2.303527e+02 
1.167730e+00 2.226329e+02 
1.203830e+00 2.146779e+02 
1.240470e+00 2.070307e+02 
1.275790e+00 1.999850e+02 
1.309140e+00 1.936622e+02 
1.342970e+00 1.874868e+02 
1.378420e+00 1.813384e+02 
1.413200e+00 1.755674e+02 
1.448110e+00 1.700068e+02 
1.484090e+00 1.645509e+02 
1.518820e+00 1.594882e+02 
1.552880e+00 1.547437e+02 
1.588630e+00 1.499563e+02 
1.623230e+00 1.455297e+02 
1.657720e+00 1.412912e+02 
1.692450e+00 1.372174e+02 
1.726400e+00 1.333552e+02 
1.762200e+00 1.294418e+02 
1.797880e+00 1.257144e+02 
1.833270e+00 1.221476e+02 
1.869070e+00 1.186933e+02 
1.903200e+00 1.155229e+02 
1.937740e+00 1.124309e+02 
1.973190e+00 1.093706e+02 
2.007440e+00 1.065278e+02 
2.042160e+00 1.037573e+02 
2.077900e+00 1.009932e+02 
2.112390e+00 9.843648e+01 
2.146220e+00 9.599463e+01 
2.181600e+00 9.354136e+01 
2.216930e+00 9.118004e+01 
2.250760e+00 8.898571e+01 
2.286500e+00 8.674347e+01 
2.321770e+00 8.461882e+01 
2.355950e+00 8.263762e+01 
2.391280e+00 8.064021e+01 
2.426240e+00 7.872818e+01 
2.460670e+00 7.690598e+01 
2.495640e+00 7.511489e+01 
2.531080e+00 7.336599e+01 
2.566220e+00 7.167851e+01 
2.600830e+00 7.007043e+01 
2.635080e+00 6.853358e+01 
2.670340e+00 6.698682e+01 
2.705970e+00 6.547917e+01 
2.740040e+00 6.408478e+01 
2.774520e+00 6.271240e+01 
2.809730e+00 6.135236e+01 
2.844390e+00 6.005358e+01 
2.879960e+00 5.875880e+01 
2.914860e+00 5.752508e+01 
2.949410e+00 5.633920e+01 
2.984440e+00 5.516970e+01 
3.019760e+00 5.402830e+01 
3.054730e+00 5.293275e+01 
3.089030e+00 5.188022e+01 
3.124060e+00 5.083788e+01 
3.159560e+00 4.981440e+01 
3.194710e+00 4.882334e+01 
3.229010e+00 4.788176e+01 
3.263320e+00 4.696884e+01 
3.297930e+00 4.607250e+01 
3.332830e+00 4.519187e+01 
3.368040e+00 4.432660e+01 
3.403300e+00 4.348294e+01 
3.438450e+00 4.266314e+01 
3.473060e+00 4.187708e+01 
3.508440e+00 4.109766e+01 
3.543110e+00 4.035312e+01 
3.577470e+00 3.962930e+01 
3.613040e+00 3.889998e+01 
3.648120e+00 3.820116e+01 
3.682910e+00 3.752524e+01 
3.718050e+00 3.685889e+01 
3.753320e+00 3.620637e+01 
3.787980e+00 3.558031e+01 
3.822290e+00 3.497658e+01 
3.857020e+00 3.438171e+01 
3.891920e+00 3.379668e+01 
3.926650e+00 3.322550e+01 
3.961970e+00 3.265920e+01 
3.997360e+00 3.210714e+01 
4.031670e+00 3.158427e+01 
4.066330e+00 3.106760e+01 
4.101420e+00 3.055660e+01 
4.136200e+00 3.006339e+01 
4.170810e+00 2.958362e+01 
4.206250e+00 2.910276e+01 
4.241580e+00 2.863410e+01 
4.276300e+00 2.818407e+01 
4.310970e+00 2.774466e+01 
4.346120e+00 2.730910e+01 
4.380600e+00 2.689142e+01 
4.414730e+00 2.648671e+01 
4.450350e+00 2.607364e+01 
4.485320e+00 2.567678e+01 
4.519810e+00 2.529398e+01 
4.555430e+00 2.490711e+01 
4.590870e+00 2.453051e+01 
4.625480e+00 2.417070e+01 
4.659910e+00 2.381999e+01 
4.695230e+00 2.346806e+01 
4.729960e+00 2.312907e+01 
4.764450e+00 2.279935e+01 
4.799530e+00 2.247105e+01 
4.834910e+00 2.214652e+01 
4.869700e+00 2.183427e+01 
4.904370e+00 2.152921e+01 
4.939450e+00 2.122669e+01 
4.973940e+00 2.093544e+01 
5.008430e+00 2.064967e+01 
5.043810e+00 2.036259e+01 
5.078840e+00 2.008402e+01 
5.113500e+00 1.981354e+01 
5.148890e+00 1.954308e+01 
5.184210e+00 1.927822e+01 
5.219060e+00 1.902189e+01 
5.253660e+00 1.877254e+01 
5.288570e+00 1.852549e+01 
5.323420e+00 1.828363e+01 
5.358440e+00 1.804531e+01 
5.393590e+00 1.781037e+01 
5.428310e+00 1.758286e+01 
5.462800e+00 1.736103e+01 
5.497640e+00 1.714082e+01 
5.532670e+00 1.692379e+01 
5.567280e+00 1.671320e+01 
5.602000e+00 1.650554e+01 
5.637270e+00 1.629868e+01 
5.672410e+00 1.609621e+01 
5.707020e+00 1.590015e+01 
5.742040e+00 1.570564e+01 
5.777430e+00 1.551248e+01 
5.812210e+00 1.532582e+01 
5.846820e+00 1.514347e+01 
5.881610e+00 1.496326e+01 
5.916510e+00 1.478541e+01 
5.951600e+00 1.460998e+01 
5.986560e+00 1.443824e+01 
6.021830e+00 1.426776e+01 
6.056490e+00 1.410319e+01 
6.091160e+00 1.394141e+01 
6.125830e+00 1.378215e+01 
6.161090e+00 1.362286e+01 
6.195760e+00 1.346901e+01 
6.230420e+00 1.331756e+01 
6.265690e+00 1.316585e+01 
6.300950e+00 1.301712e+01 
6.335620e+00 1.287311e+01 
6.370880e+00 1.272888e+01 
6.405550e+00 1.258947e+01 
6.440220e+00 1.245226e+01 
6.475480e+00 1.231479e+01 
6.510150e+00 1.218179e+01 
6.544810e+00 1.205113e+01 
6.580080e+00 1.192013e+01 
6.614750e+00 1.179323e+01 
6.649410e+00 1.166856e+01 
6.684080e+00 1.154570e+01 
6.719340e+00 1.142256e+01 
6.754010e+00 1.130333e+01 
6.788680e+00 1.118606e+01 
6.823940e+00 1.106849e+01 
6.859800e+00 1.095063e+01 
6.894470e+00 1.083857e+01 
6.929140e+00 1.072816e+01 
6.963800e+00 1.061931e+01 
6.999070e+00 1.051010e+01 
7.033730e+00 1.040464e+01 
7.068400e+00 1.030059e+01 
7.103660e+00 1.019621e+01 
7.138330e+00 1.009509e+01 
7.173600e+00 9.993819e+00 
7.208260e+00 9.895643e+00 
7.243530e+00 9.797078e+00 
7.277600e+00 9.703293e+00 
7.312860e+00 9.607662e+00 
7.348120e+00 9.513306e+00 
7.382790e+00 9.421750e+00 
7.417460e+00 9.331589e+00 
7.452720e+00 9.241196e+00 
7.487390e+00 9.153470e+00 
7.522650e+00 9.065403e+00 
7.557320e+00 8.980136e+00 
7.591990e+00 8.896030e+00 
7.627250e+00 8.811583e+00 
7.662510e+00 8.728218e+00 
7.697180e+00 8.647484e+00 
7.731850e+00 8.567835e+00 
7.766510e+00 8.489198e+00 
7.801180e+00 8.411511e+00 
7.836440e+00 8.333628e+00 
7.871110e+00 8.258083e+00 
7.906380e+00 8.182179e+00 
7.941040e+00 8.108502e+00 
7.976310e+00 8.034548e+00 
8.011570e+00 7.961645e+00 
8.046240e+00 7.890831e+00 
8.080900e+00 7.820884e+00 
8.115570e+00 7.751809e+00 
8.150830e+00 7.682619e+00 
8.185500e+00 7.615397e+00 
8.220770e+00 7.547823e+00 
8.255430e+00 7.482204e+00 
8.290100e+00 7.417487e+00 
8.324770e+00 7.353540e+00 
8.359430e+00 7.290352e+00 
8.394700e+00 7.226801e+00 
8.429960e+00 7.164115e+00 
8.464630e+00 7.103295e+00 
8.499890e+00 7.042152e+00 
8.534560e+00 6.982721e+00 
8.569200e+00 6.924013e+00 
