# Parameters:
# omega_b = 0.023421, omega_m = 0.140669, n_s = 0.988583, h = 72.007874, w = -1.000000, sigma_8 = 0.841732
# z = 0.700000
#
# k[1/Mpc] # P(k):
8.694000e-04 7.318956e+03 
2.077466e-03 1.597063e+04 
3.285532e-03 2.284987e+04 
4.493598e-03 2.822430e+04 
5.701664e-03 3.226058e+04 
6.909730e-03 3.516438e+04 
8.117797e-03 3.717808e+04 
9.325863e-03 3.842448e+04 
1.053393e-02 3.902420e+04 
1.174199e-02 3.908929e+04 
1.295006e-02 3.869365e+04 
1.415813e-02 3.794057e+04 
1.536619e-02 3.691653e+04 
1.657426e-02 3.567692e+04 
1.778233e-02 3.424168e+04 
1.899039e-02 3.267954e+04 
2.019846e-02 3.110762e+04 
2.140652e-02 2.960092e+04 
2.261459e-02 2.815774e+04 
2.382266e-02 2.678980e+04 
2.503072e-02 2.551281e+04 
2.623879e-02 2.433374e+04 
2.744685e-02 2.325531e+04 
2.865492e-02 2.227944e+04 
2.986299e-02 2.140133e+04 
3.100100e-02 2.066223e+04 
3.220400e-02 1.996528e+04 
3.288100e-02 1.961081e+04 
3.424300e-02 1.896806e+04 
3.555100e-02 1.842640e+04 
3.686000e-02 1.794831e+04 
3.795000e-02 1.758898e+04 
3.929100e-02 1.718764e+04 
4.039800e-02 1.687870e+04 
4.164000e-02 1.654802e+04 
4.294400e-02 1.620570e+04 
4.415000e-02 1.589158e+04 
4.542900e-02 1.554554e+04 
4.660900e-02 1.521973e+04 
4.782300e-02 1.486021e+04 
4.892900e-02 1.452203e+04 
5.031200e-02 1.407939e+04 
5.155900e-02 1.366073e+04 
5.238100e-02 1.337775e+04 
5.378200e-02 1.288680e+04 
5.513400e-02 1.240510e+04 
5.627600e-02 1.199745e+04 
5.735300e-02 1.161734e+04 
5.870100e-02 1.115218e+04 
5.988700e-02 1.075775e+04 
6.113500e-02 1.036058e+04 
6.225900e-02 1.002142e+04 
6.340100e-02 9.697161e+03 
6.480200e-02 9.327388e+03 
6.601100e-02 9.036236e+03 
6.725500e-02 8.762992e+03 
6.829100e-02 8.557622e+03 
6.958600e-02 8.323543e+03 
7.071100e-02 8.142168e+03 
7.192300e-02 7.966435e+03 
7.307400e-02 7.816790e+03 
7.412300e-02 7.693332e+03 
7.550400e-02 7.548321e+03 
7.663100e-02 7.440563e+03 
7.791200e-02 7.329621e+03 
7.912700e-02 7.231535e+03 
8.027600e-02 7.142558e+03 
8.138400e-02 7.058657e+03 
8.272200e-02 6.957841e+03 
8.406100e-02 6.855574e+03 
8.534100e-02 6.753250e+03 
8.653800e-02 6.652268e+03 
8.759800e-02 6.559679e+03 
8.900300e-02 6.431270e+03 
9.009000e-02 6.326693e+03 
9.113300e-02 6.221614e+03 
9.239600e-02 6.091860e+03 
9.358000e-02 5.966653e+03 
9.496100e-02 5.816341e+03 
9.608400e-02 5.693859e+03 
9.727500e-02 5.564774e+03 
9.852600e-02 5.428691e+03 
9.973800e-02 5.300314e+03 
1.009000e-01 5.180432e+03 
1.020900e-01 5.062356e+03 
1.034000e-01 4.938094e+03 
1.046000e-01 4.829605e+03 
1.057200e-01 4.735687e+03 
1.069100e-01 4.640596e+03 
1.082500e-01 4.542621e+03 
1.093900e-01 4.465771e+03 
1.105400e-01 4.392640e+03 
1.116900e-01 4.327303e+03 
1.129600e-01 4.259044e+03 
1.142000e-01 4.199156e+03 
1.153300e-01 4.147674e+03 
1.166400e-01 4.092182e+03 
1.177800e-01 4.046778e+03 
1.190000e-01 4.000145e+03 
1.201200e-01 3.958729e+03 
1.213400e-01 3.914749e+03 
1.227100e-01 3.865153e+03 
1.238900e-01 3.822927e+03 
1.250700e-01 3.779662e+03 
1.263200e-01 3.733845e+03 
1.275500e-01 3.687465e+03 
1.287500e-01 3.641891e+03 
1.299900e-01 3.593710e+03 
1.311300e-01 3.549097e+03 
1.323500e-01 3.500440e+03 
1.335900e-01 3.450975e+03 
1.347100e-01 3.405765e+03 
1.359800e-01 3.354931e+03 
1.372100e-01 3.305420e+03 
1.384300e-01 3.257067e+03 
1.395700e-01 3.212021e+03 
1.407700e-01 3.165579e+03 
1.420300e-01 3.117500e+03 
1.432800e-01 3.070882e+03 
1.444500e-01 3.028462e+03 
1.456300e-01 2.986570e+03 
1.468900e-01 2.943623e+03 
1.480500e-01 2.905159e+03 
1.491700e-01 2.869357e+03 
1.503800e-01 2.832219e+03 
1.516400e-01 2.794659e+03 
1.528200e-01 2.761569e+03 
1.540200e-01 2.728570e+03 
1.551900e-01 2.698298e+03 
1.564300e-01 2.667142e+03 
1.576600e-01 2.637428e+03 
1.588700e-01 2.609462e+03 
1.600900e-01 2.581836e+03 
1.612700e-01 2.556390e+03 
1.625400e-01 2.529510e+03 
1.637600e-01 2.504314e+03 
1.649500e-01 2.480261e+03 
1.662200e-01 2.455016e+03 
1.674000e-01 2.431744e+03 
1.685000e-01 2.410411e+03 
1.697500e-01 2.386222e+03 
1.710300e-01 2.361545e+03 
1.722200e-01 2.339009e+03 
1.734400e-01 2.315412e+03 
1.746400e-01 2.292563e+03 
1.758700e-01 2.269267e+03 
1.770900e-01 2.245992e+03 
1.782700e-01 2.223858e+03 
1.794600e-01 2.201527e+03 
1.807000e-01 2.178397e+03 
1.819100e-01 2.156207e+03 
1.830100e-01 2.136092e+03 
1.842200e-01 2.114269e+03 
1.855000e-01 2.091573e+03 
1.867000e-01 2.070641e+03 
1.879200e-01 2.049705e+03 
1.890900e-01 2.029986e+03 
1.902800e-01 2.010449e+03 
1.915200e-01 1.990414e+03 
1.926900e-01 1.971896e+03 
1.939000e-01 1.953324e+03 
1.951700e-01 1.934142e+03 
1.963100e-01 1.917296e+03 
1.975100e-01 1.900118e+03 
1.987800e-01 1.882218e+03 
2.000100e-01 1.865258e+03 
2.012500e-01 1.848668e+03 
2.023400e-01 1.834293e+03 
2.036100e-01 1.817837e+03 
2.048900e-01 1.801711e+03 
2.060400e-01 1.787435e+03 
2.072200e-01 1.773000e+03 
2.084200e-01 1.758641e+03 
2.096900e-01 1.743666e+03 
2.109200e-01 1.729375e+03 
2.121100e-01 1.715736e+03 
2.132700e-01 1.702622e+03 
2.145200e-01 1.688686e+03 
2.157200e-01 1.675467e+03 
2.168800e-01 1.662847e+03 
2.180700e-01 1.650073e+03 
2.193400e-01 1.636589e+03 
2.206000e-01 1.623329e+03 
2.217500e-01 1.611388e+03 
2.229500e-01 1.599091e+03 
2.241400e-01 1.586977e+03 
2.253500e-01 1.574820e+03 
2.264900e-01 1.563513e+03 
2.277100e-01 1.551534e+03 
2.289900e-01 1.539099e+03 
2.301500e-01 1.527978e+03 
2.313600e-01 1.516525e+03 
2.325600e-01 1.505286e+03 
2.337700e-01 1.494098e+03 
2.350000e-01 1.482871e+03 
2.362000e-01 1.472058e+03 
2.374100e-01 1.461291e+03 
2.386500e-01 1.450397e+03 
2.399100e-01 1.439470e+03 
2.410400e-01 1.429828e+03 
2.422500e-01 1.419632e+03 
2.435000e-01 1.409230e+03 
2.447300e-01 1.399133e+03 
2.458700e-01 1.389929e+03 
2.470600e-01 1.380432e+03 
2.483300e-01 1.370421e+03 
2.495600e-01 1.360875e+03 
2.507600e-01 1.351712e+03 
2.519600e-01 1.342657e+03 
2.532200e-01 1.333264e+03 
2.543700e-01 1.324830e+03 
2.555500e-01 1.316302e+03 
2.568000e-01 1.307373e+03 
2.580100e-01 1.298831e+03 
2.592400e-01 1.290294e+03 
2.604100e-01 1.282286e+03 
2.616100e-01 1.274164e+03 
2.628400e-01 1.265934e+03 
2.640600e-01 1.257903e+03 
2.652200e-01 1.250366e+03 
2.664300e-01 1.242591e+03 
2.676500e-01 1.234839e+03 
2.688400e-01 1.227388e+03 
2.700700e-01 1.219788e+03 
2.712400e-01 1.212638e+03 
2.724800e-01 1.205143e+03 
2.736700e-01 1.198038e+03 
2.748800e-01 1.190903e+03 
2.761000e-01 1.183787e+03 
2.773200e-01 1.176747e+03 
2.785400e-01 1.169788e+03 
2.797000e-01 1.163250e+03 
2.808900e-01 1.156611e+03 
2.821400e-01 1.149712e+03 
2.833900e-01 1.142888e+03 
2.845500e-01 1.136623e+03 
2.857800e-01 1.130048e+03 
2.870300e-01 1.123438e+03 
2.882100e-01 1.117262e+03 
2.893900e-01 1.111153e+03 
2.906300e-01 1.104802e+03 
2.918900e-01 1.098417e+03 
2.930500e-01 1.092598e+03 
2.942500e-01 1.086636e+03 
2.954200e-01 1.080874e+03 
2.966500e-01 1.074878e+03 
2.978900e-01 1.068894e+03 
2.990400e-01 1.063399e+03 
3.002700e-01 1.057581e+03 
3.015100e-01 1.051775e+03 
3.026800e-01 1.046351e+03 
3.038500e-01 1.040978e+03 
3.050300e-01 1.035611e+03 
3.062600e-01 1.030072e+03 
3.075000e-01 1.024543e+03 
3.087000e-01 1.019245e+03 
3.099100e-01 1.013953e+03 
3.111200e-01 1.008715e+03 
3.123100e-01 1.003618e+03 
3.135300e-01 9.984415e+02 
3.147300e-01 9.933978e+02 
3.159900e-01 9.881526e+02 
3.171800e-01 9.832496e+02 
3.183700e-01 9.783941e+02 
3.196300e-01 9.733014e+02 
3.208400e-01 9.684570e+02 
3.220300e-01 9.637362e+02 
3.232000e-01 9.591478e+02 
3.244300e-01 9.543724e+02 
3.256700e-01 9.496029e+02 
3.269200e-01 9.448399e+02 
3.280800e-01 9.404597e+02 
3.292500e-01 9.360921e+02 
3.304800e-01 9.315452e+02 
3.317100e-01 9.270397e+02 
3.328900e-01 9.227557e+02 
3.340700e-01 9.185088e+02 
3.353600e-01 9.139219e+02 
3.365300e-01 9.098044e+02 
3.377100e-01 9.056871e+02 
3.389200e-01 9.015015e+02 
3.401600e-01 8.972501e+02 
3.413700e-01 8.931483e+02 
3.425300e-01 8.892566e+02 
3.437700e-01 8.851320e+02 
3.449800e-01 8.811423e+02 
3.461800e-01 8.772192e+02 
3.473600e-01 8.734006e+02 
3.485800e-01 8.695022e+02 
3.498100e-01 8.656055e+02 
3.510200e-01 8.618047e+02 
3.522000e-01 8.581291e+02 
3.533900e-01 8.544527e+02 
3.546400e-01 8.506387e+02 
3.558400e-01 8.470089e+02 
3.570600e-01 8.433493e+02 
3.582700e-01 8.397499e+02 
3.595000e-01 8.361213e+02 
3.607100e-01 8.325905e+02 
3.618900e-01 8.291822e+02 
3.631200e-01 8.256584e+02 
3.643200e-01 8.222486e+02 
3.655500e-01 8.187820e+02 
3.667300e-01 8.154831e+02 
3.679500e-01 8.121119e+02 
3.691900e-01 8.087134e+02 
3.703600e-01 8.055322e+02 
3.715700e-01 8.022681e+02 
3.727700e-01 7.990566e+02 
3.739900e-01 7.958237e+02 
3.752000e-01 7.926540e+02 
3.763900e-01 7.895611e+02 
3.775800e-01 7.864920e+02 
3.788200e-01 7.833191e+02 
3.800300e-01 7.802473e+02 
3.812100e-01 7.772776e+02 
3.824200e-01 7.742578e+02 
3.836100e-01 7.713105e+02 
3.848600e-01 7.682387e+02 
3.860400e-01 7.653613e+02 
3.872400e-01 7.624570e+02 
3.884600e-01 7.595360e+02 
3.896500e-01 7.567116e+02 
3.908700e-01 7.538380e+02 
3.920600e-01 7.510561e+02 
3.933100e-01 7.481561e+02 
3.945300e-01 7.453474e+02 
3.957200e-01 7.426301e+02 
3.969300e-01 7.398881e+02 
3.981700e-01 7.370993e+02 
3.993500e-01 7.344651e+02 
4.094840e-01 7.125972e+02 
4.272360e-01 6.774052e+02 
4.454600e-01 6.446953e+02 
4.630560e-01 6.159364e+02 
4.804610e-01 5.898728e+02 
4.980690e-01 5.656038e+02 
5.159230e-01 5.429343e+02 
5.317440e-01 5.242954e+02 
5.489640e-01 5.054264e+02 
5.671990e-01 4.869180e+02 
5.838690e-01 4.711778e+02 
6.018840e-01 4.553393e+02 
6.202330e-01 4.403308e+02 
6.379250e-01 4.268230e+02 
6.545410e-01 4.149462e+02 
6.714560e-01 4.035505e+02 
6.892080e-01 3.923239e+02 
7.066010e-01 3.819469e+02 
7.240540e-01 3.721011e+02 
7.420450e-01 3.625165e+02 
7.593780e-01 3.537620e+02 
7.764720e-01 3.455429e+02 
7.942840e-01 3.373886e+02 
8.116170e-01 3.298089e+02 
8.288310e-01 3.226125e+02 
8.462240e-01 3.156431e+02 
8.631980e-01 3.091092e+02 
8.810700e-01 3.024990e+02 
8.989410e-01 2.961458e+02 
9.166330e-01 2.900851e+02 
9.345640e-01 2.841573e+02 
9.515980e-01 2.787148e+02 
9.688720e-01 2.733720e+02 
9.865640e-01 2.680683e+02 
1.031870e+00 2.552441e+02 
1.063490e+00 2.468234e+02 
1.097920e+00 2.381828e+02 
1.134370e+00 2.294774e+02 
1.167730e+00 2.219303e+02 
1.203830e+00 2.141533e+02 
1.240470e+00 2.066765e+02 
1.275790e+00 1.997862e+02 
1.309140e+00 1.936014e+02 
1.342970e+00 1.875582e+02 
1.378420e+00 1.815392e+02 
1.413200e+00 1.758871e+02 
1.448110e+00 1.704375e+02 
1.484090e+00 1.650881e+02 
1.518820e+00 1.601204e+02 
1.552880e+00 1.554624e+02 
1.588630e+00 1.507586e+02 
1.623230e+00 1.464069e+02 
1.657720e+00 1.422372e+02 
1.692450e+00 1.382273e+02 
1.726400e+00 1.344220e+02 
1.762200e+00 1.305637e+02 
1.797880e+00 1.268863e+02 
1.833270e+00 1.233645e+02 
1.869070e+00 1.199515e+02 
1.903200e+00 1.168167e+02 
1.937740e+00 1.137574e+02 
1.973190e+00 1.107270e+02 
2.007440e+00 1.079103e+02 
2.042160e+00 1.051633e+02 
2.077900e+00 1.024205e+02 
2.112390e+00 9.988214e+01 
2.146220e+00 9.745557e+01 
2.181600e+00 9.501632e+01 
2.216930e+00 9.266693e+01 
2.250760e+00 9.048207e+01 
2.286500e+00 8.824801e+01 
2.321770e+00 8.612996e+01 
2.355950e+00 8.415396e+01 
2.391280e+00 8.215999e+01 
2.426240e+00 8.025006e+01 
2.460670e+00 7.842882e+01 
2.495640e+00 7.663768e+01 
2.531080e+00 7.488766e+01 
2.566220e+00 7.319791e+01 
2.600830e+00 7.158680e+01 
2.635080e+00 7.004635e+01 
2.670340e+00 6.849465e+01 
2.705970e+00 6.698148e+01 
2.740040e+00 6.558137e+01 
2.774520e+00 6.420252e+01 
2.809730e+00 6.283528e+01 
2.844390e+00 6.152902e+01 
2.879960e+00 6.022601e+01 
2.914860e+00 5.898371e+01 
2.949410e+00 5.778908e+01 
2.984440e+00 5.661027e+01 
3.019760e+00 5.545927e+01 
3.054730e+00 5.435410e+01 
3.089030e+00 5.329150e+01 
3.124060e+00 5.223883e+01 
3.159560e+00 5.120474e+01 
3.194710e+00 5.020280e+01 
3.229010e+00 4.925056e+01 
3.263320e+00 4.832679e+01 
3.297930e+00 4.741950e+01 
3.332830e+00 4.652768e+01 
3.368040e+00 4.565101e+01 
3.403300e+00 4.479591e+01 
3.438450e+00 4.396455e+01 
3.473060e+00 4.316720e+01 
3.508440e+00 4.237615e+01 
3.543110e+00 4.162031e+01 
3.577470e+00 4.088503e+01 
3.613040e+00 4.014399e+01 
3.648120e+00 3.943363e+01 
3.682910e+00 3.874634e+01 
3.718050e+00 3.806844e+01 
3.753320e+00 3.740442e+01 
3.787980e+00 3.676706e+01 
3.822290e+00 3.615226e+01 
3.857020e+00 3.554624e+01 
3.891920e+00 3.495006e+01 
3.926650e+00 3.436773e+01 
3.961970e+00 3.379024e+01 
3.997360e+00 3.322704e+01 
4.031670e+00 3.269350e+01 
4.066330e+00 3.216605e+01 
4.101420e+00 3.164429e+01 
4.136200e+00 3.114049e+01 
4.170810e+00 3.065035e+01 
4.206250e+00 3.015885e+01 
4.241580e+00 2.967971e+01 
4.276300e+00 2.921946e+01 
4.310970e+00 2.876997e+01 
4.346120e+00 2.832428e+01 
4.380600e+00 2.789675e+01 
4.414730e+00 2.748243e+01 
4.450350e+00 2.705937e+01 
4.485320e+00 2.665286e+01 
4.519810e+00 2.626061e+01 
4.555430e+00 2.586409e+01 
4.590870e+00 2.547801e+01 
4.625480e+00 2.510904e+01 
4.659910e+00 2.474934e+01 
4.695230e+00 2.438825e+01 
4.729960e+00 2.404039e+01 
4.764450e+00 2.370196e+01 
4.799530e+00 2.336487e+01 
4.834910e+00 2.303164e+01 
4.869700e+00 2.271088e+01 
4.904370e+00 2.239747e+01 
4.939450e+00 2.208660e+01 
4.973940e+00 2.178723e+01 
5.008430e+00 2.149346e+01 
5.043810e+00 2.119825e+01 
5.078840e+00 2.091174e+01 
5.113500e+00 2.063351e+01 
5.148890e+00 2.035520e+01 
5.184210e+00 2.008262e+01 
5.219060e+00 1.981878e+01 
5.253660e+00 1.956204e+01 
5.288570e+00 1.930765e+01 
5.323420e+00 1.905854e+01 
5.358440e+00 1.881303e+01 
5.393590e+00 1.857098e+01 
5.428310e+00 1.833651e+01 
5.462800e+00 1.810785e+01 
5.497640e+00 1.788084e+01 
5.532670e+00 1.765704e+01 
5.567280e+00 1.743986e+01 
5.602000e+00 1.722567e+01 
5.637270e+00 1.701225e+01 
5.672410e+00 1.680332e+01 
5.707020e+00 1.660099e+01 
5.742040e+00 1.640020e+01 
5.777430e+00 1.620078e+01 
5.812210e+00 1.600805e+01 
5.846820e+00 1.581972e+01 
5.881610e+00 1.563357e+01 
5.916510e+00 1.544985e+01 
5.951600e+00 1.526857e+01 
5.986560e+00 1.509109e+01 
6.021830e+00 1.491489e+01 
6.056490e+00 1.474476e+01 
6.091160e+00 1.457746e+01 
6.125830e+00 1.441277e+01 
6.161090e+00 1.424803e+01 
6.195760e+00 1.408887e+01 
6.230420e+00 1.393218e+01 
6.265690e+00 1.377521e+01 
6.300950e+00 1.362127e+01 
6.335620e+00 1.347221e+01 
6.370880e+00 1.332289e+01 
6.405550e+00 1.317855e+01 
6.440220e+00 1.303644e+01 
6.475480e+00 1.289406e+01 
6.510150e+00 1.275629e+01 
6.544810e+00 1.262090e+01 
6.580080e+00 1.248515e+01 
6.614750e+00 1.235365e+01 
6.649410e+00 1.222441e+01 
6.684080e+00 1.209704e+01 
6.719340e+00 1.196936e+01 
6.754010e+00 1.184572e+01 
6.788680e+00 1.172409e+01 
6.823940e+00 1.160212e+01 
6.859800e+00 1.147986e+01 
6.894470e+00 1.136357e+01 
6.929140e+00 1.124898e+01 
6.963800e+00 1.113600e+01 
6.999070e+00 1.102264e+01 
7.033730e+00 1.091314e+01 
7.068400e+00 1.080508e+01 
7.103660e+00 1.069668e+01 
7.138330e+00 1.059164e+01 
7.173600e+00 1.048642e+01 
7.208260e+00 1.038441e+01 
7.243530e+00 1.028199e+01 
7.277600e+00 1.018451e+01 
7.312860e+00 1.008510e+01 
7.348120e+00 9.987002e+00 
7.382790e+00 9.891811e+00 
7.417460e+00 9.798041e+00 
7.452720e+00 9.704013e+00 
7.487390e+00 9.612752e+00 
7.522650e+00 9.521133e+00 
7.557320e+00 9.432399e+00 
7.591990e+00 9.344860e+00 
7.627250e+00 9.256962e+00 
7.662510e+00 9.170185e+00 
7.697180e+00 9.086120e+00 
7.731850e+00 9.003170e+00 
7.766510e+00 8.921271e+00 
7.801180e+00 8.840358e+00 
7.836440e+00 8.759216e+00 
7.871110e+00 8.680497e+00 
7.906380e+00 8.601398e+00 
7.941040e+00 8.524617e+00 
7.976310e+00 8.447528e+00 
8.011570e+00 8.371512e+00 
8.046240e+00 8.297670e+00 
8.080900e+00 8.224730e+00 
8.115570e+00 8.152690e+00 
8.150830e+00 8.080505e+00 
8.185500e+00 8.010371e+00 
8.220770e+00 7.939867e+00 
8.255430e+00 7.871399e+00 
8.290100e+00 7.803840e+00 
8.324770e+00 7.737080e+00 
8.359430e+00 7.671108e+00 
8.394700e+00 7.604755e+00 
8.429960e+00 7.539289e+00 
8.464630e+00 7.475758e+00 
8.499890e+00 7.411885e+00 
8.534560e+00 7.349799e+00 
8.569200e+00 7.288465e+00 
