# Parameters:
# omega_b = 0.022067, omega_m = 0.124961, n_s = 0.854724, h = 77.677165, w = -1.000000, sigma_8 = 0.859055
# z = 0.700000
#
# k[1/Mpc] # P(k):
8.694000e-04 1.982342e+04 
2.077466e-03 3.780880e+04 
3.285532e-03 5.018766e+04 
4.493598e-03 5.862687e+04 
5.701664e-03 6.407779e+04 
6.909730e-03 6.724540e+04 
8.117797e-03 6.876312e+04 
9.325863e-03 6.895643e+04 
1.053393e-02 6.811450e+04 
1.174199e-02 6.648649e+04 
1.295006e-02 6.422930e+04 
1.415813e-02 6.154023e+04 
1.536619e-02 5.857740e+04 
1.657426e-02 5.544163e+04 
1.778233e-02 5.219235e+04 
1.899039e-02 4.892464e+04 
2.019846e-02 4.576363e+04 
2.140652e-02 4.281107e+04 
2.261459e-02 4.007602e+04 
2.382266e-02 3.757033e+04 
2.503072e-02 3.530190e+04 
2.623879e-02 3.326608e+04 
2.744685e-02 3.145738e+04 
2.865492e-02 2.985979e+04 
2.986299e-02 2.845390e+04 
3.100100e-02 2.729520e+04 
3.220400e-02 2.622149e+04 
3.288100e-02 2.568248e+04 
3.424300e-02 2.471421e+04 
3.555100e-02 2.390412e+04 
3.686000e-02 2.318981e+04 
3.795000e-02 2.265063e+04 
3.929100e-02 2.204030e+04 
4.039800e-02 2.156292e+04 
4.164000e-02 2.104435e+04 
4.294400e-02 2.049630e+04 
4.415000e-02 1.998877e+04 
4.542900e-02 1.942617e+04 
4.660900e-02 1.889735e+04 
4.782300e-02 1.831893e+04 
4.892900e-02 1.778115e+04 
5.031200e-02 1.708885e+04 
5.155900e-02 1.644833e+04 
5.238100e-02 1.602316e+04 
5.378200e-02 1.529973e+04 
5.513400e-02 1.460864e+04 
5.627600e-02 1.403788e+04 
5.735300e-02 1.351654e+04 
5.870100e-02 1.289259e+04 
5.988700e-02 1.237486e+04 
6.113500e-02 1.186404e+04 
6.225900e-02 1.143658e+04 
6.340100e-02 1.103526e+04 
6.480200e-02 1.058515e+04 
6.601100e-02 1.023778e+04 
6.725500e-02 9.916833e+03 
6.829100e-02 9.679288e+03 
6.958600e-02 9.411201e+03 
7.071100e-02 9.205746e+03 
7.192300e-02 9.008052e+03 
7.307400e-02 8.840356e+03 
7.412300e-02 8.702010e+03 
7.550400e-02 8.538608e+03 
7.663100e-02 8.415996e+03 
7.791200e-02 8.286917e+03 
7.912700e-02 8.169313e+03 
8.027600e-02 8.059579e+03 
8.138400e-02 7.953404e+03 
8.272200e-02 7.822148e+03 
8.406100e-02 7.685518e+03 
8.534100e-02 7.545616e+03 
8.653800e-02 7.405991e+03 
8.759800e-02 7.277562e+03 
8.900300e-02 7.099449e+03 
9.009000e-02 6.955084e+03 
9.113300e-02 6.811412e+03 
9.239600e-02 6.635646e+03 
9.358000e-02 6.468387e+03 
9.496100e-02 6.271753e+03 
9.608400e-02 6.114318e+03 
9.727500e-02 5.950710e+03 
9.852600e-02 5.783761e+03 
9.973800e-02 5.629016e+03 
1.009000e-01 5.486764e+03 
1.020900e-01 5.351797e+03 
1.034000e-01 5.212122e+03 
1.046000e-01 5.092592e+03 
1.057200e-01 4.992691e+03 
1.069100e-01 4.892743e+03 
1.082500e-01 4.792958e+03 
1.093900e-01 4.716261e+03 
1.105400e-01 4.644226e+03 
1.116900e-01 4.581341e+03 
1.129600e-01 4.515965e+03 
1.142000e-01 4.458978e+03 
1.153300e-01 4.409615e+03 
1.166400e-01 4.355814e+03 
1.177800e-01 4.310312e+03 
1.190000e-01 4.262862e+03 
1.201200e-01 4.218046e+03 
1.213400e-01 4.169970e+03 
1.227100e-01 4.111567e+03 
1.238900e-01 4.061073e+03 
1.250700e-01 4.006939e+03 
1.263200e-01 3.948967e+03 
1.275500e-01 3.888883e+03 
1.287500e-01 3.829598e+03 
1.299900e-01 3.766548e+03 
1.311300e-01 3.708511e+03 
1.323500e-01 3.645698e+03 
1.335900e-01 3.582685e+03 
1.347100e-01 3.526140e+03 
1.359800e-01 3.463496e+03 
1.372100e-01 3.404233e+03 
1.384300e-01 3.347207e+03 
1.395700e-01 3.295974e+03 
1.407700e-01 3.243435e+03 
1.420300e-01 3.191533e+03 
1.432800e-01 3.141229e+03 
1.444500e-01 3.097505e+03 
1.456300e-01 3.054328e+03 
1.468900e-01 3.011072e+03 
1.480500e-01 2.972631e+03 
1.491700e-01 2.937072e+03 
1.503800e-01 2.900474e+03 
1.516400e-01 2.863418e+03 
1.528200e-01 2.830610e+03 
1.540200e-01 2.797888e+03 
1.551900e-01 2.767286e+03 
1.564300e-01 2.735642e+03 
1.576600e-01 2.705002e+03 
1.588700e-01 2.675603e+03 
1.600900e-01 2.646508e+03 
1.612700e-01 2.618695e+03 
1.625400e-01 2.589319e+03 
1.637600e-01 2.561281e+03 
1.649500e-01 2.534223e+03 
1.662200e-01 2.505756e+03 
1.674000e-01 2.479112e+03 
1.685000e-01 2.454695e+03 
1.697500e-01 2.426992e+03 
1.710300e-01 2.398718e+03 
1.722200e-01 2.372905e+03 
1.734400e-01 2.346140e+03 
1.746400e-01 2.320244e+03 
1.758700e-01 2.294003e+03 
1.770900e-01 2.268100e+03 
1.782700e-01 2.243477e+03 
1.794600e-01 2.218942e+03 
1.807000e-01 2.193734e+03 
1.819100e-01 2.169559e+03 
1.830100e-01 2.148026e+03 
1.842200e-01 2.124736e+03 
1.855000e-01 2.100536e+03 
1.867000e-01 2.078581e+03 
1.879200e-01 2.056627e+03 
1.890900e-01 2.035990e+03 
1.902800e-01 2.015744e+03 
1.915200e-01 1.994986e+03 
1.926900e-01 1.975832e+03 
1.939000e-01 1.956725e+03 
1.951700e-01 1.936991e+03 
1.963100e-01 1.919665e+03 
1.975100e-01 1.902004e+03 
1.987800e-01 1.883602e+03 
2.000100e-01 1.866145e+03 
2.012500e-01 1.849014e+03 
2.023400e-01 1.834171e+03 
2.036100e-01 1.817154e+03 
2.048900e-01 1.800369e+03 
2.060400e-01 1.785511e+03 
2.072200e-01 1.770478e+03 
2.084200e-01 1.755399e+03 
2.096900e-01 1.739676e+03 
2.109200e-01 1.724672e+03 
2.121100e-01 1.710232e+03 
2.132700e-01 1.696343e+03 
2.145200e-01 1.681586e+03 
2.157200e-01 1.667524e+03 
2.168800e-01 1.654071e+03 
2.180700e-01 1.640456e+03 
2.193400e-01 1.626065e+03 
2.206000e-01 1.611874e+03 
2.217500e-01 1.599098e+03 
2.229500e-01 1.585943e+03 
2.241400e-01 1.572947e+03 
2.253500e-01 1.559907e+03 
2.264900e-01 1.547781e+03 
2.277100e-01 1.534929e+03 
2.289900e-01 1.521582e+03 
2.301500e-01 1.509647e+03 
2.313600e-01 1.497359e+03 
2.325600e-01 1.485301e+03 
2.337700e-01 1.473301e+03 
2.350000e-01 1.461263e+03 
2.362000e-01 1.449671e+03 
2.374100e-01 1.438134e+03 
2.386500e-01 1.426464e+03 
2.399100e-01 1.414761e+03 
2.410400e-01 1.404449e+03 
2.422500e-01 1.393547e+03 
2.435000e-01 1.382429e+03 
2.447300e-01 1.371646e+03 
2.458700e-01 1.361845e+03 
2.470600e-01 1.351735e+03 
2.483300e-01 1.341079e+03 
2.495600e-01 1.330938e+03 
2.507600e-01 1.321231e+03 
2.519600e-01 1.311639e+03 
2.532200e-01 1.301691e+03 
2.543700e-01 1.292792e+03 
2.555500e-01 1.283815e+03 
2.568000e-01 1.274419e+03 
2.580100e-01 1.265431e+03 
2.592400e-01 1.256490e+03 
2.604100e-01 1.248121e+03 
2.616100e-01 1.239635e+03 
2.628400e-01 1.231036e+03 
2.640600e-01 1.222683e+03 
2.652200e-01 1.214860e+03 
2.664300e-01 1.206791e+03 
2.676500e-01 1.198746e+03 
2.688400e-01 1.191039e+03 
2.700700e-01 1.183195e+03 
2.712400e-01 1.175815e+03 
2.724800e-01 1.168080e+03 
2.736700e-01 1.160763e+03 
2.748800e-01 1.153430e+03 
2.761000e-01 1.146117e+03 
2.773200e-01 1.138883e+03 
2.785400e-01 1.131737e+03 
2.797000e-01 1.125034e+03 
2.808900e-01 1.118228e+03 
2.821400e-01 1.111156e+03 
2.833900e-01 1.104161e+03 
2.845500e-01 1.097750e+03 
2.857800e-01 1.091022e+03 
2.870300e-01 1.084258e+03 
2.882100e-01 1.077939e+03 
2.893900e-01 1.071692e+03 
2.906300e-01 1.065198e+03 
2.918900e-01 1.058670e+03 
2.930500e-01 1.052721e+03 
2.942500e-01 1.046628e+03 
2.954200e-01 1.040744e+03 
2.966500e-01 1.034620e+03 
2.978900e-01 1.028510e+03 
2.990400e-01 1.022899e+03 
3.002700e-01 1.016964e+03 
3.015100e-01 1.011045e+03 
3.026800e-01 1.005516e+03 
3.038500e-01 1.000039e+03 
3.050300e-01 9.945677e+02 
3.062600e-01 9.889279e+02 
3.075000e-01 9.832987e+02 
3.087000e-01 9.779042e+02 
3.099100e-01 9.725171e+02 
3.111200e-01 9.671891e+02 
3.123100e-01 9.620115e+02 
3.135300e-01 9.567537e+02 
3.147300e-01 9.516312e+02 
3.159900e-01 9.463043e+02 
3.171800e-01 9.413324e+02 
3.183700e-01 9.364135e+02 
3.196300e-01 9.312546e+02 
3.208400e-01 9.263475e+02 
3.220300e-01 9.215659e+02 
3.232000e-01 9.169254e+02 
3.244300e-01 9.120987e+02 
3.256700e-01 9.072782e+02 
3.269200e-01 9.024645e+02 
3.280800e-01 8.980379e+02 
3.292500e-01 8.936318e+02 
3.304800e-01 8.890474e+02 
3.317100e-01 8.845050e+02 
3.328900e-01 8.801861e+02 
3.340700e-01 8.759047e+02 
3.353600e-01 8.712882e+02 
3.365300e-01 8.671470e+02 
3.377100e-01 8.630061e+02 
3.389200e-01 8.587968e+02 
3.401600e-01 8.545214e+02 
3.413700e-01 8.504001e+02 
3.425300e-01 8.464923e+02 
3.437700e-01 8.423510e+02 
3.449800e-01 8.383451e+02 
3.461800e-01 8.344064e+02 
3.473600e-01 8.305740e+02 
3.485800e-01 8.266651e+02 
3.498100e-01 8.227580e+02 
3.510200e-01 8.189473e+02 
3.522000e-01 8.152621e+02 
3.533900e-01 8.115762e+02 
3.546400e-01 8.077561e+02 
3.558400e-01 8.041209e+02 
3.570600e-01 8.004558e+02 
3.582700e-01 7.968511e+02 
3.595000e-01 7.932173e+02 
3.607100e-01 7.896824e+02 
3.618900e-01 7.862711e+02 
3.631200e-01 7.827442e+02 
3.643200e-01 7.793314e+02 
3.655500e-01 7.758619e+02 
3.667300e-01 7.725603e+02 
3.679500e-01 7.691886e+02 
3.691900e-01 7.657896e+02 
3.703600e-01 7.626081e+02 
3.715700e-01 7.593438e+02 
3.727700e-01 7.561320e+02 
3.739900e-01 7.528985e+02 
3.752000e-01 7.497274e+02 
3.763900e-01 7.466331e+02 
3.775800e-01 7.435628e+02 
3.788200e-01 7.403886e+02 
3.800300e-01 7.373157e+02 
3.812100e-01 7.343450e+02 
3.824200e-01 7.313241e+02 
3.836100e-01 7.283759e+02 
3.848600e-01 7.253031e+02 
3.860400e-01 7.224248e+02 
3.872400e-01 7.195198e+02 
3.884600e-01 7.165984e+02 
3.896500e-01 7.137741e+02 
3.908700e-01 7.109004e+02 
3.920600e-01 7.081185e+02 
3.933100e-01 7.052185e+02 
3.945300e-01 7.024099e+02 
3.957200e-01 6.996918e+02 
3.969300e-01 6.969487e+02 
3.981700e-01 6.941589e+02 
3.993500e-01 6.915237e+02 
4.094840e-01 6.696547e+02 
4.272360e-01 6.344768e+02 
4.454600e-01 6.018441e+02 
4.630560e-01 5.732205e+02 
4.804610e-01 5.473677e+02 
4.980690e-01 5.233733e+02 
5.159230e-01 5.010446e+02 
5.317440e-01 4.827379e+02 
5.489640e-01 4.642614e+02 
5.671990e-01 4.461846e+02 
5.838690e-01 4.308446e+02 
6.018840e-01 4.154354e+02 
6.202330e-01 4.008489e+02 
6.379250e-01 3.877390e+02 
6.545410e-01 3.762203e+02 
6.714560e-01 3.651738e+02 
6.892080e-01 3.542979e+02 
7.066010e-01 3.442450e+02 
7.240540e-01 3.347145e+02 
7.420450e-01 3.254378e+02 
7.593780e-01 3.169691e+02 
7.764720e-01 3.090236e+02 
7.942840e-01 3.011460e+02 
8.116170e-01 2.938285e+02 
8.288310e-01 2.868893e+02 
8.462240e-01 2.801749e+02 
8.631980e-01 2.738865e+02 
8.810700e-01 2.675356e+02 
8.989410e-01 2.614407e+02 
9.166330e-01 2.556340e+02 
9.345640e-01 2.499648e+02 
9.515980e-01 2.447716e+02 
9.688720e-01 2.396809e+02 
9.865640e-01 2.346394e+02 
1.031870e+00 2.224924e+02 
1.063490e+00 2.145586e+02 
1.097920e+00 2.064466e+02 
1.134370e+00 1.983165e+02 
1.167730e+00 1.912956e+02 
1.203830e+00 1.840998e+02 
1.240470e+00 1.772084e+02 
1.275790e+00 1.708909e+02 
1.309140e+00 1.652404e+02 
1.342970e+00 1.597459e+02 
1.378420e+00 1.542917e+02 
1.413200e+00 1.491902e+02 
1.448110e+00 1.442917e+02 
1.484090e+00 1.394974e+02 
1.518820e+00 1.350638e+02 
1.552880e+00 1.309201e+02 
1.588630e+00 1.267500e+02 
1.623230e+00 1.229016e+02 
1.657720e+00 1.192258e+02 
1.692450e+00 1.156989e+02 
1.726400e+00 1.123639e+02 
1.762200e+00 1.089899e+02 
1.797880e+00 1.057829e+02 
1.833270e+00 1.027195e+02 
1.869070e+00 9.975698e+01 
1.903200e+00 9.704232e+01 
1.937740e+00 9.439875e+01 
1.973190e+00 9.178533e+01 
2.007440e+00 8.936105e+01 
2.042160e+00 8.700099e+01 
2.077900e+00 8.464919e+01 
2.112390e+00 8.247630e+01 
2.146220e+00 8.040350e+01 
2.181600e+00 7.832282e+01 
2.216930e+00 7.632199e+01 
2.250760e+00 7.446430e+01 
2.286500e+00 7.256773e+01 
2.321770e+00 7.077215e+01 
2.355950e+00 6.909870e+01 
2.391280e+00 6.741310e+01 
2.426240e+00 6.580066e+01 
2.460670e+00 6.426479e+01 
2.495640e+00 6.275582e+01 
2.531080e+00 6.128343e+01 
2.566220e+00 5.986370e+01 
2.600830e+00 5.851148e+01 
2.635080e+00 5.721976e+01 
2.670340e+00 5.592043e+01 
2.705970e+00 5.465433e+01 
2.740040e+00 5.348368e+01 
2.774520e+00 5.233203e+01 
2.809730e+00 5.119113e+01 
2.844390e+00 5.010194e+01 
2.879960e+00 4.901658e+01 
2.914860e+00 4.798263e+01 
2.949410e+00 4.698894e+01 
2.984440e+00 4.600924e+01 
3.019760e+00 4.505337e+01 
3.054730e+00 4.413608e+01 
3.089030e+00 4.325492e+01 
3.124060e+00 4.238249e+01 
3.159560e+00 4.152609e+01 
3.194710e+00 4.069688e+01 
3.229010e+00 3.990914e+01 
3.263320e+00 3.914556e+01 
3.297930e+00 3.839589e+01 
3.332830e+00 3.765942e+01 
3.368040e+00 3.693581e+01 
3.403300e+00 3.623028e+01 
3.438450e+00 3.554478e+01 
3.473060e+00 3.488754e+01 
3.508440e+00 3.423587e+01 
3.543110e+00 3.361338e+01 
3.577470e+00 3.300816e+01 
3.613040e+00 3.239837e+01 
3.648120e+00 3.181411e+01 
3.682910e+00 3.124903e+01 
3.718050e+00 3.069198e+01 
3.753320e+00 3.014646e+01 
3.787980e+00 2.962295e+01 
3.822290e+00 2.911815e+01 
3.857020e+00 2.862078e+01 
3.891920e+00 2.813161e+01 
3.926650e+00 2.765394e+01 
3.961970e+00 2.718036e+01 
3.997360e+00 2.671864e+01 
4.031670e+00 2.628133e+01 
4.066330e+00 2.584913e+01 
4.101420e+00 2.542168e+01 
4.136200e+00 2.500898e+01 
4.170810e+00 2.460754e+01 
4.206250e+00 2.420518e+01 
4.241580e+00 2.381303e+01 
4.276300e+00 2.343643e+01 
4.310970e+00 2.306871e+01 
4.346120e+00 2.270417e+01 
4.380600e+00 2.235455e+01 
4.414730e+00 2.201580e+01 
4.450350e+00 2.166990e+01 
4.485320e+00 2.133759e+01 
4.519810e+00 2.101702e+01 
4.555430e+00 2.069304e+01 
4.590870e+00 2.037764e+01 
4.625480e+00 2.007627e+01 
4.659910e+00 1.978253e+01 
4.695230e+00 1.948766e+01 
4.729960e+00 1.920365e+01 
4.764450e+00 1.892739e+01 
4.799530e+00 1.865229e+01 
4.834910e+00 1.838037e+01 
4.869700e+00 1.811865e+01 
4.904370e+00 1.786296e+01 
4.939450e+00 1.760939e+01 
4.973940e+00 1.736520e+01 
5.008430e+00 1.712563e+01 
5.043810e+00 1.688493e+01 
5.078840e+00 1.665137e+01 
5.113500e+00 1.642460e+01 
5.148890e+00 1.619782e+01 
5.184210e+00 1.597576e+01 
5.219060e+00 1.576084e+01 
5.253660e+00 1.555171e+01 
5.288570e+00 1.534452e+01 
5.323420e+00 1.514167e+01 
5.358440e+00 1.494175e+01 
5.393590e+00 1.474470e+01 
5.428310e+00 1.455386e+01 
5.462800e+00 1.436778e+01 
5.497640e+00 1.418309e+01 
5.532670e+00 1.400103e+01 
5.567280e+00 1.382440e+01 
5.602000e+00 1.365023e+01 
5.637270e+00 1.347671e+01 
5.672410e+00 1.330689e+01 
5.707020e+00 1.314246e+01 
5.742040e+00 1.297931e+01 
5.777430e+00 1.281730e+01 
5.812210e+00 1.266076e+01 
5.846820e+00 1.250783e+01 
5.881610e+00 1.235668e+01 
5.916510e+00 1.220754e+01 
5.951600e+00 1.206042e+01 
5.986560e+00 1.191638e+01 
6.021830e+00 1.177343e+01 
6.056490e+00 1.163545e+01 
6.091160e+00 1.149983e+01 
6.125830e+00 1.136634e+01 
6.161090e+00 1.123283e+01 
6.195760e+00 1.110386e+01 
6.230420e+00 1.097693e+01 
6.265690e+00 1.084978e+01 
6.300950e+00 1.072514e+01 
6.335620e+00 1.060447e+01 
6.370880e+00 1.048362e+01 
6.405550e+00 1.036686e+01 
6.440220e+00 1.025195e+01 
6.475480e+00 1.013685e+01 
6.510150e+00 1.002549e+01 
6.544810e+00 9.916098e+00 
6.580080e+00 9.806427e+00 
6.614750e+00 9.700212e+00 
6.649410e+00 9.595869e+00 
6.684080e+00 9.493064e+00 
6.719340e+00 9.390029e+00 
6.754010e+00 9.290287e+00 
6.788680e+00 9.192215e+00 
6.823940e+00 9.093900e+00 
6.859800e+00 8.995360e+00 
6.894470e+00 8.901693e+00 
6.929140e+00 8.809423e+00 
6.963800e+00 8.718462e+00 
6.999070e+00 8.627217e+00 
7.033730e+00 8.539149e+00 
7.068400e+00 8.452264e+00 
7.103660e+00 8.365116e+00 
7.138330e+00 8.280696e+00 
7.173600e+00 8.196184e+00 
7.208260e+00 8.114260e+00 
7.243530e+00 8.032022e+00 
7.277600e+00 7.953795e+00 
7.312860e+00 7.874052e+00 
7.348120e+00 7.795381e+00 
7.382790e+00 7.719052e+00 
7.417460e+00 7.643932e+00 
7.452720e+00 7.568646e+00 
7.487390e+00 7.495588e+00 
7.522650e+00 7.422256e+00 
7.557320e+00 7.351279e+00 
7.591990e+00 7.281282e+00 
7.627250e+00 7.211008e+00 
7.662510e+00 7.141642e+00 
7.697180e+00 7.074508e+00 
7.731850e+00 7.008295e+00 
7.766510e+00 6.942930e+00 
7.801180e+00 6.878362e+00 
7.836440e+00 6.813656e+00 
7.871110e+00 6.750913e+00 
7.906380e+00 6.687877e+00 
7.941040e+00 6.626697e+00 
7.976310e+00 6.565322e+00 
8.011570e+00 6.504861e+00 
8.046240e+00 6.446137e+00 
8.080900e+00 6.388138e+00 
8.115570e+00 6.330872e+00 
8.150830e+00 6.273537e+00 
8.185500e+00 6.217838e+00 
8.220770e+00 6.161852e+00 
8.255430e+00 6.107490e+00 
8.290100e+00 6.053939e+00 
8.324770e+00 6.001037e+00 
8.359430e+00 5.948767e+00 
8.394700e+00 5.896200e+00 
8.429960e+00 5.844369e+00 
8.464630e+00 5.794100e+00 
8.499890e+00 5.743568e+00 
8.534560e+00 5.694454e+00 
8.569200e+00 5.645942e+00 
