# Parameters:
# omega_b = 0.023012, omega_m = 0.120551, n_s = 0.898819, h = 76.968504, w = -1.000000, sigma_8 = 0.898425
# z = 0.700000
#
# k[1/Mpc] # P(k):
8.694000e-04 2.017930e+04 
2.077466e-03 3.991247e+04 
3.285532e-03 5.393514e+04 
4.493598e-03 6.372991e+04 
5.701664e-03 7.018180e+04 
6.909730e-03 7.403834e+04 
8.117797e-03 7.600174e+04 
9.325863e-03 7.642987e+04 
1.053393e-02 7.564241e+04 
1.174199e-02 7.391689e+04 
1.295006e-02 7.143425e+04 
1.415813e-02 6.842640e+04 
1.536619e-02 6.508088e+04 
1.657426e-02 6.152143e+04 
1.778233e-02 5.783824e+04 
1.899039e-02 5.418224e+04 
2.019846e-02 5.067645e+04 
2.140652e-02 4.739558e+04 
2.261459e-02 4.435060e+04 
2.382266e-02 4.156393e+04 
2.503072e-02 3.904677e+04 
2.623879e-02 3.679398e+04 
2.744685e-02 3.479997e+04 
2.865492e-02 3.304531e+04 
2.986299e-02 3.150745e+04 
3.100100e-02 3.024604e+04 
3.220400e-02 2.908262e+04 
3.288100e-02 2.850121e+04 
3.424300e-02 2.746053e+04 
3.555100e-02 2.659318e+04 
3.686000e-02 2.583030e+04 
3.795000e-02 2.525466e+04 
3.929100e-02 2.460152e+04 
4.039800e-02 2.408812e+04 
4.164000e-02 2.352719e+04 
4.294400e-02 2.292839e+04 
4.415000e-02 2.237009e+04 
4.542900e-02 2.174579e+04 
4.660900e-02 2.115605e+04 
4.782300e-02 2.050730e+04 
4.892900e-02 1.990266e+04 
5.031200e-02 1.912273e+04 
5.155900e-02 1.840048e+04 
5.238100e-02 1.792111e+04 
5.378200e-02 1.710588e+04 
5.513400e-02 1.632818e+04 
5.627600e-02 1.568702e+04 
5.735300e-02 1.510241e+04 
5.870100e-02 1.440423e+04 
5.988700e-02 1.382623e+04 
6.113500e-02 1.325731e+04 
6.225900e-02 1.278251e+04 
6.340100e-02 1.233789e+04 
6.480200e-02 1.184048e+04 
6.601100e-02 1.145798e+04 
6.725500e-02 1.110573e+04 
6.829100e-02 1.084605e+04 
6.958600e-02 1.055383e+04 
7.071100e-02 1.033081e+04 
7.192300e-02 1.011700e+04 
7.307400e-02 9.936293e+03 
7.412300e-02 9.787676e+03 
7.550400e-02 9.612686e+03 
7.663100e-02 9.481561e+03 
7.791200e-02 9.343463e+03 
7.912700e-02 9.217179e+03 
8.027600e-02 9.098725e+03 
8.138400e-02 8.983442e+03 
8.272200e-02 8.839837e+03 
8.406100e-02 8.689088e+03 
8.534100e-02 8.533239e+03 
8.653800e-02 8.376531e+03 
8.759800e-02 8.231743e+03 
8.900300e-02 8.030026e+03 
9.009000e-02 7.865879e+03 
9.113300e-02 7.702114e+03 
9.239600e-02 7.501518e+03 
9.358000e-02 7.310434e+03 
9.496100e-02 7.085795e+03 
9.608400e-02 6.906084e+03 
9.727500e-02 6.719475e+03 
9.852600e-02 6.529677e+03 
9.973800e-02 6.354151e+03 
1.009000e-01 6.193125e+03 
1.020900e-01 6.041334e+03 
1.034000e-01 5.884764e+03 
1.046000e-01 5.751332e+03 
1.057200e-01 5.640797e+03 
1.069100e-01 5.530566e+03 
1.082500e-01 5.421591e+03 
1.093900e-01 5.338454e+03 
1.105400e-01 5.260758e+03 
1.116900e-01 5.193700e+03 
1.129600e-01 5.124209e+03 
1.142000e-01 5.064071e+03 
1.153300e-01 5.011976e+03 
1.166400e-01 4.955194e+03 
1.177800e-01 4.906800e+03 
1.190000e-01 4.856168e+03 
1.201200e-01 4.807471e+03 
1.213400e-01 4.755085e+03 
1.227100e-01 4.689991e+03 
1.238900e-01 4.633439e+03 
1.250700e-01 4.571960e+03 
1.263200e-01 4.505863e+03 
1.275500e-01 4.436809e+03 
1.287500e-01 4.368522e+03 
1.299900e-01 4.295666e+03 
1.311300e-01 4.228617e+03 
1.323500e-01 4.156070e+03 
1.335900e-01 4.083452e+03 
1.347100e-01 4.018490e+03 
1.359800e-01 3.946735e+03 
1.372100e-01 3.879268e+03 
1.384300e-01 3.814554e+03 
1.395700e-01 3.756909e+03 
1.407700e-01 3.697857e+03 
1.420300e-01 3.640218e+03 
1.432800e-01 3.584343e+03 
1.444500e-01 3.536385e+03 
1.456300e-01 3.489015e+03 
1.468900e-01 3.441852e+03 
1.480500e-01 3.400024e+03 
1.491700e-01 3.361388e+03 
1.503800e-01 3.321698e+03 
1.516400e-01 3.281482e+03 
1.528200e-01 3.245778e+03 
1.540200e-01 3.210162e+03 
1.551900e-01 3.176614e+03 
1.564300e-01 3.141860e+03 
1.576600e-01 3.108033e+03 
1.588700e-01 3.075362e+03 
1.600900e-01 3.043007e+03 
1.612700e-01 3.011718e+03 
1.625400e-01 2.978668e+03 
1.637600e-01 2.946950e+03 
1.649500e-01 2.916240e+03 
1.662200e-01 2.883908e+03 
1.674000e-01 2.853527e+03 
1.685000e-01 2.825685e+03 
1.697500e-01 2.794088e+03 
1.710300e-01 2.761830e+03 
1.722200e-01 2.732380e+03 
1.734400e-01 2.701931e+03 
1.746400e-01 2.672473e+03 
1.758700e-01 2.642665e+03 
1.770900e-01 2.613332e+03 
1.782700e-01 2.585446e+03 
1.794600e-01 2.557751e+03 
1.807000e-01 2.529355e+03 
1.819100e-01 2.502120e+03 
1.830100e-01 2.477966e+03 
1.842200e-01 2.451854e+03 
1.855000e-01 2.424724e+03 
1.867000e-01 2.400208e+03 
1.879200e-01 2.375688e+03 
1.890900e-01 2.352647e+03 
1.902800e-01 2.330091e+03 
1.915200e-01 2.306961e+03 
1.926900e-01 2.285618e+03 
1.939000e-01 2.264339e+03 
1.951700e-01 2.242359e+03 
1.963100e-01 2.223054e+03 
1.975100e-01 2.203362e+03 
1.987800e-01 2.182842e+03 
2.000100e-01 2.163361e+03 
2.012500e-01 2.144214e+03 
2.023400e-01 2.127623e+03 
2.036100e-01 2.108588e+03 
2.048900e-01 2.089766e+03 
2.060400e-01 2.073102e+03 
2.072200e-01 2.056237e+03 
2.084200e-01 2.039265e+03 
2.096900e-01 2.021566e+03 
2.109200e-01 2.004675e+03 
2.121100e-01 1.988361e+03 
2.132700e-01 1.972666e+03 
2.145200e-01 1.955988e+03 
2.157200e-01 1.940056e+03 
2.168800e-01 1.924795e+03 
2.180700e-01 1.909349e+03 
2.193400e-01 1.892997e+03 
2.206000e-01 1.876827e+03 
2.217500e-01 1.862268e+03 
2.229500e-01 1.847276e+03 
2.241400e-01 1.832396e+03 
2.253500e-01 1.817463e+03 
2.264900e-01 1.803577e+03 
2.277100e-01 1.788817e+03 
2.289900e-01 1.773441e+03 
2.301500e-01 1.759691e+03 
2.313600e-01 1.745533e+03 
2.325600e-01 1.731554e+03 
2.337700e-01 1.717641e+03 
2.350000e-01 1.703682e+03 
2.362000e-01 1.690204e+03 
2.374100e-01 1.676742e+03 
2.386500e-01 1.663125e+03 
2.399100e-01 1.649470e+03 
2.410400e-01 1.637382e+03 
2.422500e-01 1.624596e+03 
2.435000e-01 1.611556e+03 
2.447300e-01 1.598902e+03 
2.458700e-01 1.587372e+03 
2.470600e-01 1.575480e+03 
2.483300e-01 1.562946e+03 
2.495600e-01 1.551017e+03 
2.507600e-01 1.539598e+03 
2.519600e-01 1.528316e+03 
2.532200e-01 1.516614e+03 
2.543700e-01 1.506168e+03 
2.555500e-01 1.495644e+03 
2.568000e-01 1.484627e+03 
2.580100e-01 1.474091e+03 
2.592400e-01 1.463651e+03 
2.604100e-01 1.453899e+03 
2.616100e-01 1.444010e+03 
2.628400e-01 1.433991e+03 
2.640600e-01 1.424310e+03 
2.652200e-01 1.415263e+03 
2.664300e-01 1.405932e+03 
2.676500e-01 1.396629e+03 
2.688400e-01 1.387761e+03 
2.700700e-01 1.378763e+03 
2.712400e-01 1.370297e+03 
2.724800e-01 1.361423e+03 
2.736700e-01 1.353060e+03 
2.748800e-01 1.344708e+03 
2.761000e-01 1.336379e+03 
2.773200e-01 1.328141e+03 
2.785400e-01 1.320016e+03 
2.797000e-01 1.312425e+03 
2.808900e-01 1.304718e+03 
2.821400e-01 1.296709e+03 
2.833900e-01 1.288789e+03 
2.845500e-01 1.281559e+03 
2.857800e-01 1.273971e+03 
2.870300e-01 1.266343e+03 
2.882100e-01 1.259216e+03 
2.893900e-01 1.252183e+03 
2.906300e-01 1.244881e+03 
2.918900e-01 1.237540e+03 
2.930500e-01 1.230849e+03 
2.942500e-01 1.223999e+03 
2.954200e-01 1.217391e+03 
2.966500e-01 1.210515e+03 
2.978900e-01 1.203653e+03 
2.990400e-01 1.197351e+03 
3.002700e-01 1.190691e+03 
3.015100e-01 1.184051e+03 
3.026800e-01 1.177847e+03 
3.038500e-01 1.171702e+03 
3.050300e-01 1.165563e+03 
3.062600e-01 1.159239e+03 
3.075000e-01 1.152926e+03 
3.087000e-01 1.146876e+03 
3.099100e-01 1.140834e+03 
3.111200e-01 1.134859e+03 
3.123100e-01 1.129054e+03 
3.135300e-01 1.123159e+03 
3.147300e-01 1.117415e+03 
3.159900e-01 1.111441e+03 
3.171800e-01 1.105865e+03 
3.183700e-01 1.100349e+03 
3.196300e-01 1.094564e+03 
3.208400e-01 1.089060e+03 
3.220300e-01 1.083697e+03 
3.232000e-01 1.078491e+03 
3.244300e-01 1.073076e+03 
3.256700e-01 1.067668e+03 
3.269200e-01 1.062267e+03 
3.280800e-01 1.057300e+03 
3.292500e-01 1.052356e+03 
3.304800e-01 1.047210e+03 
3.317100e-01 1.042112e+03 
3.328900e-01 1.037264e+03 
3.340700e-01 1.032458e+03 
3.353600e-01 1.027273e+03 
3.365300e-01 1.022621e+03 
3.377100e-01 1.017970e+03 
3.389200e-01 1.013241e+03 
3.401600e-01 1.008438e+03 
3.413700e-01 1.003805e+03 
3.425300e-01 9.994110e+02 
3.437700e-01 9.947539e+02 
3.449800e-01 9.902490e+02 
3.461800e-01 9.858195e+02 
3.473600e-01 9.815083e+02 
3.485800e-01 9.771081e+02 
3.498100e-01 9.727098e+02 
3.510200e-01 9.684199e+02 
3.522000e-01 9.642711e+02 
3.533900e-01 9.601216e+02 
3.546400e-01 9.558152e+02 
3.558400e-01 9.517168e+02 
3.570600e-01 9.475846e+02 
3.582700e-01 9.435204e+02 
3.595000e-01 9.394234e+02 
3.607100e-01 9.354350e+02 
3.618900e-01 9.315839e+02 
3.631200e-01 9.276021e+02 
3.643200e-01 9.237492e+02 
3.655500e-01 9.198321e+02 
3.667300e-01 9.161045e+02 
3.679500e-01 9.122914e+02 
3.691900e-01 9.084475e+02 
3.703600e-01 9.048494e+02 
3.715700e-01 9.011575e+02 
3.727700e-01 8.975251e+02 
3.739900e-01 8.938663e+02 
3.752000e-01 8.902750e+02 
3.763900e-01 8.867706e+02 
3.775800e-01 8.832932e+02 
3.788200e-01 8.796982e+02 
3.800300e-01 8.762178e+02 
3.812100e-01 8.728498e+02 
3.824200e-01 8.694225e+02 
3.836100e-01 8.660776e+02 
3.848600e-01 8.625914e+02 
3.860400e-01 8.593258e+02 
3.872400e-01 8.560298e+02 
3.884600e-01 8.527124e+02 
3.896500e-01 8.495041e+02 
3.908700e-01 8.462398e+02 
3.920600e-01 8.430796e+02 
3.933100e-01 8.397854e+02 
3.945300e-01 8.365948e+02 
3.957200e-01 8.335015e+02 
3.969300e-01 8.303783e+02 
3.981700e-01 8.272017e+02 
3.993500e-01 8.242012e+02 
4.094840e-01 7.992833e+02 
4.272360e-01 7.591036e+02 
4.454600e-01 7.217349e+02 
4.630560e-01 6.888805e+02 
4.804610e-01 6.591637e+02 
4.980690e-01 6.315336e+02 
5.159230e-01 6.057920e+02 
5.317440e-01 5.846548e+02 
5.489640e-01 5.632935e+02 
5.671990e-01 5.423594e+02 
5.838690e-01 5.245664e+02 
6.018840e-01 5.066631e+02 
6.202330e-01 4.896675e+02 
6.379250e-01 4.743700e+02 
6.545410e-01 4.608908e+02 
6.714560e-01 4.479344e+02 
6.892080e-01 4.351517e+02 
7.066010e-01 4.232961e+02 
7.240540e-01 4.120296e+02 
7.420450e-01 4.010294e+02 
7.593780e-01 3.909611e+02 
7.764720e-01 3.814899e+02 
7.942840e-01 3.720727e+02 
8.116170e-01 3.632943e+02 
8.288310e-01 3.549491e+02 
8.462240e-01 3.468542e+02 
8.631980e-01 3.392523e+02 
8.810700e-01 3.315561e+02 
8.989410e-01 3.241524e+02 
9.166330e-01 3.170815e+02 
9.345640e-01 3.101597e+02 
9.515980e-01 3.038063e+02 
9.688720e-01 2.975652e+02 
9.865640e-01 2.913701e+02 
1.031870e+00 2.764065e+02 
1.063490e+00 2.665939e+02 
1.097920e+00 2.565367e+02 
1.134370e+00 2.464337e+02 
1.167730e+00 2.376880e+02 
1.203830e+00 2.287099e+02 
1.240470e+00 2.200976e+02 
1.275790e+00 2.121929e+02 
1.309140e+00 2.051167e+02 
1.342970e+00 1.982266e+02 
1.378420e+00 1.913848e+02 
1.413200e+00 1.849817e+02 
1.448110e+00 1.788292e+02 
1.484090e+00 1.728059e+02 
1.518820e+00 1.672356e+02 
1.552880e+00 1.620287e+02 
1.588630e+00 1.567899e+02 
1.623230e+00 1.519546e+02 
1.657720e+00 1.473368e+02 
1.692450e+00 1.429065e+02 
1.726400e+00 1.387176e+02 
1.762200e+00 1.344802e+02 
1.797880e+00 1.304551e+02 
1.833270e+00 1.266118e+02 
1.869070e+00 1.228952e+02 
1.903200e+00 1.194913e+02 
1.937740e+00 1.161782e+02 
1.973190e+00 1.129032e+02 
2.007440e+00 1.098676e+02 
2.042160e+00 1.069130e+02 
2.077900e+00 1.039706e+02 
2.112390e+00 1.012532e+02 
2.146220e+00 9.866284e+01 
2.181600e+00 9.606267e+01 
2.216930e+00 9.356444e+01 
2.250760e+00 9.124592e+01 
2.286500e+00 8.887997e+01 
2.321770e+00 8.664166e+01 
2.355950e+00 8.455650e+01 
2.391280e+00 8.245660e+01 
2.426240e+00 8.044947e+01 
2.460670e+00 7.853885e+01 
2.495640e+00 7.666247e+01 
2.531080e+00 7.483233e+01 
2.566220e+00 7.306930e+01 
2.600830e+00 7.139096e+01 
2.635080e+00 6.978825e+01 
2.670340e+00 6.817714e+01 
2.705970e+00 6.660822e+01 
2.740040e+00 6.515824e+01 
2.774520e+00 6.373210e+01 
2.809730e+00 6.232032e+01 
2.844390e+00 6.097324e+01 
2.879960e+00 5.963173e+01 
2.914860e+00 5.835452e+01 
2.949410e+00 5.712758e+01 
2.984440e+00 5.591870e+01 
3.019760e+00 5.473971e+01 
3.054730e+00 5.360871e+01 
3.089030e+00 5.252320e+01 
3.124060e+00 5.144883e+01 
3.159560e+00 5.039467e+01 
3.194710e+00 4.937468e+01 
3.229010e+00 4.840603e+01 
3.263320e+00 4.746771e+01 
3.297930e+00 4.654681e+01 
3.332830e+00 4.564262e+01 
3.368040e+00 4.475465e+01 
3.403300e+00 4.388920e+01 
3.438450e+00 4.304894e+01 
3.473060e+00 4.224352e+01 
3.508440e+00 4.144544e+01 
3.543110e+00 4.068327e+01 
3.577470e+00 3.994281e+01 
3.613040e+00 3.919696e+01 
3.648120e+00 3.848272e+01 
3.682910e+00 3.779215e+01 
3.718050e+00 3.711176e+01 
3.753320e+00 3.644570e+01 
3.787980e+00 3.580687e+01 
3.822290e+00 3.519106e+01 
3.857020e+00 3.458457e+01 
3.891920e+00 3.398829e+01 
3.926650e+00 3.340637e+01 
3.961970e+00 3.282957e+01 
3.997360e+00 3.226753e+01 
4.031670e+00 3.173530e+01 
4.066330e+00 3.120962e+01 
4.101420e+00 3.068977e+01 
4.136200e+00 3.018817e+01 
4.170810e+00 2.970028e+01 
4.206250e+00 2.921159e+01 
4.241580e+00 2.873538e+01 
4.276300e+00 2.827826e+01 
4.310970e+00 2.783204e+01 
4.346120e+00 2.738982e+01 
4.380600e+00 2.696588e+01 
4.414730e+00 2.655515e+01 
4.450350e+00 2.613602e+01 
4.485320e+00 2.573338e+01 
4.519810e+00 2.534515e+01 
4.555430e+00 2.495289e+01 
4.590870e+00 2.457109e+01 
4.625480e+00 2.420642e+01 
4.659910e+00 2.385100e+01 
4.695230e+00 2.349441e+01 
4.729960e+00 2.315098e+01 
4.764450e+00 2.281700e+01 
4.799530e+00 2.248454e+01 
4.834910e+00 2.215594e+01 
4.869700e+00 2.183982e+01 
4.904370e+00 2.153101e+01 
4.939450e+00 2.122481e+01 
4.973940e+00 2.093005e+01 
5.008430e+00 2.064088e+01 
5.043810e+00 2.035044e+01 
5.078840e+00 2.006867e+01 
5.113500e+00 1.979510e+01 
5.148890e+00 1.952163e+01 
5.184210e+00 1.925385e+01 
5.219060e+00 1.899472e+01 
5.253660e+00 1.874265e+01 
5.288570e+00 1.849292e+01 
5.323420e+00 1.824847e+01 
5.358440e+00 1.800761e+01 
5.393590e+00 1.777020e+01 
5.428310e+00 1.754033e+01 
5.462800e+00 1.731623e+01 
5.497640e+00 1.709379e+01 
5.532670e+00 1.687459e+01 
5.567280e+00 1.666192e+01 
5.602000e+00 1.645223e+01 
5.637270e+00 1.624338e+01 
5.672410e+00 1.603898e+01 
5.707020e+00 1.584107e+01 
5.742040e+00 1.564474e+01 
5.777430e+00 1.544980e+01 
5.812210e+00 1.526143e+01 
5.846820e+00 1.507744e+01 
5.881610e+00 1.489560e+01 
5.916510e+00 1.471617e+01 
5.951600e+00 1.453919e+01 
5.986560e+00 1.436593e+01 
6.021830e+00 1.419396e+01 
6.056490e+00 1.402800e+01 
6.091160e+00 1.386489e+01 
6.125830e+00 1.370433e+01 
6.161090e+00 1.354376e+01 
6.195760e+00 1.338865e+01 
6.230420e+00 1.323598e+01 
6.265690e+00 1.308306e+01 
6.300950e+00 1.293317e+01 
6.335620e+00 1.278805e+01 
6.370880e+00 1.264271e+01 
6.405550e+00 1.250228e+01 
6.440220e+00 1.236408e+01 
6.475480e+00 1.222564e+01 
6.510150e+00 1.209170e+01 
6.544810e+00 1.196013e+01 
6.580080e+00 1.182822e+01 
6.614750e+00 1.170046e+01 
6.649410e+00 1.157495e+01 
6.684080e+00 1.145129e+01 
6.719340e+00 1.132734e+01 
6.754010e+00 1.120735e+01 
6.788680e+00 1.108936e+01 
6.823940e+00 1.097107e+01 
6.859800e+00 1.085251e+01 
6.894470e+00 1.073980e+01 
6.929140e+00 1.062876e+01 
6.963800e+00 1.051930e+01 
6.999070e+00 1.040950e+01 
7.033730e+00 1.030349e+01 
7.068400e+00 1.019891e+01 
7.103660e+00 1.009401e+01 
7.138330e+00 9.992384e+00 
7.173600e+00 9.890632e+00 
7.208260e+00 9.791995e+00 
7.243530e+00 9.692977e+00 
7.277600e+00 9.598774e+00 
7.312860e+00 9.502731e+00 
7.348120e+00 9.407976e+00 
7.382790e+00 9.316042e+00 
7.417460e+00 9.225546e+00 
7.452720e+00 9.134839e+00 
7.487390e+00 9.046817e+00 
7.522650e+00 8.958462e+00 
7.557320e+00 8.872919e+00 
7.591990e+00 8.788548e+00 
7.627250e+00 8.703843e+00 
7.662510e+00 8.620231e+00 
7.697180e+00 8.539287e+00 
7.731850e+00 8.459446e+00 
7.766510e+00 8.380626e+00 
7.801180e+00 8.302766e+00 
7.836440e+00 8.224721e+00 
7.871110e+00 8.149030e+00 
7.906380e+00 8.072985e+00 
7.941040e+00 7.999180e+00 
7.976310e+00 7.925122e+00 
8.011570e+00 7.852148e+00 
8.046240e+00 7.781270e+00 
8.080900e+00 7.711267e+00 
8.115570e+00 7.642142e+00 
8.150830e+00 7.572909e+00 
8.185500e+00 7.505651e+00 
8.220770e+00 7.438047e+00 
8.255430e+00 7.372404e+00 
8.290100e+00 7.307707e+00 
8.324770e+00 7.243791e+00 
8.359430e+00 7.180638e+00 
8.394700e+00 7.117128e+00 
8.429960e+00 7.054489e+00 
8.464630e+00 6.993722e+00 
8.499890e+00 6.932636e+00 
8.534560e+00 6.873266e+00 
8.569200e+00 6.814624e+00 
