# Parameters:
# omega_b = 0.022902, omega_m = 0.152795, n_s = 0.901969, h = 80.039370, w = -1.000000, sigma_8 = 0.753543
# z = 0.700000
#
# k[1/Mpc] # P(k):
8.694000e-04 6.196460e+03 
2.077466e-03 1.260981e+04 
3.285532e-03 1.748980e+04 
4.493598e-03 2.120945e+04 
5.701664e-03 2.395649e+04 
6.909730e-03 2.590584e+04 
8.117797e-03 2.724054e+04 
9.325863e-03 2.805442e+04 
1.053393e-02 2.843516e+04 
1.174199e-02 2.846146e+04 
1.295006e-02 2.818498e+04 
1.415813e-02 2.767469e+04 
1.536619e-02 2.698520e+04 
1.657426e-02 2.614347e+04 
1.778233e-02 2.511059e+04 
1.899039e-02 2.388793e+04 
2.019846e-02 2.264343e+04 
2.140652e-02 2.149527e+04 
2.261459e-02 2.041925e+04 
2.382266e-02 1.940124e+04 
2.503072e-02 1.844763e+04 
2.623879e-02 1.756313e+04 
2.744685e-02 1.674934e+04 
2.865492e-02 1.600914e+04 
2.986299e-02 1.533991e+04 
3.100100e-02 1.477417e+04 
3.220400e-02 1.423938e+04 
3.288100e-02 1.396722e+04 
3.424300e-02 1.347496e+04 
3.555100e-02 1.306298e+04 
3.686000e-02 1.270375e+04 
3.795000e-02 1.243786e+04 
3.929100e-02 1.214800e+04 
4.039800e-02 1.193031e+04 
4.164000e-02 1.170213e+04 
4.294400e-02 1.147199e+04 
4.415000e-02 1.126306e+04 
4.542900e-02 1.103407e+04 
4.660900e-02 1.081768e+04 
4.782300e-02 1.057569e+04 
4.892900e-02 1.034498e+04 
5.031200e-02 1.003767e+04 
5.155900e-02 9.741042e+03 
5.238100e-02 9.537655e+03 
5.378200e-02 9.180086e+03 
5.513400e-02 8.823766e+03 
5.627600e-02 8.518808e+03 
5.735300e-02 8.232404e+03 
5.870100e-02 7.880001e+03 
5.988700e-02 7.580297e+03 
6.113500e-02 7.278211e+03 
6.225900e-02 7.020442e+03 
6.340100e-02 6.774668e+03 
6.480200e-02 6.495525e+03 
6.601100e-02 6.277130e+03 
6.725500e-02 6.073519e+03 
6.829100e-02 5.921649e+03 
6.958600e-02 5.749611e+03 
7.071100e-02 5.617339e+03 
7.192300e-02 5.489998e+03 
7.307400e-02 5.382200e+03 
7.412300e-02 5.293673e+03 
7.550400e-02 5.190162e+03 
7.663100e-02 5.113459e+03 
7.791200e-02 5.034738e+03 
7.912700e-02 4.965319e+03 
8.027600e-02 4.902572e+03 
8.138400e-02 4.843665e+03 
8.272200e-02 4.773343e+03 
8.406100e-02 4.702639e+03 
8.534100e-02 4.632779e+03 
8.653800e-02 4.564605e+03 
8.759800e-02 4.502532e+03 
8.900300e-02 4.417037e+03 
9.009000e-02 4.347776e+03 
9.113300e-02 4.278238e+03 
9.239600e-02 4.192256e+03 
9.358000e-02 4.108954e+03 
9.496100e-02 4.007915e+03 
9.608400e-02 3.924757e+03 
9.727500e-02 3.836420e+03 
9.852600e-02 3.741110e+03 
9.973800e-02 3.650145e+03 
1.009000e-01 3.564349e+03 
1.020900e-01 3.477626e+03 
1.034000e-01 3.385473e+03 
1.046000e-01 3.304086e+03 
1.057200e-01 3.232310e+03 
1.069100e-01 3.159310e+03 
1.082500e-01 3.083149e+03 
1.093900e-01 3.023161e+03 
1.105400e-01 2.965940e+03 
1.116900e-01 2.914858e+03 
1.129600e-01 2.861648e+03 
1.142000e-01 2.815550e+03 
1.153300e-01 2.776391e+03 
1.166400e-01 2.734912e+03 
1.177800e-01 2.701952e+03 
1.190000e-01 2.668573e+03 
1.201200e-01 2.640252e+03 
1.213400e-01 2.610418e+03 
1.227100e-01 2.578439e+03 
1.238900e-01 2.551459e+03 
1.250700e-01 2.524552e+03 
1.263200e-01 2.496175e+03 
1.275500e-01 2.467698e+03 
1.287500e-01 2.439603e+03 
1.299900e-01 2.409725e+03 
1.311300e-01 2.381709e+03 
1.323500e-01 2.350639e+03 
1.335900e-01 2.318510e+03 
1.347100e-01 2.288450e+03 
1.359800e-01 2.254140e+03 
1.372100e-01 2.219721e+03 
1.384300e-01 2.185702e+03 
1.395700e-01 2.153039e+03 
1.407700e-01 2.119270e+03 
1.420300e-01 2.083163e+03 
1.432800e-01 2.048188e+03 
1.444500e-01 2.015567e+03 
1.456300e-01 1.983390e+03 
1.468900e-01 1.950195e+03 
1.480500e-01 1.920427e+03 
1.491700e-01 1.892805e+03 
1.503800e-01 1.864251e+03 
1.516400e-01 1.835506e+03 
1.528200e-01 1.810650e+03 
1.540200e-01 1.785882e+03 
1.551900e-01 1.763803e+03 
1.564300e-01 1.741247e+03 
1.576600e-01 1.720126e+03 
1.588700e-01 1.700721e+03 
1.600900e-01 1.681592e+03 
1.612700e-01 1.664670e+03 
1.625400e-01 1.646796e+03 
1.637600e-01 1.630312e+03 
1.649500e-01 1.614736e+03 
1.662200e-01 1.598402e+03 
1.674000e-01 1.583427e+03 
1.685000e-01 1.569699e+03 
1.697500e-01 1.554029e+03 
1.710300e-01 1.537940e+03 
1.722200e-01 1.523247e+03 
1.734400e-01 1.507463e+03 
1.746400e-01 1.492166e+03 
1.758700e-01 1.476424e+03 
1.770900e-01 1.460404e+03 
1.782700e-01 1.445174e+03 
1.794600e-01 1.429573e+03 
1.807000e-01 1.413262e+03 
1.819100e-01 1.397620e+03 
1.830100e-01 1.383227e+03 
1.842200e-01 1.367583e+03 
1.855000e-01 1.351314e+03 
1.867000e-01 1.336175e+03 
1.879200e-01 1.321042e+03 
1.890900e-01 1.306791e+03 
1.902800e-01 1.292653e+03 
1.915200e-01 1.278163e+03 
1.926900e-01 1.264791e+03 
1.939000e-01 1.251436e+03 
1.951700e-01 1.237647e+03 
1.963100e-01 1.225574e+03 
1.975100e-01 1.213345e+03 
1.987800e-01 1.200608e+03 
2.000100e-01 1.188582e+03 
2.012500e-01 1.176911e+03 
2.023400e-01 1.166801e+03 
2.036100e-01 1.155258e+03 
2.048900e-01 1.144050e+03 
2.060400e-01 1.134129e+03 
2.072200e-01 1.124109e+03 
2.084200e-01 1.114240e+03 
2.096900e-01 1.103950e+03 
2.109200e-01 1.094131e+03 
2.121100e-01 1.084857e+03 
2.132700e-01 1.075945e+03 
2.145200e-01 1.066477e+03 
2.157200e-01 1.057568e+03 
2.168800e-01 1.049097e+03 
2.180700e-01 1.040524e+03 
2.193400e-01 1.031529e+03 
2.206000e-01 1.022780e+03 
2.217500e-01 1.014902e+03 
2.229500e-01 1.006791e+03 
2.241400e-01 9.989755e+02 
2.253500e-01 9.911373e+02 
2.264900e-01 9.838478e+02 
2.277100e-01 9.762383e+02 
2.289900e-01 9.684639e+02 
2.301500e-01 9.615108e+02 
2.313600e-01 9.543520e+02 
2.325600e-01 9.475754e+02 
2.337700e-01 9.408291e+02 
2.350000e-01 9.340590e+02 
2.362000e-01 9.276475e+02 
2.374100e-01 9.213932e+02 
2.386500e-01 9.150646e+02 
2.399100e-01 9.087161e+02 
2.410400e-01 9.032703e+02 
2.422500e-01 8.975305e+02 
2.435000e-01 8.916743e+02 
2.447300e-01 8.860081e+02 
2.458700e-01 8.809179e+02 
2.470600e-01 8.756658e+02 
2.483300e-01 8.701285e+02 
2.495600e-01 8.648453e+02 
2.507600e-01 8.597713e+02 
2.519600e-01 8.547564e+02 
2.532200e-01 8.495533e+02 
2.543700e-01 8.448221e+02 
2.555500e-01 8.399961e+02 
2.568000e-01 8.349431e+02 
2.580100e-01 8.301088e+02 
2.592400e-01 8.251569e+02 
2.604100e-01 8.204582e+02 
2.616100e-01 8.156924e+02 
2.628400e-01 8.108629e+02 
2.640600e-01 8.060047e+02 
2.652200e-01 8.013879e+02 
2.664300e-01 7.966247e+02 
2.676500e-01 7.918755e+02 
2.688400e-01 7.871903e+02 
2.700700e-01 7.823361e+02 
2.712400e-01 7.777689e+02 
2.724800e-01 7.729810e+02 
2.736700e-01 7.683621e+02 
2.748800e-01 7.636396e+02 
2.761000e-01 7.589297e+02 
2.773200e-01 7.542710e+02 
2.785400e-01 7.496268e+02 
2.797000e-01 7.451823e+02 
2.808900e-01 7.406701e+02 
2.821400e-01 7.359811e+02 
2.833900e-01 7.313400e+02 
2.845500e-01 7.270023e+02 
2.857800e-01 7.224506e+02 
2.870300e-01 7.178746e+02 
2.882100e-01 7.136000e+02 
2.893900e-01 7.093378e+02 
2.906300e-01 7.048888e+02 
2.918900e-01 7.004162e+02 
2.930500e-01 6.963408e+02 
2.942500e-01 6.921594e+02 
2.954200e-01 6.880987e+02 
2.966500e-01 6.838728e+02 
2.978900e-01 6.796565e+02 
2.990400e-01 6.757852e+02 
3.002700e-01 6.716759e+02 
3.015100e-01 6.675707e+02 
3.026800e-01 6.637358e+02 
3.038500e-01 6.599376e+02 
3.050300e-01 6.561437e+02 
3.062600e-01 6.522218e+02 
3.075000e-01 6.483076e+02 
3.087000e-01 6.445570e+02 
3.099100e-01 6.408118e+02 
3.111200e-01 6.371041e+02 
3.123100e-01 6.334945e+02 
3.135300e-01 6.298294e+02 
3.147300e-01 6.262590e+02 
3.159900e-01 6.225465e+02 
3.171800e-01 6.190769e+02 
3.183700e-01 6.156417e+02 
3.196300e-01 6.120391e+02 
3.208400e-01 6.086127e+02 
3.220300e-01 6.052742e+02 
3.232000e-01 6.020316e+02 
3.244300e-01 5.986579e+02 
3.256700e-01 5.952890e+02 
3.269200e-01 5.919251e+02 
3.280800e-01 5.888320e+02 
3.292500e-01 5.857501e+02 
3.304800e-01 5.825426e+02 
3.317100e-01 5.793647e+02 
3.328900e-01 5.763435e+02 
3.340700e-01 5.733489e+02 
3.353600e-01 5.701190e+02 
3.365300e-01 5.672214e+02 
3.377100e-01 5.643243e+02 
3.389200e-01 5.613797e+02 
3.401600e-01 5.583890e+02 
3.413700e-01 5.555075e+02 
3.425300e-01 5.527762e+02 
3.437700e-01 5.498819e+02 
3.449800e-01 5.470825e+02 
3.461800e-01 5.443303e+02 
3.473600e-01 5.416532e+02 
3.485800e-01 5.389245e+02 
3.498100e-01 5.361972e+02 
3.510200e-01 5.335374e+02 
3.522000e-01 5.309654e+02 
3.533900e-01 5.283932e+02 
3.546400e-01 5.257327e+02 
3.558400e-01 5.232014e+02 
3.570600e-01 5.206495e+02 
3.582700e-01 5.181398e+02 
3.595000e-01 5.156101e+02 
3.607100e-01 5.131523e+02 
3.618900e-01 5.107829e+02 
3.631200e-01 5.083334e+02 
3.643200e-01 5.059634e+02 
3.655500e-01 5.035540e+02 
3.667300e-01 5.012614e+02 
3.679500e-01 4.989271e+02 
3.691900e-01 4.965741e+02 
3.703600e-01 4.943717e+02 
3.715700e-01 4.921121e+02 
3.727700e-01 4.898891e+02 
3.739900e-01 4.876536e+02 
3.752000e-01 4.854660e+02 
3.763900e-01 4.833316e+02 
3.775800e-01 4.812137e+02 
3.788200e-01 4.790243e+02 
3.800300e-01 4.769049e+02 
3.812100e-01 4.748605e+02 
3.824200e-01 4.727848e+02 
3.836100e-01 4.707591e+02 
3.848600e-01 4.686479e+02 
3.860400e-01 4.666704e+02 
3.872400e-01 4.646746e+02 
3.884600e-01 4.626710e+02 
3.896500e-01 4.607352e+02 
3.908700e-01 4.587657e+02 
3.920600e-01 4.568592e+02 
3.933100e-01 4.548718e+02 
3.945300e-01 4.529471e+02 
3.957200e-01 4.510928e+02 
3.969300e-01 4.492238e+02 
3.981700e-01 4.473230e+02 
3.993500e-01 4.455277e+02 
4.094840e-01 4.306490e+02 
4.272360e-01 4.068486e+02 
4.454600e-01 3.848773e+02 
4.630560e-01 3.656833e+02 
4.804610e-01 3.483622e+02 
4.980690e-01 3.323140e+02 
5.159230e-01 3.173715e+02 
5.317440e-01 3.051335e+02 
5.489640e-01 2.927830e+02 
5.671990e-01 2.807137e+02 
5.838690e-01 2.704854e+02 
6.018840e-01 2.602306e+02 
6.202330e-01 2.505735e+02 
6.379250e-01 2.419105e+02 
6.545410e-01 2.343417e+02 
6.714560e-01 2.271192e+02 
6.892080e-01 2.200384e+02 
7.066010e-01 2.135482e+02 
7.240540e-01 2.074277e+02 
7.420450e-01 2.015168e+02 
7.593780e-01 1.961557e+02 
7.764720e-01 1.911588e+02 
7.942840e-01 1.862405e+02 
8.116170e-01 1.817142e+02 
8.288310e-01 1.774482e+02 
8.462240e-01 1.733475e+02 
8.631980e-01 1.695344e+02 
8.810700e-01 1.657056e+02 
8.989410e-01 1.620534e+02 
9.166330e-01 1.585961e+02 
9.345640e-01 1.552429e+02 
9.515980e-01 1.521844e+02 
9.688720e-01 1.492029e+02 
9.865640e-01 1.462654e+02 
1.031870e+00 1.392224e+02 
1.063490e+00 1.346589e+02 
1.097920e+00 1.300161e+02 
1.134370e+00 1.253738e+02 
1.167730e+00 1.213820e+02 
1.203830e+00 1.172913e+02 
1.240470e+00 1.133794e+02 
1.275790e+00 1.097889e+02 
1.309140e+00 1.065747e+02 
1.342970e+00 1.034465e+02 
1.378420e+00 1.003339e+02 
1.413200e+00 9.741557e+01 
1.448110e+00 9.460632e+01 
1.484090e+00 9.185013e+01 
1.518820e+00 8.928898e+01 
1.552880e+00 8.688767e+01 
1.588630e+00 8.445883e+01 
1.623230e+00 8.221165e+01 
1.657720e+00 8.005585e+01 
1.692450e+00 7.798109e+01 
1.726400e+00 7.600929e+01 
1.762200e+00 7.400777e+01 
1.797880e+00 7.209512e+01 
1.833270e+00 7.025910e+01 
1.869070e+00 6.847835e+01 
1.903200e+00 6.683875e+01 
1.937740e+00 6.523463e+01 
1.973190e+00 6.364396e+01 
2.007440e+00 6.216039e+01 
2.042160e+00 6.071182e+01 
2.077900e+00 5.926098e+01 
2.112390e+00 5.791561e+01 
2.146220e+00 5.662503e+01 
2.181600e+00 5.532683e+01 
2.216930e+00 5.407206e+01 
2.250760e+00 5.290244e+01 
2.286500e+00 5.170376e+01 
2.321770e+00 5.056398e+01 
2.355950e+00 4.949864e+01 
2.391280e+00 4.842155e+01 
2.426240e+00 4.738642e+01 
2.460670e+00 4.639673e+01 
2.495640e+00 4.542144e+01 
2.531080e+00 4.446657e+01 
2.566220e+00 4.354105e+01 
2.600830e+00 4.265658e+01 
2.635080e+00 4.180954e+01 
2.670340e+00 4.095353e+01 
2.705970e+00 4.011669e+01 
2.740040e+00 3.934086e+01 
2.774520e+00 3.857566e+01 
2.809730e+00 3.781457e+01 
2.844390e+00 3.708579e+01 
2.879960e+00 3.635685e+01 
2.914860e+00 3.566003e+01 
2.949410e+00 3.498868e+01 
2.984440e+00 3.432436e+01 
3.019760e+00 3.367450e+01 
3.054730e+00 3.304957e+01 
3.089030e+00 3.244638e+01 
3.124060e+00 3.184792e+01 
3.159560e+00 3.125888e+01 
3.194710e+00 3.068644e+01 
3.229010e+00 3.014159e+01 
3.263320e+00 2.961153e+01 
3.297930e+00 2.909017e+01 
3.332830e+00 2.857645e+01 
3.368040e+00 2.807041e+01 
3.403300e+00 2.757597e+01 
3.438450e+00 2.709383e+01 
3.473060e+00 2.663088e+01 
3.508440e+00 2.617034e+01 
3.543110e+00 2.572984e+01 
3.577470e+00 2.529991e+01 
3.613040e+00 2.486613e+01 
3.648120e+00 2.444939e+01 
3.682910e+00 2.404560e+01 
3.718050e+00 2.364642e+01 
3.753320e+00 2.325478e+01 
3.787980e+00 2.287804e+01 
3.822290e+00 2.251413e+01 
3.857020e+00 2.215475e+01 
3.891920e+00 2.180068e+01 
3.926650e+00 2.145400e+01 
3.961970e+00 2.110981e+01 
3.997360e+00 2.077341e+01 
4.031670e+00 2.045443e+01 
4.066330e+00 2.013827e+01 
4.101420e+00 1.982539e+01 
4.136200e+00 1.952251e+01 
4.170810e+00 1.922773e+01 
4.206250e+00 1.893135e+01 
4.241580e+00 1.864221e+01 
4.276300e+00 1.836391e+01 
4.310970e+00 1.809179e+01 
4.346120e+00 1.782165e+01 
4.380600e+00 1.756203e+01 
4.414730e+00 1.731034e+01 
4.450350e+00 1.705266e+01 
4.485320e+00 1.680498e+01 
4.519810e+00 1.656552e+01 
4.555430e+00 1.632320e+01 
4.590870e+00 1.608703e+01 
4.625480e+00 1.586094e+01 
4.659910e+00 1.564049e+01 
4.695230e+00 1.541868e+01 
4.729960e+00 1.520488e+01 
4.764450e+00 1.499667e+01 
4.799530e+00 1.478897e+01 
4.834910e+00 1.458359e+01 
4.869700e+00 1.438549e+01 
4.904370e+00 1.419184e+01 
4.939450e+00 1.399961e+01 
4.973940e+00 1.381418e+01 
5.008430e+00 1.363219e+01 
5.043810e+00 1.344904e+01 
5.078840e+00 1.327113e+01 
5.113500e+00 1.309834e+01 
5.148890e+00 1.292516e+01 
5.184210e+00 1.275551e+01 
5.219060e+00 1.259120e+01 
5.253660e+00 1.243109e+01 
5.288570e+00 1.227242e+01 
5.323420e+00 1.211690e+01 
5.358440e+00 1.196346e+01 
5.393590e+00 1.181217e+01 
5.428310e+00 1.166544e+01 
5.462800e+00 1.152225e+01 
5.497640e+00 1.138008e+01 
5.532670e+00 1.123974e+01 
5.567280e+00 1.110350e+01 
5.602000e+00 1.096912e+01 
5.637270e+00 1.083505e+01 
5.672410e+00 1.070376e+01 
5.707020e+00 1.057660e+01 
5.742040e+00 1.045026e+01 
5.777430e+00 1.032475e+01 
5.812210e+00 1.020344e+01 
5.846820e+00 1.008478e+01 
5.881610e+00 9.967461e+00 
5.916510e+00 9.851659e+00 
5.951600e+00 9.737320e+00 
5.986560e+00 9.625325e+00 
6.021830e+00 9.514134e+00 
6.056490e+00 9.406704e+00 
6.091160e+00 9.301010e+00 
6.125830e+00 9.196951e+00 
6.161090e+00 9.092832e+00 
6.195760e+00 8.992185e+00 
6.230420e+00 8.893099e+00 
6.265690e+00 8.793820e+00 
6.300950e+00 8.696386e+00 
6.335620e+00 8.602030e+00 
6.370880e+00 8.507510e+00 
6.405550e+00 8.416096e+00 
6.440220e+00 8.326085e+00 
6.475480e+00 8.235897e+00 
6.510150e+00 8.148608e+00 
6.544810e+00 8.062800e+00 
6.580080e+00 7.976753e+00 
6.614750e+00 7.893398e+00 
6.649410e+00 7.811445e+00 
6.684080e+00 7.730673e+00 
6.719340e+00 7.649699e+00 
6.754010e+00 7.571282e+00 
6.788680e+00 7.494127e+00 
6.823940e+00 7.416762e+00 
6.859800e+00 7.339202e+00 
6.894470e+00 7.265421e+00 
6.929140e+00 7.192709e+00 
6.963800e+00 7.121013e+00 
6.999070e+00 7.049073e+00 
7.033730e+00 6.979583e+00 
7.068400e+00 6.911010e+00 
7.103660e+00 6.842214e+00 
7.138330e+00 6.775547e+00 
7.173600e+00 6.708771e+00 
7.208260e+00 6.644026e+00 
7.243530e+00 6.579017e+00 
7.277600e+00 6.517155e+00 
7.312860e+00 6.454069e+00 
7.348120e+00 6.391816e+00 
7.382790e+00 6.331403e+00 
7.417460e+00 6.271900e+00 
7.452720e+00 6.212235e+00 
7.487390e+00 6.154323e+00 
7.522650e+00 6.096181e+00 
7.557320e+00 6.039890e+00 
7.591990e+00 5.984363e+00 
7.627250e+00 5.928606e+00 
7.662510e+00 5.873556e+00 
7.697180e+00 5.820242e+00 
7.731850e+00 5.767639e+00 
7.766510e+00 5.715700e+00 
7.801180e+00 5.664382e+00 
7.836440e+00 5.612936e+00 
7.871110e+00 5.563035e+00 
7.906380e+00 5.512889e+00 
7.941040e+00 5.464211e+00 
7.976310e+00 5.415350e+00 
8.011570e+00 5.367186e+00 
8.046240e+00 5.320396e+00 
8.080900e+00 5.274175e+00 
8.115570e+00 5.228528e+00 
8.150830e+00 5.182813e+00 
8.185500e+00 5.138393e+00 
8.220770e+00 5.093735e+00 
8.255430e+00 5.050364e+00 
8.290100e+00 5.007603e+00 
8.324770e+00 4.965348e+00 
8.359430e+00 4.923590e+00 
8.394700e+00 4.881587e+00 
8.429960e+00 4.840162e+00 
8.464630e+00 4.799977e+00 
8.499890e+00 4.759574e+00 
8.534560e+00 4.720297e+00 
8.569200e+00 4.681493e+00 
