# Parameters:
# omega_b = 0.021768, omega_m = 0.121654, n_s = 0.968110, h = 75.787402, w = -1.000000, sigma_8 = 0.736220
# z = 0.700000
#
# k[1/Mpc] # P(k):
8.694000e-04 9.189299e+03 
2.077466e-03 1.931838e+04 
3.285532e-03 2.692683e+04 
4.493598e-03 3.248662e+04 
5.701664e-03 3.637392e+04 
6.909730e-03 3.890560e+04 
8.117797e-03 4.040682e+04 
9.325863e-03 4.104996e+04 
1.053393e-02 4.100026e+04 
1.174199e-02 4.040827e+04 
1.295006e-02 3.936899e+04 
1.415813e-02 3.800588e+04 
1.536619e-02 3.642188e+04 
1.657426e-02 3.468888e+04 
1.778233e-02 3.287208e+04 
1.899039e-02 3.104661e+04 
2.019846e-02 2.924907e+04 
2.140652e-02 2.752640e+04 
2.261459e-02 2.590396e+04 
2.382266e-02 2.440434e+04 
2.503072e-02 2.303862e+04 
2.623879e-02 2.180747e+04 
2.744685e-02 2.071042e+04 
2.865492e-02 1.973975e+04 
2.986299e-02 1.888490e+04 
3.100100e-02 1.818115e+04 
3.220400e-02 1.753020e+04 
3.288100e-02 1.720434e+04 
3.424300e-02 1.662083e+04 
3.555100e-02 1.613455e+04 
3.686000e-02 1.570755e+04 
3.795000e-02 1.538594e+04 
3.929100e-02 1.502214e+04 
4.039800e-02 1.473660e+04 
4.164000e-02 1.442464e+04 
4.294400e-02 1.409094e+04 
4.415000e-02 1.377861e+04 
4.542900e-02 1.342675e+04 
4.660900e-02 1.309214e+04 
4.782300e-02 1.272021e+04 
4.892900e-02 1.237071e+04 
5.031200e-02 1.191550e+04 
5.155900e-02 1.148931e+04 
5.238100e-02 1.120417e+04 
5.378200e-02 1.071538e+04 
5.513400e-02 1.024434e+04 
5.627600e-02 9.852687e+03 
5.735300e-02 9.493229e+03 
5.870100e-02 9.061186e+03 
5.988700e-02 8.701537e+03 
6.113500e-02 8.345997e+03 
6.225900e-02 8.048260e+03 
6.340100e-02 7.768984e+03 
6.480200e-02 7.456413e+03 
6.601100e-02 7.216438e+03 
6.725500e-02 6.996220e+03 
6.829100e-02 6.834903e+03 
6.958600e-02 6.654531e+03 
7.071100e-02 6.518327e+03 
7.192300e-02 6.389182e+03 
7.307400e-02 6.281401e+03 
7.412300e-02 6.193813e+03 
7.550400e-02 6.092104e+03 
7.663100e-02 6.016588e+03 
7.791200e-02 5.937625e+03 
7.912700e-02 5.865159e+03 
8.027600e-02 5.796618e+03 
8.138400e-02 5.729191e+03 
8.272200e-02 5.643951e+03 
8.406100e-02 5.553022e+03 
8.534100e-02 5.457426e+03 
8.653800e-02 5.360154e+03 
8.759800e-02 5.269691e+03 
8.900300e-02 5.142884e+03 
9.009000e-02 5.039222e+03 
9.113300e-02 4.935503e+03 
9.239600e-02 4.808241e+03 
9.358000e-02 4.686812e+03 
9.496100e-02 4.543816e+03 
9.608400e-02 4.429267e+03 
9.727500e-02 4.310197e+03 
9.852600e-02 4.188715e+03 
9.973800e-02 4.076167e+03 
1.009000e-01 3.972750e+03 
1.020900e-01 3.874795e+03 
1.034000e-01 3.773539e+03 
1.046000e-01 3.687012e+03 
1.057200e-01 3.614986e+03 
1.069100e-01 3.543056e+03 
1.082500e-01 3.471665e+03 
1.093900e-01 3.417113e+03 
1.105400e-01 3.366075e+03 
1.116900e-01 3.322028e+03 
1.129600e-01 3.276429e+03 
1.142000e-01 3.237186e+03 
1.153300e-01 3.203368e+03 
1.166400e-01 3.166788e+03 
1.177800e-01 3.135980e+03 
1.190000e-01 3.103919e+03 
1.201200e-01 3.073516e+03 
1.213400e-01 3.040885e+03 
1.227100e-01 3.000771e+03 
1.238900e-01 2.965954e+03 
1.250700e-01 2.928181e+03 
1.263200e-01 2.887521e+03 
1.275500e-01 2.844937e+03 
1.287500e-01 2.802661e+03 
1.299900e-01 2.757307e+03 
1.311300e-01 2.715314e+03 
1.323500e-01 2.669507e+03 
1.335900e-01 2.623324e+03 
1.347100e-01 2.581582e+03 
1.359800e-01 2.535181e+03 
1.372100e-01 2.490967e+03 
1.384300e-01 2.448325e+03 
1.395700e-01 2.409771e+03 
1.407700e-01 2.370224e+03 
1.420300e-01 2.330941e+03 
1.432800e-01 2.292881e+03 
1.444500e-01 2.259747e+03 
1.456300e-01 2.227038e+03 
1.468900e-01 2.194378e+03 
1.480500e-01 2.165393e+03 
1.491700e-01 2.138708e+03 
1.503800e-01 2.111406e+03 
1.516400e-01 2.083842e+03 
1.528200e-01 2.059772e+03 
1.540200e-01 2.035766e+03 
1.551900e-01 2.013659e+03 
1.564300e-01 1.990884e+03 
1.576600e-01 1.968994e+03 
1.588700e-01 1.948185e+03 
1.600900e-01 1.927600e+03 
1.612700e-01 1.908119e+03 
1.625400e-01 1.887542e+03 
1.637600e-01 1.867900e+03 
1.649500e-01 1.848942e+03 
1.662200e-01 1.828968e+03 
1.674000e-01 1.810127e+03 
1.685000e-01 1.792858e+03 
1.697500e-01 1.773110e+03 
1.710300e-01 1.752802e+03 
1.722200e-01 1.734262e+03 
1.734400e-01 1.714685e+03 
1.746400e-01 1.695730e+03 
1.758700e-01 1.676418e+03 
1.770900e-01 1.657145e+03 
1.782700e-01 1.638826e+03 
1.794600e-01 1.620426e+03 
1.807000e-01 1.601425e+03 
1.819100e-01 1.583206e+03 
1.830100e-01 1.566870e+03 
1.842200e-01 1.549185e+03 
1.855000e-01 1.530812e+03 
1.867000e-01 1.514108e+03 
1.879200e-01 1.497409e+03 
1.890900e-01 1.481723e+03 
1.902800e-01 1.466376e+03 
1.915200e-01 1.450645e+03 
1.926900e-01 1.436154e+03 
1.939000e-01 1.421778e+03 
1.951700e-01 1.406933e+03 
1.963100e-01 1.393933e+03 
1.975100e-01 1.380771e+03 
1.987800e-01 1.367060e+03 
2.000100e-01 1.354086e+03 
2.012500e-01 1.341436e+03 
2.023400e-01 1.330476e+03 
2.036100e-01 1.317928e+03 
2.048900e-01 1.305618e+03 
2.060400e-01 1.294721e+03 
2.072200e-01 1.283699e+03 
2.084200e-01 1.272672e+03 
2.096900e-01 1.261173e+03 
2.109200e-01 1.250201e+03 
2.121100e-01 1.239635e+03 
2.132700e-01 1.229471e+03 
2.145200e-01 1.218672e+03 
2.157200e-01 1.208353e+03 
2.168800e-01 1.198469e+03 
2.180700e-01 1.188466e+03 
2.193400e-01 1.177874e+03 
2.206000e-01 1.167393e+03 
2.217500e-01 1.157958e+03 
2.229500e-01 1.148244e+03 
2.241400e-01 1.138590e+03 
2.253500e-01 1.128902e+03 
2.264900e-01 1.119894e+03 
2.277100e-01 1.110326e+03 
2.289900e-01 1.100366e+03 
2.301500e-01 1.091461e+03 
2.313600e-01 1.082293e+03 
2.325600e-01 1.073262e+03 
2.337700e-01 1.064275e+03 
2.350000e-01 1.055260e+03 
2.362000e-01 1.046574e+03 
2.374100e-01 1.037923e+03 
2.386500e-01 1.029172e+03 
2.399100e-01 1.020398e+03 
2.410400e-01 1.012668e+03 
2.422500e-01 1.004497e+03 
2.435000e-01 9.961644e+02 
2.447300e-01 9.880849e+02 
2.458700e-01 9.807450e+02 
2.470600e-01 9.731748e+02 
2.483300e-01 9.651973e+02 
2.495600e-01 9.576099e+02 
2.507600e-01 9.503541e+02 
2.519600e-01 9.431857e+02 
2.532200e-01 9.357513e+02 
2.543700e-01 9.291073e+02 
2.555500e-01 9.224093e+02 
2.568000e-01 9.153985e+02 
2.580100e-01 9.086936e+02 
2.592400e-01 9.020268e+02 
2.604100e-01 8.957885e+02 
2.616100e-01 8.894631e+02 
2.628400e-01 8.830548e+02 
2.640600e-01 8.768324e+02 
2.652200e-01 8.710061e+02 
2.664300e-01 8.649964e+02 
2.676500e-01 8.590059e+02 
2.688400e-01 8.532668e+02 
2.700700e-01 8.474252e+02 
2.712400e-01 8.419300e+02 
2.724800e-01 8.361704e+02 
2.736700e-01 8.307223e+02 
2.748800e-01 8.252613e+02 
2.761000e-01 8.198157e+02 
2.773200e-01 8.144299e+02 
2.785400e-01 8.091094e+02 
2.797000e-01 8.041177e+02 
2.808900e-01 7.990504e+02 
2.821400e-01 7.937850e+02 
2.833900e-01 7.885776e+02 
2.845500e-01 7.838010e+02 
2.857800e-01 7.787889e+02 
2.870300e-01 7.737501e+02 
2.882100e-01 7.690436e+02 
2.893900e-01 7.643875e+02 
2.906300e-01 7.595469e+02 
2.918900e-01 7.546807e+02 
2.930500e-01 7.502468e+02 
2.942500e-01 7.457048e+02 
2.954200e-01 7.413169e+02 
2.966500e-01 7.367505e+02 
2.978900e-01 7.321946e+02 
2.990400e-01 7.280114e+02 
3.002700e-01 7.235831e+02 
3.015100e-01 7.191651e+02 
3.026800e-01 7.150379e+02 
3.038500e-01 7.109503e+02 
3.050300e-01 7.068674e+02 
3.062600e-01 7.026556e+02 
3.075000e-01 6.984520e+02 
3.087000e-01 6.944240e+02 
3.099100e-01 6.904019e+02 
3.111200e-01 6.864225e+02 
3.123100e-01 6.825526e+02 
3.135300e-01 6.786232e+02 
3.147300e-01 6.747952e+02 
3.159900e-01 6.708148e+02 
3.171800e-01 6.670978e+02 
3.183700e-01 6.634195e+02 
3.196300e-01 6.595619e+02 
3.208400e-01 6.558928e+02 
3.220300e-01 6.523179e+02 
3.232000e-01 6.488479e+02 
3.244300e-01 6.452385e+02 
3.256700e-01 6.416341e+02 
3.269200e-01 6.380350e+02 
3.280800e-01 6.347256e+02 
3.292500e-01 6.314303e+02 
3.304800e-01 6.280014e+02 
3.317100e-01 6.246041e+02 
3.328900e-01 6.213743e+02 
3.340700e-01 6.181728e+02 
3.353600e-01 6.147211e+02 
3.365300e-01 6.116251e+02 
3.377100e-01 6.085295e+02 
3.389200e-01 6.053830e+02 
3.401600e-01 6.021874e+02 
3.413700e-01 5.991084e+02 
3.425300e-01 5.961899e+02 
3.437700e-01 5.930972e+02 
3.449800e-01 5.901059e+02 
3.461800e-01 5.871649e+02 
3.473600e-01 5.843042e+02 
3.485800e-01 5.813879e+02 
3.498100e-01 5.784732e+02 
3.510200e-01 5.756306e+02 
3.522000e-01 5.728818e+02 
3.533900e-01 5.701326e+02 
3.546400e-01 5.672877e+02 
3.558400e-01 5.645808e+02 
3.570600e-01 5.618519e+02 
3.582700e-01 5.591681e+02 
3.595000e-01 5.564628e+02 
3.607100e-01 5.538335e+02 
3.618900e-01 5.512979e+02 
3.631200e-01 5.486765e+02 
3.643200e-01 5.461401e+02 
3.655500e-01 5.435616e+02 
3.667300e-01 5.411081e+02 
3.679500e-01 5.386076e+02 
3.691900e-01 5.360871e+02 
3.703600e-01 5.337280e+02 
3.715700e-01 5.313075e+02 
3.727700e-01 5.289261e+02 
3.739900e-01 5.265304e+02 
3.752000e-01 5.241844e+02 
3.763900e-01 5.218953e+02 
3.775800e-01 5.196240e+02 
3.788200e-01 5.172759e+02 
3.800300e-01 5.150029e+02 
3.812100e-01 5.128088e+02 
3.824200e-01 5.105800e+02 
3.836100e-01 5.084049e+02 
3.848600e-01 5.061379e+02 
3.860400e-01 5.040145e+02 
3.872400e-01 5.018715e+02 
3.884600e-01 4.997188e+02 
3.896500e-01 4.976386e+02 
3.908700e-01 4.955222e+02 
3.920600e-01 4.934734e+02 
3.933100e-01 4.913378e+02 
3.945300e-01 4.892694e+02 
3.957200e-01 4.872740e+02 
3.969300e-01 4.852622e+02 
3.981700e-01 4.832160e+02 
3.993500e-01 4.812834e+02 
4.094840e-01 4.652617e+02 
4.272360e-01 4.395980e+02 
4.454600e-01 4.158906e+02 
4.630560e-01 3.951744e+02 
4.804610e-01 3.764930e+02 
4.980690e-01 3.591907e+02 
5.159230e-01 3.430941e+02 
5.317440e-01 3.299125e+02 
5.489640e-01 3.166127e+02 
5.671990e-01 3.036114e+02 
5.838690e-01 2.925888e+02 
6.018840e-01 2.815295e+02 
6.202330e-01 2.710969e+02 
6.379250e-01 2.617325e+02 
6.545410e-01 2.535360e+02 
6.714560e-01 2.457039e+02 
6.892080e-01 2.380165e+02 
7.066010e-01 2.309551e+02 
7.240540e-01 2.242884e+02 
7.420450e-01 2.178385e+02 
7.593780e-01 2.119814e+02 
7.764720e-01 2.065157e+02 
7.942840e-01 2.011290e+02 
8.116170e-01 1.961636e+02 
8.288310e-01 1.914804e+02 
8.462240e-01 1.869750e+02 
8.631980e-01 1.827814e+02 
8.810700e-01 1.785686e+02 
8.989410e-01 1.745480e+02 
9.166330e-01 1.707397e+02 
9.345640e-01 1.670435e+02 
9.515980e-01 1.636726e+02 
9.688720e-01 1.603851e+02 
9.865640e-01 1.571459e+02 
1.031870e+00 1.493825e+02 
1.063490e+00 1.443535e+02 
1.097920e+00 1.392396e+02 
1.134370e+00 1.341318e+02 
1.167730e+00 1.297414e+02 
1.203830e+00 1.252497e+02 
1.240470e+00 1.209573e+02 
1.275790e+00 1.170243e+02 
1.309140e+00 1.135071e+02 
1.342970e+00 1.100883e+02 
1.378420e+00 1.066907e+02 
1.413200e+00 1.035094e+02 
1.448110e+00 1.004506e+02 
1.484090e+00 9.745259e+01 
1.518820e+00 9.467131e+01 
1.552880e+00 9.206680e+01 
1.588630e+00 8.943626e+01 
1.623230e+00 8.700423e+01 
1.657720e+00 8.467413e+01 
1.692450e+00 8.243347e+01 
1.726400e+00 8.030671e+01 
1.762200e+00 7.814939e+01 
1.797880e+00 7.609089e+01 
1.833270e+00 7.411702e+01 
1.869070e+00 7.220367e+01 
1.903200e+00 7.044386e+01 
1.937740e+00 6.872395e+01 
1.973190e+00 6.701923e+01 
2.007440e+00 6.543118e+01 
2.042160e+00 6.388143e+01 
2.077900e+00 6.233067e+01 
2.112390e+00 6.089383e+01 
2.146220e+00 5.951679e+01 
2.181600e+00 5.813204e+01 
2.216930e+00 5.679492e+01 
2.250760e+00 5.554928e+01 
2.286500e+00 5.427350e+01 
2.321770e+00 5.306149e+01 
2.355950e+00 5.192914e+01 
2.391280e+00 5.078473e+01 
2.426240e+00 4.968581e+01 
2.460670e+00 4.863575e+01 
2.495640e+00 4.760137e+01 
2.531080e+00 4.658915e+01 
2.566220e+00 4.560891e+01 
2.600830e+00 4.467263e+01 
2.635080e+00 4.377629e+01 
2.670340e+00 4.287096e+01 
2.705970e+00 4.198633e+01 
2.740040e+00 4.116647e+01 
2.774520e+00 4.035804e+01 
2.809730e+00 3.955440e+01 
2.844390e+00 3.878519e+01 
2.879960e+00 3.801623e+01 
2.914860e+00 3.728142e+01 
2.949410e+00 3.657368e+01 
2.984440e+00 3.587366e+01 
3.019760e+00 3.518911e+01 
3.054730e+00 3.453098e+01 
3.089030e+00 3.389606e+01 
3.124060e+00 3.326629e+01 
3.159560e+00 3.264665e+01 
3.194710e+00 3.204470e+01 
3.229010e+00 3.147185e+01 
3.263320e+00 3.091482e+01 
3.297930e+00 3.036702e+01 
3.332830e+00 2.982742e+01 
3.368040e+00 2.929600e+01 
3.403300e+00 2.877685e+01 
3.438450e+00 2.827082e+01 
3.473060e+00 2.778501e+01 
3.508440e+00 2.730188e+01 
3.543110e+00 2.683982e+01 
3.577470e+00 2.638899e+01 
3.613040e+00 2.593419e+01 
3.648120e+00 2.549737e+01 
3.682910e+00 2.507420e+01 
3.718050e+00 2.465598e+01 
3.753320e+00 2.424571e+01 
3.787980e+00 2.385111e+01 
3.822290e+00 2.347002e+01 
3.857020e+00 2.309375e+01 
3.891920e+00 2.272308e+01 
3.926650e+00 2.236022e+01 
3.961970e+00 2.200000e+01 
3.997360e+00 2.164801e+01 
4.031670e+00 2.131427e+01 
4.066330e+00 2.098356e+01 
4.101420e+00 2.065628e+01 
4.136200e+00 2.033949e+01 
4.170810e+00 2.003119e+01 
4.206250e+00 1.972131e+01 
4.241580e+00 1.941901e+01 
4.276300e+00 1.912810e+01 
4.310970e+00 1.884367e+01 
4.346120e+00 1.856133e+01 
4.380600e+00 1.829002e+01 
4.414730e+00 1.802701e+01 
4.450350e+00 1.775776e+01 
4.485320e+00 1.749897e+01 
4.519810e+00 1.724880e+01 
4.555430e+00 1.699567e+01 
4.590870e+00 1.674898e+01 
4.625480e+00 1.651285e+01 
4.659910e+00 1.628260e+01 
4.695230e+00 1.605096e+01 
4.729960e+00 1.582769e+01 
4.764450e+00 1.561026e+01 
4.799530e+00 1.539339e+01 
4.834910e+00 1.517895e+01 
4.869700e+00 1.497213e+01 
4.904370e+00 1.476995e+01 
4.939450e+00 1.456927e+01 
4.973940e+00 1.437569e+01 
5.008430e+00 1.418570e+01 
5.043810e+00 1.399452e+01 
5.078840e+00 1.380883e+01 
5.113500e+00 1.362847e+01 
5.148890e+00 1.344774e+01 
5.184210e+00 1.327069e+01 
5.219060e+00 1.309921e+01 
5.253660e+00 1.293212e+01 
5.288570e+00 1.276653e+01 
5.323420e+00 1.260423e+01 
5.358440e+00 1.244410e+01 
5.393590e+00 1.228621e+01 
5.428310e+00 1.213310e+01 
5.462800e+00 1.198368e+01 
5.497640e+00 1.183533e+01 
5.532670e+00 1.168890e+01 
5.567280e+00 1.154674e+01 
5.602000e+00 1.140654e+01 
5.637270e+00 1.126665e+01 
5.672410e+00 1.112967e+01 
5.707020e+00 1.099701e+01 
5.742040e+00 1.086520e+01 
5.777430e+00 1.073426e+01 
5.812210e+00 1.060769e+01 
5.846820e+00 1.048390e+01 
5.881610e+00 1.036150e+01 
5.916510e+00 1.024068e+01 
5.951600e+00 1.012139e+01 
5.986560e+00 1.000454e+01 
6.021830e+00 9.888533e+00 
6.056490e+00 9.776458e+00 
6.091160e+00 9.666203e+00 
6.125830e+00 9.557656e+00 
6.161090e+00 9.449043e+00 
6.195760e+00 9.344043e+00 
6.230420e+00 9.240672e+00 
6.265690e+00 9.137104e+00 
6.300950e+00 9.035456e+00 
6.335620e+00 8.937022e+00 
6.370880e+00 8.838419e+00 
6.405550e+00 8.743063e+00 
6.440220e+00 8.649174e+00 
6.475480e+00 8.555104e+00 
6.510150e+00 8.464055e+00 
6.544810e+00 8.374545e+00 
6.580080e+00 8.284789e+00 
6.614750e+00 8.197842e+00 
6.649410e+00 8.112355e+00 
6.684080e+00 8.028100e+00 
6.719340e+00 7.943638e+00 
6.754010e+00 7.861842e+00 
6.788680e+00 7.781362e+00 
6.823940e+00 7.700666e+00 
6.859800e+00 7.619768e+00 
6.894470e+00 7.542812e+00 
6.929140e+00 7.466973e+00 
6.963800e+00 7.392195e+00 
6.999070e+00 7.317166e+00 
7.033730e+00 7.244691e+00 
7.068400e+00 7.173175e+00 
7.103660e+00 7.101428e+00 
7.138330e+00 7.031901e+00 
7.173600e+00 6.962256e+00 
7.208260e+00 6.894732e+00 
7.243530e+00 6.826935e+00 
7.277600e+00 6.762418e+00 
7.312860e+00 6.696623e+00 
7.348120e+00 6.631700e+00 
7.382790e+00 6.568698e+00 
7.417460e+00 6.506650e+00 
7.452720e+00 6.444437e+00 
7.487390e+00 6.384054e+00 
7.522650e+00 6.323432e+00 
7.557320e+00 6.264735e+00 
7.591990e+00 6.206833e+00 
7.627250e+00 6.148692e+00 
7.662510e+00 6.091291e+00 
7.697180e+00 6.035702e+00 
7.731850e+00 5.980858e+00 
7.766510e+00 5.926706e+00 
7.801180e+00 5.873205e+00 
7.836440e+00 5.819567e+00 
7.871110e+00 5.767539e+00 
7.906380e+00 5.715259e+00 
7.941040e+00 5.664509e+00 
7.976310e+00 5.613573e+00 
8.011570e+00 5.563369e+00 
8.046240e+00 5.514599e+00 
8.080900e+00 5.466423e+00 
8.115570e+00 5.418845e+00 
8.150830e+00 5.371191e+00 
8.185500e+00 5.324889e+00 
8.220770e+00 5.278340e+00 
8.255430e+00 5.233134e+00 
8.290100e+00 5.188570e+00 
8.324770e+00 5.144536e+00 
8.359430e+00 5.101020e+00 
8.394700e+00 5.057251e+00 
8.429960e+00 5.014082e+00 
8.464630e+00 4.972203e+00 
8.499890e+00 4.930098e+00 
8.534560e+00 4.889168e+00 
8.569200e+00 4.848732e+00 
