# Parameters:
# omega_b = 0.021516, omega_m = 0.136535, n_s = 0.889370, h = 83.110236, w = -1.000000, sigma_8 = 0.783465
# z = 0.700000
#
# k[1/Mpc] # P(k):
8.694000e-04 9.566129e+03 
2.077466e-03 1.901394e+04 
3.285532e-03 2.592696e+04 
4.493598e-03 3.094769e+04 
5.701664e-03 3.446450e+04 
6.909730e-03 3.678140e+04 
8.117797e-03 3.819432e+04 
9.325863e-03 3.885821e+04 
1.053393e-02 3.891701e+04 
1.174199e-02 3.849899e+04 
1.295006e-02 3.768554e+04 
1.415813e-02 3.658136e+04 
1.536619e-02 3.527033e+04 
1.657426e-02 3.380014e+04 
1.778233e-02 3.215446e+04 
1.899039e-02 3.034574e+04 
2.019846e-02 2.853882e+04 
2.140652e-02 2.686629e+04 
2.261459e-02 2.531558e+04 
2.382266e-02 2.387708e+04 
2.503072e-02 2.255651e+04 
2.623879e-02 2.135557e+04 
2.744685e-02 2.027415e+04 
2.865492e-02 1.930857e+04 
2.986299e-02 1.845079e+04 
3.100100e-02 1.773840e+04 
3.220400e-02 1.707512e+04 
3.288100e-02 1.674168e+04 
3.424300e-02 1.614394e+04 
3.555100e-02 1.564738e+04 
3.686000e-02 1.521528e+04 
3.795000e-02 1.489420e+04 
3.929100e-02 1.453934e+04 
4.039800e-02 1.426752e+04 
4.164000e-02 1.397666e+04 
4.294400e-02 1.367352e+04 
4.415000e-02 1.339300e+04 
4.542900e-02 1.307935e+04 
4.660900e-02 1.278080e+04 
4.782300e-02 1.244633e+04 
4.892900e-02 1.212914e+04 
5.031200e-02 1.171072e+04 
5.155900e-02 1.131289e+04 
5.238100e-02 1.104363e+04 
5.378200e-02 1.057682e+04 
5.513400e-02 1.012056e+04 
5.627600e-02 9.736822e+03 
5.735300e-02 9.381649e+03 
5.870100e-02 8.951330e+03 
5.988700e-02 8.590747e+03 
6.113500e-02 8.232305e+03 
6.225900e-02 7.930664e+03 
6.340100e-02 7.646633e+03 
6.480200e-02 7.327736e+03 
6.601100e-02 7.081876e+03 
6.725500e-02 6.855433e+03 
6.829100e-02 6.688760e+03 
6.958600e-02 6.501696e+03 
7.071100e-02 6.359595e+03 
7.192300e-02 6.224090e+03 
7.307400e-02 6.110324e+03 
7.412300e-02 6.017414e+03 
7.550400e-02 5.909092e+03 
7.663100e-02 5.828652e+03 
7.791200e-02 5.745129e+03 
7.912700e-02 5.669814e+03 
8.027600e-02 5.600040e+03 
8.138400e-02 5.532871e+03 
8.272200e-02 5.450189e+03 
8.406100e-02 5.364384e+03 
8.534100e-02 5.276734e+03 
8.653800e-02 5.189271e+03 
8.759800e-02 5.108734e+03 
8.900300e-02 4.996771e+03 
9.009000e-02 4.905649e+03 
9.113300e-02 4.814362e+03 
9.239600e-02 4.701975e+03 
9.358000e-02 4.594006e+03 
9.496100e-02 4.465130e+03 
9.608400e-02 4.360589e+03 
9.727500e-02 4.250818e+03 
9.852600e-02 4.135792e+03 
9.973800e-02 4.027707e+03 
1.009000e-01 3.927139e+03 
1.020900e-01 3.828794e+03 
1.034000e-01 3.725770e+03 
1.046000e-01 3.636293e+03 
1.057200e-01 3.559658e+03 
1.069100e-01 3.482449e+03 
1.082500e-01 3.403920e+03 
1.093900e-01 3.343065e+03 
1.105400e-01 3.285607e+03 
1.116900e-01 3.235326e+03 
1.129600e-01 3.183180e+03 
1.142000e-01 3.138394e+03 
1.153300e-01 3.100208e+03 
1.166400e-01 3.059549e+03 
1.177800e-01 3.026500e+03 
1.190000e-01 2.992665e+03 
1.201200e-01 2.962435e+03 
1.213400e-01 2.930304e+03 
1.227100e-01 2.893265e+03 
1.238900e-01 2.861502e+03 
1.250700e-01 2.828199e+03 
1.263200e-01 2.792601e+03 
1.275500e-01 2.755852e+03 
1.287500e-01 2.719383e+03 
1.299900e-01 2.680281e+03 
1.311300e-01 2.643816e+03 
1.323500e-01 2.603669e+03 
1.335900e-01 2.562705e+03 
1.347100e-01 2.525067e+03 
1.359800e-01 2.482719e+03 
1.372100e-01 2.441389e+03 
1.384300e-01 2.401080e+03 
1.395700e-01 2.363593e+03 
1.407700e-01 2.325004e+03 
1.420300e-01 2.285301e+03 
1.432800e-01 2.246846e+03 
1.444500e-01 2.212232e+03 
1.456300e-01 2.178079e+03 
1.468900e-01 2.143450e+03 
1.480500e-01 2.112566e+03 
1.491700e-01 2.084045e+03 
1.503800e-01 2.054745e+03 
1.516400e-01 2.025223e+03 
1.528200e-01 1.999640e+03 
1.540200e-01 1.974135e+03 
1.551900e-01 1.951102e+03 
1.564300e-01 1.927490e+03 
1.576600e-01 1.905124e+03 
1.588700e-01 1.884261e+03 
1.600900e-01 1.863660e+03 
1.612700e-01 1.844838e+03 
1.625400e-01 1.824957e+03 
1.637600e-01 1.806298e+03 
1.649500e-01 1.788472e+03 
1.662200e-01 1.769730e+03 
1.674000e-01 1.752269e+03 
1.685000e-01 1.736263e+03 
1.697500e-01 1.717959e+03 
1.710300e-01 1.699133e+03 
1.722200e-01 1.681943e+03 
1.734400e-01 1.663612e+03 
1.746400e-01 1.645853e+03 
1.758700e-01 1.627666e+03 
1.770900e-01 1.609331e+03 
1.782700e-01 1.591901e+03 
1.794600e-01 1.574223e+03 
1.807000e-01 1.555853e+03 
1.819100e-01 1.538239e+03 
1.830100e-01 1.522247e+03 
1.842200e-01 1.504900e+03 
1.855000e-01 1.486872e+03 
1.867000e-01 1.470304e+03 
1.879200e-01 1.453742e+03 
1.890900e-01 1.438168e+03 
1.902800e-01 1.422839e+03 
1.915200e-01 1.407127e+03 
1.926900e-01 1.392646e+03 
1.939000e-01 1.378245e+03 
1.951700e-01 1.363376e+03 
1.963100e-01 1.350359e+03 
1.975100e-01 1.337186e+03 
1.987800e-01 1.323465e+03 
2.000100e-01 1.310499e+03 
2.012500e-01 1.297890e+03 
2.023400e-01 1.286968e+03 
2.036100e-01 1.274480e+03 
2.048900e-01 1.262295e+03 
2.060400e-01 1.251509e+03 
2.072200e-01 1.240607e+03 
2.084200e-01 1.229788e+03 
2.096900e-01 1.218508e+03 
2.109200e-01 1.207745e+03 
2.121100e-01 1.197486e+03 
2.132700e-01 1.187625e+03 
2.145200e-01 1.177147e+03 
2.157200e-01 1.167228e+03 
2.168800e-01 1.157767e+03 
2.180700e-01 1.148192e+03 
2.193400e-01 1.138114e+03 
2.206000e-01 1.128252e+03 
2.217500e-01 1.119373e+03 
2.229500e-01 1.110230e+03 
2.241400e-01 1.101337e+03 
2.253500e-01 1.092416e+03 
2.264900e-01 1.084120e+03 
2.277100e-01 1.075416e+03 
2.289900e-01 1.066477e+03 
2.301500e-01 1.058482e+03 
2.313600e-01 1.050250e+03 
2.325600e-01 1.042374e+03 
2.337700e-01 1.034534e+03 
2.350000e-01 1.026667e+03 
2.362000e-01 1.019182e+03 
2.374100e-01 1.011838e+03 
2.386500e-01 1.004408e+03 
2.399100e-01 9.969554e+02 
2.410400e-01 9.905177e+02 
2.422500e-01 9.837270e+02 
2.435000e-01 9.767991e+02 
2.447300e-01 9.700934e+02 
2.458700e-01 9.640575e+02 
2.470600e-01 9.578298e+02 
2.483300e-01 9.512643e+02 
2.495600e-01 9.450105e+02 
2.507600e-01 9.390184e+02 
2.519600e-01 9.330963e+02 
2.532200e-01 9.269523e+02 
2.543700e-01 9.214015e+02 
2.555500e-01 9.157639e+02 
2.568000e-01 9.098612e+02 
2.580100e-01 9.042143e+02 
2.592400e-01 8.984890e+02 
2.604100e-01 8.930820e+02 
2.616100e-01 8.875981e+02 
2.628400e-01 8.820410e+02 
2.640600e-01 8.765142e+02 
2.652200e-01 8.712865e+02 
2.664300e-01 8.658931e+02 
2.676500e-01 8.605160e+02 
2.688400e-01 8.552588e+02 
2.700700e-01 8.498412e+02 
2.712400e-01 8.447442e+02 
2.724800e-01 8.394011e+02 
2.736700e-01 8.342762e+02 
2.748800e-01 8.290665e+02 
2.761000e-01 8.238709e+02 
2.773200e-01 8.187319e+02 
2.785400e-01 8.136217e+02 
2.797000e-01 8.087582e+02 
2.808900e-01 8.038206e+02 
2.821400e-01 7.986896e+02 
2.833900e-01 7.936122e+02 
2.845500e-01 7.888915e+02 
2.857800e-01 7.839380e+02 
2.870300e-01 7.789579e+02 
2.882100e-01 7.743060e+02 
2.893900e-01 7.696779e+02 
2.906300e-01 7.648522e+02 
2.918900e-01 7.600010e+02 
2.930500e-01 7.555807e+02 
2.942500e-01 7.510474e+02 
2.954200e-01 7.466519e+02 
2.966500e-01 7.420775e+02 
2.978900e-01 7.375135e+02 
2.990400e-01 7.333229e+02 
3.002700e-01 7.288795e+02 
3.015100e-01 7.244429e+02 
3.026800e-01 7.202983e+02 
3.038500e-01 7.161934e+02 
3.050300e-01 7.120932e+02 
3.062600e-01 7.078587e+02 
3.075000e-01 7.036325e+02 
3.087000e-01 6.995829e+02 
3.099100e-01 6.955391e+02 
3.111200e-01 6.915375e+02 
3.123100e-01 6.876448e+02 
3.135300e-01 6.836921e+02 
3.147300e-01 6.798415e+02 
3.159900e-01 6.758375e+02 
3.171800e-01 6.720979e+02 
3.183700e-01 6.683968e+02 
3.196300e-01 6.645154e+02 
3.208400e-01 6.608237e+02 
3.220300e-01 6.572267e+02 
3.232000e-01 6.537348e+02 
3.244300e-01 6.501026e+02 
3.256700e-01 6.464754e+02 
3.269200e-01 6.428535e+02 
3.280800e-01 6.395231e+02 
3.292500e-01 6.362068e+02 
3.304800e-01 6.327559e+02 
3.317100e-01 6.293368e+02 
3.328900e-01 6.260862e+02 
3.340700e-01 6.228642e+02 
3.353600e-01 6.193901e+02 
3.365300e-01 6.162740e+02 
3.377100e-01 6.131583e+02 
3.389200e-01 6.099914e+02 
3.401600e-01 6.067750e+02 
3.413700e-01 6.036759e+02 
3.425300e-01 6.007384e+02 
3.437700e-01 5.976255e+02 
3.449800e-01 5.946146e+02 
3.461800e-01 5.916545e+02 
3.473600e-01 5.887750e+02 
3.485800e-01 5.858396e+02 
3.498100e-01 5.829059e+02 
3.510200e-01 5.800447e+02 
3.522000e-01 5.772778e+02 
3.533900e-01 5.745107e+02 
3.546400e-01 5.716471e+02 
3.558400e-01 5.689226e+02 
3.570600e-01 5.661758e+02 
3.582700e-01 5.634744e+02 
3.595000e-01 5.607514e+02 
3.607100e-01 5.581049e+02 
3.618900e-01 5.555528e+02 
3.631200e-01 5.529143e+02 
3.643200e-01 5.503614e+02 
3.655500e-01 5.477661e+02 
3.667300e-01 5.452966e+02 
3.679500e-01 5.427799e+02 
3.691900e-01 5.402430e+02 
3.703600e-01 5.378686e+02 
3.715700e-01 5.354324e+02 
3.727700e-01 5.330355e+02 
3.739900e-01 5.306244e+02 
3.752000e-01 5.282633e+02 
3.763900e-01 5.259594e+02 
3.775800e-01 5.236735e+02 
3.788200e-01 5.213103e+02 
3.800300e-01 5.190226e+02 
3.812100e-01 5.168144e+02 
3.824200e-01 5.145713e+02 
3.836100e-01 5.123823e+02 
3.848600e-01 5.101008e+02 
3.860400e-01 5.079639e+02 
3.872400e-01 5.058071e+02 
3.884600e-01 5.036407e+02 
3.896500e-01 5.015473e+02 
3.908700e-01 4.994174e+02 
3.920600e-01 4.973555e+02 
3.933100e-01 4.952063e+02 
3.945300e-01 4.931248e+02 
3.957200e-01 4.911167e+02 
3.969300e-01 4.890921e+02 
3.981700e-01 4.870330e+02 
3.993500e-01 4.850881e+02 
4.094840e-01 4.689647e+02 
4.272360e-01 4.431378e+02 
4.454600e-01 4.192773e+02 
4.630560e-01 3.984244e+02 
4.804610e-01 3.796169e+02 
4.980690e-01 3.621955e+02 
5.159230e-01 3.459866e+02 
5.317440e-01 3.327124e+02 
5.489640e-01 3.193189e+02 
5.671990e-01 3.062267e+02 
5.838690e-01 2.951273e+02 
6.018840e-01 2.839918e+02 
6.202330e-01 2.734882e+02 
6.379250e-01 2.640604e+02 
6.545410e-01 2.558092e+02 
6.714560e-01 2.479248e+02 
6.892080e-01 2.401863e+02 
7.066010e-01 2.330778e+02 
7.240540e-01 2.263663e+02 
7.420450e-01 2.198728e+02 
7.593780e-01 2.139754e+02 
7.764720e-01 2.084714e+02 
7.942840e-01 2.030464e+02 
8.116170e-01 1.980447e+02 
8.288310e-01 1.933265e+02 
8.462240e-01 1.887864e+02 
8.631980e-01 1.845597e+02 
8.810700e-01 1.803128e+02 
8.989410e-01 1.762587e+02 
9.166330e-01 1.724178e+02 
9.345640e-01 1.686891e+02 
9.515980e-01 1.652877e+02 
9.688720e-01 1.619697e+02 
9.865640e-01 1.586996e+02 
1.031870e+00 1.508595e+02 
1.063490e+00 1.457784e+02 
1.097920e+00 1.406096e+02 
1.134370e+00 1.354453e+02 
1.167730e+00 1.310049e+02 
1.203830e+00 1.264608e+02 
1.240470e+00 1.221174e+02 
1.275790e+00 1.181367e+02 
1.309140e+00 1.145764e+02 
1.342970e+00 1.111151e+02 
1.378420e+00 1.076749e+02 
1.413200e+00 1.044535e+02 
1.448110e+00 1.013560e+02 
1.484090e+00 9.831983e+01 
1.518820e+00 9.550317e+01 
1.552880e+00 9.286543e+01 
1.588630e+00 9.020142e+01 
1.623230e+00 8.773850e+01 
1.657720e+00 8.537885e+01 
1.692450e+00 8.310984e+01 
1.726400e+00 8.095634e+01 
1.762200e+00 7.877206e+01 
1.797880e+00 7.668792e+01 
1.833270e+00 7.468966e+01 
1.869070e+00 7.275280e+01 
1.903200e+00 7.097153e+01 
1.937740e+00 6.923079e+01 
1.973190e+00 6.750560e+01 
2.007440e+00 6.589865e+01 
2.042160e+00 6.433057e+01 
2.077900e+00 6.276169e+01 
2.112390e+00 6.130815e+01 
2.146220e+00 5.991533e+01 
2.181600e+00 5.851481e+01 
2.216930e+00 5.716264e+01 
2.250760e+00 5.590313e+01 
2.286500e+00 5.461329e+01 
2.321770e+00 5.338803e+01 
2.355950e+00 5.224341e+01 
2.391280e+00 5.108678e+01 
2.426240e+00 4.997627e+01 
2.460670e+00 4.891524e+01 
2.495640e+00 4.787017e+01 
2.531080e+00 4.684761e+01 
2.566220e+00 4.585749e+01 
2.600830e+00 4.491188e+01 
2.635080e+00 4.400668e+01 
2.670340e+00 4.309256e+01 
2.705970e+00 4.219944e+01 
2.740040e+00 4.137179e+01 
2.774520e+00 4.055576e+01 
2.809730e+00 3.974468e+01 
2.844390e+00 3.896842e+01 
2.879960e+00 3.819252e+01 
2.914860e+00 3.745117e+01 
2.949410e+00 3.673719e+01 
2.984440e+00 3.603111e+01 
3.019760e+00 3.534069e+01 
3.054730e+00 3.467696e+01 
3.089030e+00 3.403677e+01 
3.124060e+00 3.340181e+01 
3.159560e+00 3.277713e+01 
3.194710e+00 3.217037e+01 
3.229010e+00 3.159299e+01 
3.263320e+00 3.103163e+01 
3.297930e+00 3.047961e+01 
3.332830e+00 2.993591e+01 
3.368040e+00 2.940052e+01 
3.403300e+00 2.887754e+01 
3.438450e+00 2.836785e+01 
3.473060e+00 2.787855e+01 
3.508440e+00 2.739201e+01 
3.543110e+00 2.692672e+01 
3.577470e+00 2.647281e+01 
3.613040e+00 2.601493e+01 
3.648120e+00 2.557521e+01 
3.682910e+00 2.514925e+01 
3.718050e+00 2.472833e+01 
3.753320e+00 2.431544e+01 
3.787980e+00 2.391836e+01 
3.822290e+00 2.353491e+01 
3.857020e+00 2.315634e+01 
3.891920e+00 2.278344e+01 
3.926650e+00 2.241843e+01 
3.961970e+00 2.205611e+01 
3.997360e+00 2.170210e+01 
4.031670e+00 2.136647e+01 
4.066330e+00 2.103392e+01 
4.101420e+00 2.070483e+01 
4.136200e+00 2.038634e+01 
4.170810e+00 2.007638e+01 
4.206250e+00 1.976488e+01 
4.241580e+00 1.946101e+01 
4.276300e+00 1.916863e+01 
4.310970e+00 1.888276e+01 
4.346120e+00 1.859903e+01 
4.380600e+00 1.832640e+01 
4.414730e+00 1.806212e+01 
4.450350e+00 1.779161e+01 
4.485320e+00 1.753161e+01 
4.519810e+00 1.728030e+01 
4.555430e+00 1.702603e+01 
4.590870e+00 1.677824e+01 
4.625480e+00 1.654108e+01 
4.659910e+00 1.630983e+01 
4.695230e+00 1.607721e+01 
4.729960e+00 1.585301e+01 
4.764450e+00 1.563468e+01 
4.799530e+00 1.541694e+01 
4.834910e+00 1.520164e+01 
4.869700e+00 1.499401e+01 
4.904370e+00 1.479105e+01 
4.939450e+00 1.458960e+01 
4.973940e+00 1.439529e+01 
5.008430e+00 1.420460e+01 
5.043810e+00 1.401273e+01 
5.078840e+00 1.382636e+01 
5.113500e+00 1.364537e+01 
5.148890e+00 1.346401e+01 
5.184210e+00 1.328635e+01 
5.219060e+00 1.311429e+01 
5.253660e+00 1.294665e+01 
5.288570e+00 1.278051e+01 
5.323420e+00 1.261769e+01 
5.358440e+00 1.245705e+01 
5.393590e+00 1.229867e+01 
5.428310e+00 1.214509e+01 
5.462800e+00 1.199522e+01 
5.497640e+00 1.184642e+01 
5.532670e+00 1.169956e+01 
5.567280e+00 1.155699e+01 
5.602000e+00 1.141638e+01 
5.637270e+00 1.127610e+01 
5.672410e+00 1.113874e+01 
5.707020e+00 1.100571e+01 
5.742040e+00 1.087355e+01 
5.777430e+00 1.074226e+01 
5.812210e+00 1.061536e+01 
5.846820e+00 1.049125e+01 
5.881610e+00 1.036854e+01 
5.916510e+00 1.024742e+01 
5.951600e+00 1.012784e+01 
5.986560e+00 1.001071e+01 
6.021830e+00 9.894420e+00 
6.056490e+00 9.782082e+00 
6.091160e+00 9.671572e+00 
6.125830e+00 9.562776e+00 
6.161090e+00 9.453918e+00 
6.195760e+00 9.348686e+00 
6.230420e+00 9.245090e+00 
6.265690e+00 9.141296e+00 
6.300950e+00 9.039435e+00 
6.335620e+00 8.940796e+00 
6.370880e+00 8.841989e+00 
6.405550e+00 8.746440e+00 
6.440220e+00 8.652364e+00 
6.475480e+00 8.558107e+00 
6.510150e+00 8.466881e+00 
6.544810e+00 8.377201e+00 
6.580080e+00 8.287277e+00 
6.614750e+00 8.200167e+00 
6.649410e+00 8.114526e+00 
6.684080e+00 8.030120e+00 
6.719340e+00 7.945507e+00 
6.754010e+00 7.863569e+00 
6.788680e+00 7.782952e+00 
6.823940e+00 7.702119e+00 
6.859800e+00 7.621085e+00 
6.894470e+00 7.544004e+00 
6.929140e+00 7.468043e+00 
6.963800e+00 7.393146e+00 
6.999070e+00 7.317997e+00 
7.033730e+00 7.245412e+00 
7.068400e+00 7.173787e+00 
7.103660e+00 7.101933e+00 
7.138330e+00 7.032303e+00 
7.173600e+00 6.962559e+00 
7.208260e+00 6.894939e+00 
7.243530e+00 6.827046e+00 
7.277600e+00 6.762440e+00 
7.312860e+00 6.696557e+00 
7.348120e+00 6.631547e+00 
7.382790e+00 6.568462e+00 
7.417460e+00 6.506334e+00 
7.452720e+00 6.444043e+00 
7.487390e+00 6.383584e+00 
7.522650e+00 6.322887e+00 
7.557320e+00 6.264119e+00 
7.591990e+00 6.206149e+00 
7.627250e+00 6.147940e+00 
7.662510e+00 6.090472e+00 
7.697180e+00 6.034822e+00 
7.731850e+00 5.979917e+00 
7.766510e+00 5.925706e+00 
7.801180e+00 5.872147e+00 
7.836440e+00 5.818454e+00 
7.871110e+00 5.766373e+00 
7.906380e+00 5.714040e+00 
7.941040e+00 5.663239e+00 
7.976310e+00 5.612254e+00 
8.011570e+00 5.562003e+00 
8.046240e+00 5.513187e+00 
8.080900e+00 5.464966e+00 
8.115570e+00 5.417345e+00 
8.150830e+00 5.369650e+00 
8.185500e+00 5.323308e+00 
8.220770e+00 5.276720e+00 
8.255430e+00 5.231475e+00 
8.290100e+00 5.186876e+00 
8.324770e+00 5.142807e+00 
8.359430e+00 5.099258e+00 
8.394700e+00 5.055454e+00 
8.429960e+00 5.012253e+00 
8.464630e+00 4.970345e+00 
8.499890e+00 4.928210e+00 
8.534560e+00 4.887251e+00 
8.569200e+00 4.846787e+00 
