# Parameters:
# omega_b = 0.022382, omega_m = 0.128543, n_s = 0.879921, h = 69.645669, w = -1.000000, sigma_8 = 0.781890
# z = 0.700000
#
# k[1/Mpc] # P(k):
8.694000e-04 1.426734e+04 
2.077466e-03 2.804040e+04 
3.285532e-03 3.780203e+04 
4.493598e-03 4.466429e+04 
5.701664e-03 4.927190e+04 
6.909730e-03 5.211878e+04 
8.117797e-03 5.366713e+04 
9.325863e-03 5.415673e+04 
1.053393e-02 5.380604e+04 
1.174199e-02 5.280679e+04 
1.295006e-02 5.127918e+04 
1.415813e-02 4.937612e+04 
1.536619e-02 4.722334e+04 
1.657426e-02 4.490867e+04 
1.778233e-02 4.252563e+04 
1.899039e-02 4.018936e+04 
2.019846e-02 3.791462e+04 
2.140652e-02 3.572213e+04 
2.261459e-02 3.364288e+04 
2.382266e-02 3.171101e+04 
2.503072e-02 2.994182e+04 
2.623879e-02 2.833613e+04 
2.744685e-02 2.689153e+04 
2.865492e-02 2.560070e+04 
2.986299e-02 2.445141e+04 
3.100100e-02 2.349198e+04 
3.220400e-02 2.259188e+04 
3.288100e-02 2.213476e+04 
3.424300e-02 2.130517e+04 
3.555100e-02 2.060274e+04 
3.686000e-02 1.997715e+04 
3.795000e-02 1.950211e+04 
3.929100e-02 1.896329e+04 
4.039800e-02 1.854343e+04 
4.164000e-02 1.809046e+04 
4.294400e-02 1.761902e+04 
4.415000e-02 1.718764e+04 
4.542900e-02 1.671760e+04 
4.660900e-02 1.628054e+04 
4.782300e-02 1.580908e+04 
4.892900e-02 1.537353e+04 
5.031200e-02 1.481609e+04 
5.155900e-02 1.430193e+04 
5.238100e-02 1.396065e+04 
5.378200e-02 1.337909e+04 
5.513400e-02 1.282106e+04 
5.627600e-02 1.235742e+04 
5.735300e-02 1.193113e+04 
5.870100e-02 1.141665e+04 
5.988700e-02 1.098567e+04 
6.113500e-02 1.055618e+04 
6.225900e-02 1.019272e+04 
6.340100e-02 9.847674e+03 
6.480200e-02 9.456416e+03 
6.601100e-02 9.149981e+03 
6.725500e-02 8.863237e+03 
6.829100e-02 8.648014e+03 
6.958600e-02 8.402713e+03 
7.071100e-02 8.212327e+03 
7.192300e-02 8.027312e+03 
7.307400e-02 7.869023e+03 
7.412300e-02 7.737651e+03 
7.550400e-02 7.581843e+03 
7.663100e-02 7.464946e+03 
7.791200e-02 7.342652e+03 
7.912700e-02 7.232684e+03 
8.027600e-02 7.131541e+03 
8.138400e-02 7.035074e+03 
8.272200e-02 6.917847e+03 
8.406100e-02 6.797897e+03 
8.534100e-02 6.677211e+03 
8.653800e-02 6.558171e+03 
8.759800e-02 6.449351e+03 
8.900300e-02 6.299268e+03 
9.009000e-02 6.178096e+03 
9.113300e-02 6.057680e+03 
9.239600e-02 5.910369e+03 
9.358000e-02 5.770078e+03 
9.496100e-02 5.604720e+03 
9.608400e-02 5.471921e+03 
9.727500e-02 5.333545e+03 
9.852600e-02 5.191373e+03 
9.973800e-02 5.058980e+03 
1.009000e-01 4.936761e+03 
1.020900e-01 4.819476e+03 
1.034000e-01 4.697352e+03 
1.046000e-01 4.592056e+03 
1.057200e-01 4.502670e+03 
1.069100e-01 4.412703e+03 
1.082500e-01 4.321310e+03 
1.093900e-01 4.250079e+03 
1.105400e-01 4.182571e+03 
1.116900e-01 4.122350e+03 
1.129600e-01 4.059337e+03 
1.142000e-01 4.003514e+03 
1.153300e-01 3.955030e+03 
1.166400e-01 3.901977e+03 
1.177800e-01 3.857429e+03 
1.190000e-01 3.811121e+03 
1.201200e-01 3.768440e+03 
1.213400e-01 3.722832e+03 
1.227100e-01 3.669387e+03 
1.238900e-01 3.623574e+03 
1.250700e-01 3.575704e+03 
1.263200e-01 3.524855e+03 
1.275500e-01 3.473042e+03 
1.287500e-01 3.422231e+03 
1.299900e-01 3.368669e+03 
1.311300e-01 3.319465e+03 
1.323500e-01 3.266360e+03 
1.335900e-01 3.212993e+03 
1.347100e-01 3.164995e+03 
1.359800e-01 3.111624e+03 
1.372100e-01 3.060774e+03 
1.384300e-01 3.011617e+03 
1.395700e-01 2.966949e+03 
1.407700e-01 2.921056e+03 
1.420300e-01 2.874938e+03 
1.432800e-01 2.830235e+03 
1.444500e-01 2.790617e+03 
1.456300e-01 2.751497e+03 
1.468900e-01 2.711840e+03 
1.480500e-01 2.676457e+03 
1.491700e-01 2.643565e+03 
1.503800e-01 2.609499e+03 
1.516400e-01 2.574986e+03 
1.528200e-01 2.544317e+03 
1.540200e-01 2.513733e+03 
1.551900e-01 2.485190e+03 
1.564300e-01 2.455692e+03 
1.576600e-01 2.427235e+03 
1.588700e-01 2.400054e+03 
1.600900e-01 2.373171e+03 
1.612700e-01 2.347763e+03 
1.625400e-01 2.320929e+03 
1.637600e-01 2.295503e+03 
1.649500e-01 2.271074e+03 
1.662200e-01 2.245409e+03 
1.674000e-01 2.221595e+03 
1.685000e-01 2.199770e+03 
1.697500e-01 2.175089e+03 
1.710300e-01 2.149976e+03 
1.722200e-01 2.127050e+03 
1.734400e-01 2.103339e+03 
1.746400e-01 2.080400e+03 
1.758700e-01 2.057148e+03 
1.770900e-01 2.034183e+03 
1.782700e-01 2.012351e+03 
1.794600e-01 1.990550e+03 
1.807000e-01 1.968119e+03 
1.819100e-01 1.946606e+03 
1.830100e-01 1.927354e+03 
1.842200e-01 1.906514e+03 
1.855000e-01 1.884855e+03 
1.867000e-01 1.865082e+03 
1.879200e-01 1.845309e+03 
1.890900e-01 1.826705e+03 
1.902800e-01 1.808356e+03 
1.915200e-01 1.789545e+03 
1.926900e-01 1.772166e+03 
1.939000e-01 1.754763e+03 
1.951700e-01 1.736791e+03 
1.963100e-01 1.720999e+03 
1.975100e-01 1.704868e+03 
1.987800e-01 1.688063e+03 
2.000100e-01 1.672119e+03 
2.012500e-01 1.656469e+03 
2.023400e-01 1.642911e+03 
2.036100e-01 1.627372e+03 
2.048900e-01 1.612072e+03 
2.060400e-01 1.598528e+03 
2.072200e-01 1.584828e+03 
2.084200e-01 1.571127e+03 
2.096900e-01 1.556840e+03 
2.109200e-01 1.543208e+03 
2.121100e-01 1.530129e+03 
2.132700e-01 1.517552e+03 
2.145200e-01 1.504189e+03 
2.157200e-01 1.491468e+03 
2.168800e-01 1.479304e+03 
2.180700e-01 1.466994e+03 
2.193400e-01 1.453980e+03 
2.206000e-01 1.441140e+03 
2.217500e-01 1.429581e+03 
2.229500e-01 1.417679e+03 
2.241400e-01 1.405878e+03 
2.253500e-01 1.394036e+03 
2.264900e-01 1.383024e+03 
2.277100e-01 1.371319e+03 
2.289900e-01 1.359125e+03 
2.301500e-01 1.348222e+03 
2.313600e-01 1.336995e+03 
2.325600e-01 1.325889e+03 
2.337700e-01 1.314837e+03 
2.350000e-01 1.303750e+03 
2.362000e-01 1.293035e+03 
2.374100e-01 1.282324e+03 
2.386500e-01 1.271491e+03 
2.399100e-01 1.260628e+03 
2.410400e-01 1.250997e+03 
2.422500e-01 1.240810e+03 
2.435000e-01 1.230421e+03 
2.447300e-01 1.220338e+03 
2.458700e-01 1.211138e+03 
2.470600e-01 1.201650e+03 
2.483300e-01 1.191652e+03 
2.495600e-01 1.182133e+03 
2.507600e-01 1.173015e+03 
2.519600e-01 1.164007e+03 
2.532200e-01 1.154666e+03 
2.543700e-01 1.146322e+03 
2.555500e-01 1.137913e+03 
2.568000e-01 1.129111e+03 
2.580100e-01 1.120695e+03 
2.592400e-01 1.112349e+03 
2.604100e-01 1.104550e+03 
2.616100e-01 1.096642e+03 
2.628400e-01 1.088631e+03 
2.640600e-01 1.080886e+03 
2.652200e-01 1.073647e+03 
2.664300e-01 1.066180e+03 
2.676500e-01 1.058738e+03 
2.688400e-01 1.051638e+03 
2.700700e-01 1.044431e+03 
2.712400e-01 1.037652e+03 
2.724800e-01 1.030546e+03 
2.736700e-01 1.023846e+03 
2.748800e-01 1.017153e+03 
2.761000e-01 1.010479e+03 
2.773200e-01 1.003877e+03 
2.785400e-01 9.973666e+02 
2.797000e-01 9.912805e+02 
2.808900e-01 9.851021e+02 
2.821400e-01 9.786820e+02 
2.833900e-01 9.723336e+02 
2.845500e-01 9.665330e+02 
2.857800e-01 9.604463e+02 
2.870300e-01 9.543271e+02 
2.882100e-01 9.486111e+02 
2.893900e-01 9.429666e+02 
2.906300e-01 9.371036e+02 
2.918900e-01 9.312095e+02 
2.930500e-01 9.258388e+02 
2.942500e-01 9.203389e+02 
2.954200e-01 9.150321e+02 
2.966500e-01 9.095092e+02 
2.978900e-01 9.039987e+02 
2.990400e-01 8.989389e+02 
3.002700e-01 8.935867e+02 
3.015100e-01 8.882488e+02 
3.026800e-01 8.832620e+02 
3.038500e-01 8.783229e+02 
3.050300e-01 8.733894e+02 
3.062600e-01 8.683020e+02 
3.075000e-01 8.632245e+02 
3.087000e-01 8.583589e+02 
3.099100e-01 8.535001e+02 
3.111200e-01 8.486935e+02 
3.123100e-01 8.440204e+02 
3.135300e-01 8.392751e+02 
3.147300e-01 8.346521e+02 
3.159900e-01 8.298449e+02 
3.171800e-01 8.253563e+02 
3.183700e-01 8.209145e+02 
3.196300e-01 8.162560e+02 
3.208400e-01 8.118252e+02 
3.220300e-01 8.075078e+02 
3.232000e-01 8.033166e+02 
3.244300e-01 7.989568e+02 
3.256700e-01 7.946028e+02 
3.269200e-01 7.902552e+02 
3.280800e-01 7.862573e+02 
3.292500e-01 7.822766e+02 
3.304800e-01 7.781346e+02 
3.317100e-01 7.740306e+02 
3.328900e-01 7.701286e+02 
3.340700e-01 7.662608e+02 
3.353600e-01 7.620903e+02 
3.365300e-01 7.583491e+02 
3.377100e-01 7.546085e+02 
3.389200e-01 7.508062e+02 
3.401600e-01 7.469443e+02 
3.413700e-01 7.432226e+02 
3.425300e-01 7.396946e+02 
3.437700e-01 7.359558e+02 
3.449800e-01 7.323394e+02 
3.461800e-01 7.287837e+02 
3.473600e-01 7.253248e+02 
3.485800e-01 7.217982e+02 
3.498100e-01 7.182735e+02 
3.510200e-01 7.148358e+02 
3.522000e-01 7.115114e+02 
3.533900e-01 7.081865e+02 
3.546400e-01 7.047442e+02 
3.558400e-01 7.014688e+02 
3.570600e-01 6.981665e+02 
3.582700e-01 6.949188e+02 
3.595000e-01 6.916449e+02 
3.607100e-01 6.884623e+02 
3.618900e-01 6.853925e+02 
3.631200e-01 6.822189e+02 
3.643200e-01 6.791480e+02 
3.655500e-01 6.760262e+02 
3.667300e-01 6.730554e+02 
3.679500e-01 6.700263e+02 
3.691900e-01 6.669728e+02 
3.703600e-01 6.641146e+02 
3.715700e-01 6.611821e+02 
3.727700e-01 6.582970e+02 
3.739900e-01 6.553938e+02 
3.752000e-01 6.525496e+02 
3.763900e-01 6.497743e+02 
3.775800e-01 6.470205e+02 
3.788200e-01 6.441737e+02 
3.800300e-01 6.414177e+02 
3.812100e-01 6.387562e+02 
3.824200e-01 6.360516e+02 
3.836100e-01 6.334122e+02 
3.848600e-01 6.306612e+02 
3.860400e-01 6.280844e+02 
3.872400e-01 6.254838e+02 
3.884600e-01 6.228707e+02 
3.896500e-01 6.203453e+02 
3.908700e-01 6.177757e+02 
3.920600e-01 6.152883e+02 
3.933100e-01 6.126954e+02 
3.945300e-01 6.101842e+02 
3.957200e-01 6.077584e+02 
3.969300e-01 6.053116e+02 
3.981700e-01 6.028232e+02 
3.993500e-01 6.004728e+02 
4.094840e-01 5.809786e+02 
4.272360e-01 5.496908e+02 
4.454600e-01 5.207197e+02 
4.630560e-01 4.953431e+02 
4.804610e-01 4.724296e+02 
4.980690e-01 4.511784e+02 
5.159230e-01 4.314047e+02 
5.317440e-01 4.152060e+02 
5.489640e-01 3.988680e+02 
5.671990e-01 3.829034e+02 
5.838690e-01 3.693731e+02 
6.018840e-01 3.558027e+02 
6.202330e-01 3.429931e+02 
6.379250e-01 3.314954e+02 
6.545410e-01 3.214220e+02 
6.714560e-01 3.117826e+02 
6.892080e-01 3.023104e+02 
7.066010e-01 2.935832e+02 
7.240540e-01 2.853262e+02 
7.420450e-01 2.773109e+02 
7.593780e-01 2.700090e+02 
7.764720e-01 2.631721e+02 
7.942840e-01 2.564089e+02 
8.116170e-01 2.501433e+02 
8.288310e-01 2.442108e+02 
8.462240e-01 2.384801e+02 
8.631980e-01 2.331227e+02 
8.810700e-01 2.277193e+02 
8.989410e-01 2.225408e+02 
9.166330e-01 2.176143e+02 
9.345640e-01 2.128116e+02 
9.515980e-01 2.084157e+02 
9.688720e-01 2.041116e+02 
9.865640e-01 1.998532e+02 
1.031870e+00 1.896007e+02 
1.063490e+00 1.829144e+02 
1.097920e+00 1.760821e+02 
1.134370e+00 1.692369e+02 
1.167730e+00 1.633301e+02 
1.203830e+00 1.572740e+02 
1.240470e+00 1.514761e+02 
1.275790e+00 1.461583e+02 
1.309140e+00 1.414007e+02 
1.342970e+00 1.367742e+02 
1.378420e+00 1.321789e+02 
1.413200e+00 1.278787e+02 
1.448110e+00 1.237484e+02 
1.484090e+00 1.197043e+02 
1.518820e+00 1.159611e+02 
1.552880e+00 1.124606e+02 
1.588630e+00 1.089347e+02 
1.623230e+00 1.056799e+02 
1.657720e+00 1.025687e+02 
1.692450e+00 9.958212e+01 
1.726400e+00 9.675631e+01 
1.762200e+00 9.389646e+01 
1.797880e+00 9.117521e+01 
1.833270e+00 8.857382e+01 
1.869070e+00 8.605761e+01 
1.903200e+00 8.375011e+01 
1.937740e+00 8.150126e+01 
1.973190e+00 7.927775e+01 
2.007440e+00 7.721306e+01 
2.042160e+00 7.520251e+01 
2.077900e+00 7.319754e+01 
2.112390e+00 7.134394e+01 
2.146220e+00 6.957443e+01 
2.181600e+00 6.779807e+01 
2.216930e+00 6.608831e+01 
2.250760e+00 6.450021e+01 
2.286500e+00 6.287810e+01 
2.321770e+00 6.134110e+01 
2.355950e+00 5.990806e+01 
2.391280e+00 5.846447e+01 
2.426240e+00 5.708244e+01 
2.460670e+00 5.576530e+01 
2.495640e+00 5.447080e+01 
2.531080e+00 5.320720e+01 
2.566220e+00 5.198773e+01 
2.600830e+00 5.082571e+01 
2.635080e+00 4.971535e+01 
2.670340e+00 4.859793e+01 
2.705970e+00 4.750851e+01 
2.740040e+00 4.650086e+01 
2.774520e+00 4.550949e+01 
2.809730e+00 4.452676e+01 
2.844390e+00 4.358816e+01 
2.879960e+00 4.265239e+01 
2.914860e+00 4.176059e+01 
2.949410e+00 4.090325e+01 
2.984440e+00 4.005757e+01 
3.019760e+00 3.923219e+01 
3.054730e+00 3.843994e+01 
3.089030e+00 3.767845e+01 
3.124060e+00 3.692429e+01 
3.159560e+00 3.618375e+01 
3.194710e+00 3.546639e+01 
3.229010e+00 3.478476e+01 
3.263320e+00 3.412371e+01 
3.297930e+00 3.347457e+01 
3.332830e+00 3.283663e+01 
3.368040e+00 3.220965e+01 
3.403300e+00 3.159820e+01 
3.438450e+00 3.100381e+01 
3.473060e+00 3.043382e+01 
3.508440e+00 2.986845e+01 
3.543110e+00 2.932832e+01 
3.577470e+00 2.880294e+01 
3.613040e+00 2.827351e+01 
3.648120e+00 2.776607e+01 
3.682910e+00 2.727520e+01 
3.718050e+00 2.679113e+01 
3.753320e+00 2.631698e+01 
3.787980e+00 2.586183e+01 
3.822290e+00 2.542287e+01 
3.857020e+00 2.499025e+01 
3.891920e+00 2.456468e+01 
3.926650e+00 2.414900e+01 
3.961970e+00 2.373681e+01 
3.997360e+00 2.333482e+01 
4.031670e+00 2.295404e+01 
4.066330e+00 2.257759e+01 
4.101420e+00 2.220526e+01 
4.136200e+00 2.184568e+01 
4.170810e+00 2.149590e+01 
4.206250e+00 2.114519e+01 
4.241580e+00 2.080335e+01 
4.276300e+00 2.047498e+01 
4.310970e+00 2.015430e+01 
4.346120e+00 1.983635e+01 
4.380600e+00 1.953136e+01 
4.414730e+00 1.923583e+01 
4.450350e+00 1.893399e+01 
4.485320e+00 1.864400e+01 
4.519810e+00 1.836419e+01 
4.555430e+00 1.808136e+01 
4.590870e+00 1.780600e+01 
4.625480e+00 1.754283e+01 
4.659910e+00 1.728633e+01 
4.695230e+00 1.702879e+01 
4.729960e+00 1.678071e+01 
4.764450e+00 1.653939e+01 
4.799530e+00 1.629903e+01 
4.834910e+00 1.606146e+01 
4.869700e+00 1.583275e+01 
4.904370e+00 1.560930e+01 
4.939450e+00 1.538770e+01 
4.973940e+00 1.517425e+01 
5.008430e+00 1.496485e+01 
5.043810e+00 1.475443e+01 
5.078840e+00 1.455023e+01 
5.113500e+00 1.435198e+01 
5.148890e+00 1.415367e+01 
5.184210e+00 1.395948e+01 
5.219060e+00 1.377154e+01 
5.253660e+00 1.358865e+01 
5.288570e+00 1.340747e+01 
5.323420e+00 1.323006e+01 
5.358440e+00 1.305521e+01 
5.393590e+00 1.288286e+01 
5.428310e+00 1.271593e+01 
5.462800e+00 1.255316e+01 
5.497640e+00 1.239161e+01 
5.532670e+00 1.223235e+01 
5.567280e+00 1.207783e+01 
5.602000e+00 1.192547e+01 
5.637270e+00 1.177367e+01 
5.672410e+00 1.162510e+01 
5.707020e+00 1.148124e+01 
5.742040e+00 1.133851e+01 
5.777430e+00 1.119678e+01 
5.812210e+00 1.105982e+01 
5.846820e+00 1.092603e+01 
5.881610e+00 1.079380e+01 
5.916510e+00 1.066333e+01 
5.951600e+00 1.053463e+01 
5.986560e+00 1.040863e+01 
6.021830e+00 1.028358e+01 
6.056490e+00 1.016288e+01 
6.091160e+00 1.004423e+01 
6.125830e+00 9.927457e+00 
6.161090e+00 9.810672e+00 
6.195760e+00 9.697867e+00 
6.230420e+00 9.586841e+00 
6.265690e+00 9.475634e+00 
6.300950e+00 9.366627e+00 
6.335620e+00 9.261092e+00 
6.370880e+00 9.155402e+00 
6.405550e+00 9.053289e+00 
6.440220e+00 8.952800e+00 
6.475480e+00 8.852141e+00 
6.510150e+00 8.754764e+00 
6.544810e+00 8.659114e+00 
6.580080e+00 8.563224e+00 
6.614750e+00 8.470356e+00 
6.649410e+00 8.379137e+00 
6.684080e+00 8.289267e+00 
6.719340e+00 8.199195e+00 
6.754010e+00 8.112009e+00 
6.788680e+00 8.026294e+00 
6.823940e+00 7.940368e+00 
6.859800e+00 7.854246e+00 
6.894470e+00 7.772392e+00 
6.929140e+00 7.691763e+00 
6.963800e+00 7.612278e+00 
6.999070e+00 7.532547e+00 
7.033730e+00 7.455608e+00 
7.068400e+00 7.379701e+00 
7.103660e+00 7.303565e+00 
7.138330e+00 7.229820e+00 
7.173600e+00 7.156008e+00 
7.208260e+00 7.084457e+00 
7.243530e+00 7.012631e+00 
7.277600e+00 6.944320e+00 
7.312860e+00 6.874695e+00 
7.348120e+00 6.806004e+00 
7.382790e+00 6.739360e+00 
7.417460e+00 6.673779e+00 
7.452720e+00 6.608057e+00 
7.487390e+00 6.544280e+00 
7.522650e+00 6.480263e+00 
7.557320e+00 6.418321e+00 
7.591990e+00 6.357242e+00 
7.627250e+00 6.295921e+00 
7.662510e+00 6.235392e+00 
7.697180e+00 6.176821e+00 
7.731850e+00 6.119058e+00 
7.766510e+00 6.062035e+00 
7.801180e+00 6.005706e+00 
7.836440e+00 5.949271e+00 
7.871110e+00 5.894555e+00 
7.906380e+00 5.839583e+00 
7.941040e+00 5.786229e+00 
7.976310e+00 5.732712e+00 
8.011570e+00 5.680000e+00 
8.046240e+00 5.628801e+00 
8.080900e+00 5.578234e+00 
8.115570e+00 5.528311e+00 
8.150830e+00 5.478344e+00 
8.185500e+00 5.429803e+00 
8.220770e+00 5.381011e+00 
8.255430e+00 5.333634e+00 
8.290100e+00 5.286977e+00 
8.324770e+00 5.240886e+00 
8.359430e+00 5.195345e+00 
8.394700e+00 5.149546e+00 
8.429960e+00 5.104397e+00 
8.464630e+00 5.060621e+00 
8.499890e+00 5.016614e+00 
8.534560e+00 4.973841e+00 
8.569200e+00 4.931592e+00 
