# Parameters:
# omega_b = 0.021547, omega_m = 0.130472, n_s = 1.032677, h = 80.748031, w = -1.000000, sigma_8 = 0.792913
# z = 0.700000
#
# k[1/Mpc] # P(k):
8.694000e-04 5.786783e+03 
2.077466e-03 1.296345e+04 
3.285532e-03 1.877514e+04 
4.493598e-03 2.332345e+04 
5.701664e-03 2.674702e+04 
6.909730e-03 2.920453e+04 
8.117797e-03 3.089256e+04 
9.325863e-03 3.191426e+04 
1.053393e-02 3.237616e+04 
1.174199e-02 3.238047e+04 
1.295006e-02 3.199282e+04 
1.415813e-02 3.130415e+04 
1.536619e-02 3.039110e+04 
1.657426e-02 2.930248e+04 
1.778233e-02 2.804831e+04 
1.899039e-02 2.665939e+04 
2.019846e-02 2.524630e+04 
2.140652e-02 2.390577e+04 
2.261459e-02 2.264153e+04 
2.382266e-02 2.145834e+04 
2.503072e-02 2.036663e+04 
2.623879e-02 1.937082e+04 
2.744685e-02 1.847346e+04 
2.865492e-02 1.767293e+04 
2.986299e-02 1.696340e+04 
3.100100e-02 1.637694e+04 
3.220400e-02 1.583407e+04 
3.288100e-02 1.556309e+04 
3.424300e-02 1.508064e+04 
3.555100e-02 1.468342e+04 
3.686000e-02 1.434089e+04 
3.795000e-02 1.408783e+04 
3.929100e-02 1.380899e+04 
4.039800e-02 1.359445e+04 
4.164000e-02 1.336283e+04 
4.294400e-02 1.311625e+04 
4.415000e-02 1.288397e+04 
4.542900e-02 1.261725e+04 
4.660900e-02 1.235884e+04 
4.782300e-02 1.206254e+04 
4.892900e-02 1.177780e+04 
5.031200e-02 1.139704e+04 
5.155900e-02 1.103060e+04 
5.238100e-02 1.078079e+04 
5.378200e-02 1.034494e+04 
5.513400e-02 9.916114e+03 
5.627600e-02 9.553798e+03 
5.735300e-02 9.217446e+03 
5.870100e-02 8.808924e+03 
5.988700e-02 8.466026e+03 
6.113500e-02 8.124860e+03 
6.225900e-02 7.837797e+03 
6.340100e-02 7.567779e+03 
6.480200e-02 7.265111e+03 
6.601100e-02 7.032718e+03 
6.725500e-02 6.819773e+03 
6.829100e-02 6.664286e+03 
6.958600e-02 6.491004e+03 
7.071100e-02 6.360910e+03 
7.192300e-02 6.238341e+03 
7.307400e-02 6.136854e+03 
7.412300e-02 6.055091e+03 
7.550400e-02 5.961332e+03 
7.663100e-02 5.892510e+03 
7.791200e-02 5.821760e+03 
7.912700e-02 5.757831e+03 
8.027600e-02 5.698040e+03 
8.138400e-02 5.639698e+03 
8.272200e-02 5.566437e+03 
8.406100e-02 5.488596e+03 
8.534100e-02 5.406852e+03 
8.653800e-02 5.323453e+03 
8.759800e-02 5.245609e+03 
8.900300e-02 5.135873e+03 
9.009000e-02 5.045448e+03 
9.113300e-02 4.954073e+03 
9.239600e-02 4.841004e+03 
9.358000e-02 4.731819e+03 
9.496100e-02 4.601026e+03 
9.608400e-02 4.494797e+03 
9.727500e-02 4.383179e+03 
9.852600e-02 4.266374e+03 
9.973800e-02 4.156774e+03 
1.009000e-01 4.054923e+03 
1.020900e-01 3.955874e+03 
1.034000e-01 3.852407e+03 
1.046000e-01 3.762868e+03 
1.057200e-01 3.686835e+03 
1.069100e-01 3.610464e+03 
1.082500e-01 3.533560e+03 
1.093900e-01 3.474448e+03 
1.105400e-01 3.418928e+03 
1.116900e-01 3.371035e+03 
1.129600e-01 3.321590e+03 
1.142000e-01 3.279676e+03 
1.153300e-01 3.244077e+03 
1.166400e-01 3.206405e+03 
1.177800e-01 3.175778e+03 
1.190000e-01 3.144431e+03 
1.201200e-01 3.116036e+03 
1.213400e-01 3.085797e+03 
1.227100e-01 3.050037e+03 
1.238900e-01 3.019166e+03 
1.250700e-01 2.986120e+03 
1.263200e-01 2.950545e+03 
1.275500e-01 2.913269e+03 
1.287500e-01 2.876048e+03 
1.299900e-01 2.835789e+03 
1.311300e-01 2.798117e+03 
1.323500e-01 2.756456e+03 
1.335900e-01 2.713913e+03 
1.347100e-01 2.674783e+03 
1.359800e-01 2.630790e+03 
1.372100e-01 2.587931e+03 
1.384300e-01 2.546189e+03 
1.395700e-01 2.507526e+03 
1.407700e-01 2.467743e+03 
1.420300e-01 2.427086e+03 
1.432800e-01 2.387693e+03 
1.444500e-01 2.352529e+03 
1.456300e-01 2.317820e+03 
1.468900e-01 2.282816e+03 
1.480500e-01 2.251646e+03 
1.491700e-01 2.222940e+03 
1.503800e-01 2.193556e+03 
1.516400e-01 2.163962e+03 
1.528200e-01 2.138415e+03 
1.540200e-01 2.112938e+03 
1.551900e-01 2.089971e+03 
1.564300e-01 2.066433e+03 
1.576600e-01 2.044126e+03 
1.588700e-01 2.023304e+03 
1.600900e-01 2.002737e+03 
1.612700e-01 1.983864e+03 
1.625400e-01 1.963926e+03 
1.637600e-01 1.945121e+03 
1.649500e-01 1.927101e+03 
1.662200e-01 1.908129e+03 
1.674000e-01 1.890320e+03 
1.685000e-01 1.873995e+03 
1.697500e-01 1.855239e+03 
1.710300e-01 1.835865e+03 
1.722200e-01 1.818172e+03 
1.734400e-01 1.799177e+03 
1.746400e-01 1.780767e+03 
1.758700e-01 1.761882e+03 
1.770900e-01 1.742784e+03 
1.782700e-01 1.724625e+03 
1.794600e-01 1.706182e+03 
1.807000e-01 1.686999e+03 
1.819100e-01 1.668602e+03 
1.830100e-01 1.651893e+03 
1.842200e-01 1.633765e+03 
1.855000e-01 1.614921e+03 
1.867000e-01 1.597628e+03 
1.879200e-01 1.580337e+03 
1.890900e-01 1.564082e+03 
1.902800e-01 1.548122e+03 
1.915200e-01 1.531760e+03 
1.926900e-01 1.516687e+03 
1.939000e-01 1.501730e+03 
1.951700e-01 1.486284e+03 
1.963100e-01 1.472771e+03 
1.975100e-01 1.459128e+03 
1.987800e-01 1.444914e+03 
2.000100e-01 1.431489e+03 
2.012500e-01 1.418454e+03 
2.023400e-01 1.407161e+03 
2.036100e-01 1.394248e+03 
2.048900e-01 1.381654e+03 
2.060400e-01 1.370505e+03 
2.072200e-01 1.359232e+03 
2.084200e-01 1.348029e+03 
2.096900e-01 1.336344e+03 
2.109200e-01 1.325194e+03 
2.121100e-01 1.314528e+03 
2.132700e-01 1.304271e+03 
2.145200e-01 1.293372e+03 
2.157200e-01 1.283014e+03 
2.168800e-01 1.273116e+03 
2.180700e-01 1.263098e+03 
2.193400e-01 1.252524e+03 
2.206000e-01 1.242125e+03 
2.217500e-01 1.232762e+03 
2.229500e-01 1.223120e+03 
2.241400e-01 1.213661e+03 
2.253500e-01 1.204170e+03 
2.264900e-01 1.195343e+03 
2.277100e-01 1.186039e+03 
2.289900e-01 1.176432e+03 
2.301500e-01 1.167841e+03 
2.313600e-01 1.158994e+03 
2.325600e-01 1.150440e+03 
2.337700e-01 1.141924e+03 
2.350000e-01 1.133380e+03 
2.362000e-01 1.125214e+03 
2.374100e-01 1.117159e+03 
2.386500e-01 1.109010e+03 
2.399100e-01 1.100836e+03 
2.410400e-01 1.093726e+03 
2.422500e-01 1.086220e+03 
2.435000e-01 1.078562e+03 
2.447300e-01 1.071143e+03 
2.458700e-01 1.064440e+03 
2.470600e-01 1.057524e+03 
2.483300e-01 1.050233e+03 
2.495600e-01 1.043289e+03 
2.507600e-01 1.036636e+03 
2.519600e-01 1.030061e+03 
2.532200e-01 1.023239e+03 
2.543700e-01 1.017094e+03 
2.555500e-01 1.010865e+03 
2.568000e-01 1.004342e+03 
2.580100e-01 9.981025e+02 
2.592400e-01 9.918109e+02 
2.604100e-01 9.858843e+02 
2.616100e-01 9.798734e+02 
2.628400e-01 9.737821e+02 
2.640600e-01 9.677656e+02 
2.652200e-01 9.620909e+02 
2.664300e-01 9.562363e+02 
2.676500e-01 9.503991e+02 
2.688400e-01 9.447259e+02 
2.700700e-01 9.389002e+02 
2.712400e-01 9.334190e+02 
2.724800e-01 9.276731e+02 
2.736700e-01 9.221840e+02 
2.748800e-01 9.166265e+02 
2.761000e-01 9.110838e+02 
2.773200e-01 9.056011e+02 
2.785400e-01 9.001599e+02 
2.797000e-01 8.950035e+02 
2.808900e-01 8.897682e+02 
2.821400e-01 8.843276e+02 
2.833900e-01 8.789443e+02 
2.845500e-01 8.739594e+02 
2.857800e-01 8.687282e+02 
2.870300e-01 8.634687e+02 
2.882100e-01 8.585553e+02 
2.893900e-01 8.536763e+02 
2.906300e-01 8.485939e+02 
2.918900e-01 8.434841e+02 
2.930500e-01 8.388277e+02 
2.942500e-01 8.340535e+02 
2.954200e-01 8.294288e+02 
2.966500e-01 8.246154e+02 
2.978900e-01 8.198127e+02 
2.990400e-01 8.154024e+02 
3.002700e-01 8.107272e+02 
3.015100e-01 8.060595e+02 
3.026800e-01 8.016986e+02 
3.038500e-01 7.973792e+02 
3.050300e-01 7.930643e+02 
3.062600e-01 7.886088e+02 
3.075000e-01 7.841616e+02 
3.087000e-01 7.798998e+02 
3.099100e-01 7.756438e+02 
3.111200e-01 7.714309e+02 
3.123100e-01 7.673309e+02 
3.135300e-01 7.631675e+02 
3.147300e-01 7.591111e+02 
3.159900e-01 7.548928e+02 
3.171800e-01 7.509507e+02 
3.183700e-01 7.470474e+02 
3.196300e-01 7.429535e+02 
3.208400e-01 7.390595e+02 
3.220300e-01 7.352650e+02 
3.232000e-01 7.315789e+02 
3.244300e-01 7.277434e+02 
3.256700e-01 7.239128e+02 
3.269200e-01 7.200876e+02 
3.280800e-01 7.165700e+02 
3.292500e-01 7.130640e+02 
3.304800e-01 7.094146e+02 
3.317100e-01 7.057986e+02 
3.328900e-01 7.023605e+02 
3.340700e-01 6.989523e+02 
3.353600e-01 6.952738e+02 
3.365300e-01 6.919726e+02 
3.377100e-01 6.886717e+02 
3.389200e-01 6.853162e+02 
3.401600e-01 6.819080e+02 
3.413700e-01 6.786217e+02 
3.425300e-01 6.755048e+02 
3.437700e-01 6.722016e+02 
3.449800e-01 6.690065e+02 
3.461800e-01 6.658650e+02 
3.473600e-01 6.628078e+02 
3.485800e-01 6.596884e+02 
3.498100e-01 6.565704e+02 
3.510200e-01 6.535294e+02 
3.522000e-01 6.505885e+02 
3.533900e-01 6.476472e+02 
3.546400e-01 6.445990e+02 
3.558400e-01 6.416984e+02 
3.570600e-01 6.387740e+02 
3.582700e-01 6.358977e+02 
3.595000e-01 6.329983e+02 
3.607100e-01 6.301783e+02 
3.618900e-01 6.274573e+02 
3.631200e-01 6.246441e+02 
3.643200e-01 6.219220e+02 
3.655500e-01 6.191546e+02 
3.667300e-01 6.165211e+02 
3.679500e-01 6.138331e+02 
3.691900e-01 6.111234e+02 
3.703600e-01 6.085870e+02 
3.715700e-01 6.059846e+02 
3.727700e-01 6.034241e+02 
3.739900e-01 6.008475e+02 
3.752000e-01 5.983228e+02 
3.763900e-01 5.958592e+02 
3.775800e-01 5.934147e+02 
3.788200e-01 5.908875e+02 
3.800300e-01 5.884410e+02 
3.812100e-01 5.860776e+02 
3.824200e-01 5.836755e+02 
3.836100e-01 5.813312e+02 
3.848600e-01 5.788878e+02 
3.860400e-01 5.765991e+02 
3.872400e-01 5.742891e+02 
3.884600e-01 5.719671e+02 
3.896500e-01 5.697224e+02 
3.908700e-01 5.674386e+02 
3.920600e-01 5.652278e+02 
3.933100e-01 5.629231e+02 
3.945300e-01 5.606909e+02 
3.957200e-01 5.585353e+02 
3.969300e-01 5.563612e+02 
3.981700e-01 5.541499e+02 
3.993500e-01 5.520613e+02 
4.094840e-01 5.347341e+02 
4.272360e-01 5.069257e+02 
4.454600e-01 4.811702e+02 
4.630560e-01 4.586076e+02 
4.804610e-01 4.382097e+02 
4.980690e-01 4.192659e+02 
5.159230e-01 4.015932e+02 
5.317440e-01 3.870822e+02 
5.489640e-01 3.724004e+02 
5.671990e-01 3.580061e+02 
5.838690e-01 3.457698e+02 
6.018840e-01 3.334614e+02 
6.202330e-01 3.218159e+02 
6.379250e-01 3.113409e+02 
6.545410e-01 3.021477e+02 
6.714560e-01 2.933460e+02 
6.892080e-01 2.846907e+02 
7.066010e-01 2.767229e+02 
7.240540e-01 2.691862e+02 
7.420450e-01 2.618815e+02 
7.593780e-01 2.552374e+02 
7.764720e-01 2.490272e+02 
7.942840e-01 2.428963e+02 
8.116170e-01 2.372342e+02 
8.288310e-01 2.318859e+02 
8.462240e-01 2.267335e+02 
8.631980e-01 2.219304e+02 
8.810700e-01 2.170974e+02 
8.989410e-01 2.124777e+02 
9.166330e-01 2.080957e+02 
9.345640e-01 2.038350e+02 
9.515980e-01 1.999427e+02 
9.688720e-01 1.961415e+02 
9.865640e-01 1.923892e+02 
1.031870e+00 1.833747e+02 
1.063490e+00 1.775120e+02 
1.097920e+00 1.715368e+02 
1.134370e+00 1.655474e+02 
1.167730e+00 1.603850e+02 
1.203830e+00 1.550865e+02 
1.240470e+00 1.500092e+02 
1.275790e+00 1.453425e+02 
1.309140e+00 1.411599e+02 
1.342970e+00 1.370806e+02 
1.378420e+00 1.330189e+02 
1.413200e+00 1.292065e+02 
1.448110e+00 1.255305e+02 
1.484090e+00 1.219209e+02 
1.518820e+00 1.185638e+02 
1.552880e+00 1.154139e+02 
1.588630e+00 1.122262e+02 
1.623230e+00 1.092739e+02 
1.657720e+00 1.064401e+02 
1.692450e+00 1.037114e+02 
1.726400e+00 1.011150e+02 
1.762200e+00 9.847727e+01 
1.797880e+00 9.595700e+01 
1.833270e+00 9.353669e+01 
1.869070e+00 9.118685e+01 
1.903200e+00 8.902276e+01 
1.937740e+00 8.690520e+01 
1.973190e+00 8.480312e+01 
2.007440e+00 8.284310e+01 
2.042160e+00 8.092798e+01 
2.077900e+00 7.900935e+01 
2.112390e+00 7.723010e+01 
2.146220e+00 7.552266e+01 
2.181600e+00 7.380372e+01 
2.216930e+00 7.214278e+01 
2.250760e+00 7.059374e+01 
2.286500e+00 6.900565e+01 
2.321770e+00 6.749612e+01 
2.355950e+00 6.608501e+01 
2.391280e+00 6.465661e+01 
2.426240e+00 6.328422e+01 
2.460670e+00 6.197212e+01 
2.495640e+00 6.067875e+01 
2.531080e+00 5.941200e+01 
2.566220e+00 5.818455e+01 
2.600830e+00 5.701147e+01 
2.635080e+00 5.588777e+01 
2.670340e+00 5.475167e+01 
2.705970e+00 5.364122e+01 
2.740040e+00 5.261168e+01 
2.774520e+00 5.159554e+01 
2.809730e+00 5.058504e+01 
2.844390e+00 4.961746e+01 
2.879960e+00 4.864966e+01 
2.914860e+00 4.772437e+01 
2.949410e+00 4.683287e+01 
2.984440e+00 4.595072e+01 
3.019760e+00 4.508766e+01 
3.054730e+00 4.425764e+01 
3.089030e+00 4.345649e+01 
3.124060e+00 4.266157e+01 
3.159560e+00 4.187913e+01 
3.194710e+00 4.111871e+01 
3.229010e+00 4.039491e+01 
3.263320e+00 3.969078e+01 
3.297930e+00 3.899818e+01 
3.332830e+00 3.831573e+01 
3.368040e+00 3.764344e+01 
3.403300e+00 3.698651e+01 
3.438450e+00 3.634600e+01 
3.473060e+00 3.573097e+01 
3.508440e+00 3.511913e+01 
3.543110e+00 3.453388e+01 
3.577470e+00 3.396268e+01 
3.613040e+00 3.338634e+01 
3.648120e+00 3.283267e+01 
3.682910e+00 3.229618e+01 
3.718050e+00 3.176580e+01 
3.753320e+00 3.124545e+01 
3.787980e+00 3.074493e+01 
3.822290e+00 3.026145e+01 
3.857020e+00 2.978397e+01 
3.891920e+00 2.931352e+01 
3.926650e+00 2.885290e+01 
3.961970e+00 2.839558e+01 
3.997360e+00 2.794864e+01 
4.031670e+00 2.752482e+01 
4.066330e+00 2.710479e+01 
4.101420e+00 2.668906e+01 
4.136200e+00 2.628665e+01 
4.170810e+00 2.589495e+01 
4.206250e+00 2.550115e+01 
4.241580e+00 2.511693e+01 
4.276300e+00 2.474715e+01 
4.310970e+00 2.438555e+01 
4.346120e+00 2.402657e+01 
4.380600e+00 2.368158e+01 
4.414730e+00 2.334708e+01 
4.450350e+00 2.300466e+01 
4.485320e+00 2.267550e+01 
4.519810e+00 2.235726e+01 
4.555430e+00 2.203521e+01 
4.590870e+00 2.172131e+01 
4.625480e+00 2.142081e+01 
4.659910e+00 2.112776e+01 
4.695230e+00 2.083293e+01 
4.729960e+00 2.054871e+01 
4.764450e+00 2.027189e+01 
4.799530e+00 1.999574e+01 
4.834910e+00 1.972264e+01 
4.869700e+00 1.945925e+01 
4.904370e+00 1.920173e+01 
4.939450e+00 1.894609e+01 
4.973940e+00 1.869948e+01 
5.008430e+00 1.845741e+01 
5.043810e+00 1.821380e+01 
5.078840e+00 1.797713e+01 
5.113500e+00 1.774723e+01 
5.148890e+00 1.751681e+01 
5.184210e+00 1.729105e+01 
5.219060e+00 1.707237e+01 
5.253660e+00 1.685926e+01 
5.288570e+00 1.664803e+01 
5.323420e+00 1.644098e+01 
5.358440e+00 1.623668e+01 
5.393590e+00 1.603521e+01 
5.428310e+00 1.583979e+01 
5.462800e+00 1.564905e+01 
5.497640e+00 1.545965e+01 
5.532670e+00 1.527266e+01 
5.567280e+00 1.509110e+01 
5.602000e+00 1.491200e+01 
5.637270e+00 1.473328e+01 
5.672410e+00 1.455824e+01 
5.707020e+00 1.438868e+01 
5.742040e+00 1.422018e+01 
5.777430e+00 1.405276e+01 
5.812210e+00 1.389090e+01 
5.846820e+00 1.373256e+01 
5.881610e+00 1.357596e+01 
5.916510e+00 1.342138e+01 
5.951600e+00 1.326870e+01 
5.986560e+00 1.311912e+01 
6.021830e+00 1.297059e+01 
6.056490e+00 1.282705e+01 
6.091160e+00 1.268579e+01 
6.125830e+00 1.254670e+01 
6.161090e+00 1.240750e+01 
6.195760e+00 1.227289e+01 
6.230420e+00 1.214035e+01 
6.265690e+00 1.200754e+01 
6.300950e+00 1.187713e+01 
6.335620e+00 1.175082e+01 
6.370880e+00 1.162428e+01 
6.405550e+00 1.150183e+01 
6.440220e+00 1.138124e+01 
6.475480e+00 1.126039e+01 
6.510150e+00 1.114339e+01 
6.544810e+00 1.102833e+01 
6.580080e+00 1.091293e+01 
6.614750e+00 1.080113e+01 
6.649410e+00 1.069114e+01 
6.684080e+00 1.058272e+01 
6.719340e+00 1.047401e+01 
6.754010e+00 1.036869e+01 
6.788680e+00 1.026501e+01 
6.823940e+00 1.016104e+01 
6.859800e+00 1.005679e+01 
6.894470e+00 9.957560e+00 
6.929140e+00 9.859739e+00 
6.963800e+00 9.763274e+00 
6.999070e+00 9.666466e+00 
7.033730e+00 9.572874e+00 
7.068400e+00 9.480508e+00 
7.103660e+00 9.387831e+00 
7.138330e+00 9.297987e+00 
7.173600e+00 9.207936e+00 
7.208260e+00 9.120615e+00 
7.243530e+00 9.032928e+00 
7.277600e+00 8.949436e+00 
7.312860e+00 8.864248e+00 
7.348120e+00 8.780176e+00 
7.382790e+00 8.698582e+00 
7.417460e+00 8.618157e+00 
7.452720e+00 8.537477e+00 
7.487390e+00 8.459161e+00 
7.522650e+00 8.380526e+00 
7.557320e+00 8.304326e+00 
7.591990e+00 8.229132e+00 
7.627250e+00 8.153618e+00 
7.662510e+00 8.079055e+00 
7.697180e+00 8.006782e+00 
7.731850e+00 7.935447e+00 
7.766510e+00 7.865004e+00 
7.801180e+00 7.795399e+00 
7.836440e+00 7.725566e+00 
7.871110e+00 7.657793e+00 
7.906380e+00 7.589683e+00 
7.941040e+00 7.523560e+00 
7.976310e+00 7.457147e+00 
8.011570e+00 7.391628e+00 
8.046240e+00 7.327975e+00 
8.080900e+00 7.265091e+00 
8.115570e+00 7.202968e+00 
8.150830e+00 7.140689e+00 
8.185500e+00 7.080170e+00 
8.220770e+00 7.019324e+00 
8.255430e+00 6.960227e+00 
8.290100e+00 6.901881e+00 
8.324770e+00 6.844214e+00 
8.359430e+00 6.787221e+00 
8.394700e+00 6.729891e+00 
8.429960e+00 6.673308e+00 
8.464630e+00 6.618379e+00 
8.499890e+00 6.563148e+00 
8.534560e+00 6.509454e+00 
8.569200e+00 6.456405e+00 
