# Parameters:
# omega_b = 0.022854, omega_m = 0.121929, n_s = 1.043701, h = 78.385827, w = -1.000000, sigma_8 = 0.726772
# z = 0.700000
#
# k[1/Mpc] # P(k):
8.694000e-04 6.213995e+03 
2.077466e-03 1.398014e+04 
3.285532e-03 2.019810e+04 
4.493598e-03 2.497764e+04 
5.701664e-03 2.848748e+04 
6.909730e-03 3.092047e+04 
8.117797e-03 3.250697e+04 
9.325863e-03 3.336843e+04 
1.053393e-02 3.362785e+04 
1.174199e-02 3.340166e+04 
1.295006e-02 3.276567e+04 
1.415813e-02 3.182262e+04 
1.536619e-02 3.065948e+04 
1.657426e-02 2.933707e+04 
1.778233e-02 2.790255e+04 
1.899039e-02 2.642275e+04 
2.019846e-02 2.495382e+04 
2.140652e-02 2.354612e+04 
2.261459e-02 2.221615e+04 
2.382266e-02 2.098161e+04 
2.503072e-02 1.985362e+04 
2.623879e-02 1.883462e+04 
2.744685e-02 1.792599e+04 
2.865492e-02 1.712256e+04 
2.986299e-02 1.641631e+04 
3.100100e-02 1.583728e+04 
3.220400e-02 1.530469e+04 
3.288100e-02 1.503999e+04 
3.424300e-02 1.456978e+04 
3.555100e-02 1.418248e+04 
3.686000e-02 1.384692e+04 
3.795000e-02 1.359698e+04 
3.929100e-02 1.331733e+04 
4.039800e-02 1.309864e+04 
4.164000e-02 1.285924e+04 
4.294400e-02 1.260020e+04 
4.415000e-02 1.235461e+04 
4.542900e-02 1.207189e+04 
4.660900e-02 1.179864e+04 
4.782300e-02 1.148774e+04 
4.892900e-02 1.119123e+04 
5.031200e-02 1.079870e+04 
5.155900e-02 1.042536e+04 
5.238100e-02 1.017309e+04 
5.378200e-02 9.736785e+03 
5.513400e-02 9.312276e+03 
5.627600e-02 8.956952e+03 
5.735300e-02 8.629520e+03 
5.870100e-02 8.234798e+03 
5.988700e-02 7.905753e+03 
6.113500e-02 7.580429e+03 
6.225900e-02 7.308374e+03 
6.340100e-02 7.053897e+03 
6.480200e-02 6.770149e+03 
6.601100e-02 6.553804e+03 
6.725500e-02 6.356806e+03 
6.829100e-02 6.214044e+03 
6.958600e-02 6.055878e+03 
7.071100e-02 5.938133e+03 
7.192300e-02 5.828042e+03 
7.307400e-02 5.737579e+03 
7.412300e-02 5.665139e+03 
7.550400e-02 5.582460e+03 
7.663100e-02 5.521780e+03 
7.791200e-02 5.458889e+03 
7.912700e-02 5.400970e+03 
8.027600e-02 5.345655e+03 
8.138400e-02 5.290562e+03 
8.272200e-02 5.219735e+03 
8.406100e-02 5.142795e+03 
8.534100e-02 5.060313e+03 
8.653800e-02 4.975151e+03 
8.759800e-02 4.895257e+03 
8.900300e-02 4.782257e+03 
9.009000e-02 4.689126e+03 
9.113300e-02 4.595335e+03 
9.239600e-02 4.479745e+03 
9.358000e-02 4.368868e+03 
9.496100e-02 4.237505e+03 
9.608400e-02 4.131831e+03 
9.727500e-02 4.021645e+03 
9.852600e-02 3.908462e+03 
9.973800e-02 3.803307e+03 
1.009000e-01 3.706443e+03 
1.020900e-01 3.614238e+03 
1.034000e-01 3.518810e+03 
1.046000e-01 3.437150e+03 
1.057200e-01 3.369175e+03 
1.069100e-01 3.301346e+03 
1.082500e-01 3.234279e+03 
1.093900e-01 3.183332e+03 
1.105400e-01 3.135856e+03 
1.116900e-01 3.095489e+03 
1.129600e-01 3.053952e+03 
1.142000e-01 3.018915e+03 
1.153300e-01 2.989018e+03 
1.166400e-01 2.957157e+03 
1.177800e-01 2.930659e+03 
1.190000e-01 2.903252e+03 
1.201200e-01 2.877334e+03 
1.213400e-01 2.849538e+03 
1.227100e-01 2.815029e+03 
1.238900e-01 2.784955e+03 
1.250700e-01 2.751906e+03 
1.263200e-01 2.716117e+03 
1.275500e-01 2.678180e+03 
1.287500e-01 2.640252e+03 
1.299900e-01 2.599161e+03 
1.311300e-01 2.560868e+03 
1.323500e-01 2.518742e+03 
1.335900e-01 2.476045e+03 
1.347100e-01 2.437171e+03 
1.359800e-01 2.393808e+03 
1.372100e-01 2.352200e+03 
1.384300e-01 2.311980e+03 
1.395700e-01 2.275403e+03 
1.407700e-01 2.237868e+03 
1.420300e-01 2.200396e+03 
1.432800e-01 2.164094e+03 
1.444500e-01 2.132433e+03 
1.456300e-01 2.101180e+03 
1.468900e-01 2.070038e+03 
1.480500e-01 2.042420e+03 
1.491700e-01 2.017078e+03 
1.503800e-01 1.991258e+03 
1.516400e-01 1.965243e+03 
1.528200e-01 1.942755e+03 
1.540200e-01 1.920327e+03 
1.551900e-01 1.899917e+03 
1.564300e-01 1.878952e+03 
1.576600e-01 1.858920e+03 
1.588700e-01 1.840023e+03 
1.600900e-01 1.821337e+03 
1.612700e-01 1.803813e+03 
1.625400e-01 1.785301e+03 
1.637600e-01 1.767642e+03 
1.649500e-01 1.750605e+03 
1.662200e-01 1.732637e+03 
1.674000e-01 1.715604e+03 
1.685000e-01 1.699990e+03 
1.697500e-01 1.682032e+03 
1.710300e-01 1.663464e+03 
1.722200e-01 1.646509e+03 
1.734400e-01 1.628377e+03 
1.746400e-01 1.610810e+03 
1.758700e-01 1.592840e+03 
1.770900e-01 1.574765e+03 
1.782700e-01 1.557582e+03 
1.794600e-01 1.540229e+03 
1.807000e-01 1.522244e+03 
1.819100e-01 1.504999e+03 
1.830100e-01 1.489461e+03 
1.842200e-01 1.472627e+03 
1.855000e-01 1.455137e+03 
1.867000e-01 1.439207e+03 
1.879200e-01 1.423282e+03 
1.890900e-01 1.408327e+03 
1.902800e-01 1.393716e+03 
1.915200e-01 1.378738e+03 
1.926900e-01 1.364954e+03 
1.939000e-01 1.351320e+03 
1.951700e-01 1.337240e+03 
1.963100e-01 1.324928e+03 
1.975100e-01 1.312511e+03 
1.987800e-01 1.299575e+03 
2.000100e-01 1.287354e+03 
2.012500e-01 1.275481e+03 
2.023400e-01 1.265195e+03 
2.036100e-01 1.253426e+03 
2.048900e-01 1.241919e+03 
2.060400e-01 1.231733e+03 
2.072200e-01 1.221430e+03 
2.084200e-01 1.211143e+03 
2.096900e-01 1.200415e+03 
2.109200e-01 1.190178e+03 
2.121100e-01 1.180326e+03 
2.132700e-01 1.170850e+03 
2.145200e-01 1.160781e+03 
2.157200e-01 1.151161e+03 
2.168800e-01 1.141946e+03 
2.180700e-01 1.132620e+03 
2.193400e-01 1.122746e+03 
2.206000e-01 1.112979e+03 
2.217500e-01 1.104186e+03 
2.229500e-01 1.095132e+03 
2.241400e-01 1.086152e+03 
2.253500e-01 1.077141e+03 
2.264900e-01 1.068761e+03 
2.277100e-01 1.059876e+03 
2.289900e-01 1.050643e+03 
2.301500e-01 1.042387e+03 
2.313600e-01 1.033887e+03 
2.325600e-01 1.025555e+03 
2.337700e-01 1.017262e+03 
2.350000e-01 1.008943e+03 
2.362000e-01 1.000947e+03 
2.374100e-01 9.930050e+02 
2.386500e-01 9.849716e+02 
2.399100e-01 9.769157e+02 
2.410400e-01 9.698475e+02 
2.422500e-01 9.623792e+02 
2.435000e-01 9.547619e+02 
2.447300e-01 9.473784e+02 
2.458700e-01 9.406838e+02 
2.470600e-01 9.337782e+02 
2.483300e-01 9.264999e+02 
2.495600e-01 9.195762e+02 
2.507600e-01 9.129538e+02 
2.519600e-01 9.064102e+02 
2.532200e-01 8.996228e+02 
2.543700e-01 8.935445e+02 
2.555500e-01 8.874078e+02 
2.568000e-01 8.809837e+02 
2.580100e-01 8.748392e+02 
2.592400e-01 8.687052e+02 
2.604100e-01 8.629544e+02 
2.616100e-01 8.571226e+02 
2.628400e-01 8.512139e+02 
2.640600e-01 8.454475e+02 
2.652200e-01 8.400365e+02 
2.664300e-01 8.344546e+02 
2.676500e-01 8.288902e+02 
2.688400e-01 8.235356e+02 
2.700700e-01 8.180705e+02 
2.712400e-01 8.129292e+02 
2.724800e-01 8.075400e+02 
2.736700e-01 8.024265e+02 
2.748800e-01 7.972846e+02 
2.761000e-01 7.921569e+02 
2.773200e-01 7.870852e+02 
2.785400e-01 7.820676e+02 
2.797000e-01 7.773450e+02 
2.808900e-01 7.725506e+02 
2.821400e-01 7.675685e+02 
2.833900e-01 7.626405e+02 
2.845500e-01 7.581057e+02 
2.857800e-01 7.533471e+02 
2.870300e-01 7.485631e+02 
2.882100e-01 7.440943e+02 
2.893900e-01 7.396676e+02 
2.906300e-01 7.350623e+02 
2.918900e-01 7.304326e+02 
2.930500e-01 7.262140e+02 
2.942500e-01 7.218911e+02 
2.954200e-01 7.177108e+02 
2.966500e-01 7.133603e+02 
2.978900e-01 7.090197e+02 
2.990400e-01 7.050341e+02 
3.002700e-01 7.008123e+02 
3.015100e-01 6.965990e+02 
3.026800e-01 6.926630e+02 
3.038500e-01 6.887646e+02 
3.050300e-01 6.848705e+02 
3.062600e-01 6.808518e+02 
3.075000e-01 6.768409e+02 
3.087000e-01 6.729975e+02 
3.099100e-01 6.691595e+02 
3.111200e-01 6.653613e+02 
3.123100e-01 6.616663e+02 
3.135300e-01 6.579143e+02 
3.147300e-01 6.542591e+02 
3.159900e-01 6.504582e+02 
3.171800e-01 6.469076e+02 
3.183700e-01 6.433929e+02 
3.196300e-01 6.397069e+02 
3.208400e-01 6.362011e+02 
3.220300e-01 6.327850e+02 
3.232000e-01 6.294682e+02 
3.244300e-01 6.260176e+02 
3.256700e-01 6.225718e+02 
3.269200e-01 6.191309e+02 
3.280800e-01 6.159669e+02 
3.292500e-01 6.128151e+02 
3.304800e-01 6.095350e+02 
3.317100e-01 6.062850e+02 
3.328900e-01 6.031951e+02 
3.340700e-01 6.001323e+02 
3.353600e-01 5.968288e+02 
3.365300e-01 5.938650e+02 
3.377100e-01 5.909017e+02 
3.389200e-01 5.878896e+02 
3.401600e-01 5.848303e+02 
3.413700e-01 5.818820e+02 
3.425300e-01 5.790869e+02 
3.437700e-01 5.761248e+02 
3.449800e-01 5.732598e+02 
3.461800e-01 5.704429e+02 
3.473600e-01 5.677025e+02 
3.485800e-01 5.649080e+02 
3.498100e-01 5.621150e+02 
3.510200e-01 5.593910e+02 
3.522000e-01 5.567568e+02 
3.533900e-01 5.541222e+02 
3.546400e-01 5.513949e+02 
3.558400e-01 5.487999e+02 
3.570600e-01 5.461837e+02 
3.582700e-01 5.436107e+02 
3.595000e-01 5.410170e+02 
3.607100e-01 5.384958e+02 
3.618900e-01 5.360640e+02 
3.631200e-01 5.335500e+02 
3.643200e-01 5.311174e+02 
3.655500e-01 5.286445e+02 
3.667300e-01 5.262913e+02 
3.679500e-01 5.238923e+02 
3.691900e-01 5.214740e+02 
3.703600e-01 5.192104e+02 
3.715700e-01 5.168880e+02 
3.727700e-01 5.146031e+02 
3.739900e-01 5.123044e+02 
3.752000e-01 5.100533e+02 
3.763900e-01 5.078568e+02 
3.775800e-01 5.056773e+02 
3.788200e-01 5.034242e+02 
3.800300e-01 5.012430e+02 
3.812100e-01 4.991374e+02 
3.824200e-01 4.969983e+02 
3.836100e-01 4.949107e+02 
3.848600e-01 4.927349e+02 
3.860400e-01 4.906970e+02 
3.872400e-01 4.886401e+02 
3.884600e-01 4.865737e+02 
3.896500e-01 4.845767e+02 
3.908700e-01 4.825449e+02 
3.920600e-01 4.805780e+02 
3.933100e-01 4.785277e+02 
3.945300e-01 4.765420e+02 
3.957200e-01 4.746266e+02 
3.969300e-01 4.726954e+02 
3.981700e-01 4.707312e+02 
3.993500e-01 4.688761e+02 
4.094840e-01 4.534946e+02 
4.272360e-01 4.288558e+02 
4.454600e-01 4.060905e+02 
4.630560e-01 3.861937e+02 
4.804610e-01 3.682396e+02 
4.980690e-01 3.515999e+02 
5.159230e-01 3.361021e+02 
5.317440e-01 3.233985e+02 
5.489640e-01 3.105647e+02 
5.671990e-01 2.980026e+02 
5.838690e-01 2.873396e+02 
6.018840e-01 2.766294e+02 
6.202330e-01 2.665172e+02 
6.379250e-01 2.574330e+02 
6.545410e-01 2.494768e+02 
6.714560e-01 2.418726e+02 
6.892080e-01 2.344068e+02 
7.066010e-01 2.275510e+02 
7.240540e-01 2.210787e+02 
7.420450e-01 2.148203e+02 
7.593780e-01 2.091400e+02 
7.764720e-01 2.038425e+02 
7.942840e-01 1.986251e+02 
8.116170e-01 1.938211e+02 
8.288310e-01 1.892938e+02 
8.462240e-01 1.849425e+02 
8.631980e-01 1.808964e+02 
8.810700e-01 1.768350e+02 
8.989410e-01 1.729624e+02 
9.166330e-01 1.692982e+02 
9.345640e-01 1.657452e+02 
9.515980e-01 1.625069e+02 
9.688720e-01 1.593518e+02 
9.865640e-01 1.562455e+02 
1.031870e+00 1.488063e+02 
1.063490e+00 1.439921e+02 
1.097920e+00 1.391012e+02 
1.134370e+00 1.342148e+02 
1.167730e+00 1.300168e+02 
1.203830e+00 1.257198e+02 
1.240470e+00 1.216121e+02 
1.275790e+00 1.178450e+02 
1.309140e+00 1.144739e+02 
1.342970e+00 1.111933e+02 
1.378420e+00 1.079299e+02 
1.413200e+00 1.048707e+02 
1.448110e+00 1.019249e+02 
1.484090e+00 9.903441e+01 
1.518820e+00 9.634774e+01 
1.552880e+00 9.382860e+01 
1.588630e+00 9.127954e+01 
1.623230e+00 8.891995e+01 
1.657720e+00 8.665552e+01 
1.692450e+00 8.447547e+01 
1.726400e+00 8.240161e+01 
1.762200e+00 8.029490e+01 
1.797880e+00 7.828139e+01 
1.833270e+00 7.634722e+01 
1.869070e+00 7.446967e+01 
1.903200e+00 7.273993e+01 
1.937740e+00 7.104677e+01 
1.973190e+00 6.936599e+01 
2.007440e+00 6.779770e+01 
2.042160e+00 6.626526e+01 
2.077900e+00 6.472905e+01 
2.112390e+00 6.330402e+01 
2.146220e+00 6.193548e+01 
2.181600e+00 6.055780e+01 
2.216930e+00 5.922550e+01 
2.250760e+00 5.798241e+01 
2.286500e+00 5.670740e+01 
2.321770e+00 5.549465e+01 
2.355950e+00 5.436051e+01 
2.391280e+00 5.321213e+01 
2.426240e+00 5.210787e+01 
2.460670e+00 5.105142e+01 
2.495640e+00 5.000958e+01 
2.531080e+00 4.898875e+01 
2.566220e+00 4.799860e+01 
2.600830e+00 4.705181e+01 
2.635080e+00 4.614455e+01 
2.670340e+00 4.522654e+01 
2.705970e+00 4.432867e+01 
2.740040e+00 4.349579e+01 
2.774520e+00 4.267353e+01 
2.809730e+00 4.185514e+01 
2.844390e+00 4.107105e+01 
2.879960e+00 4.028625e+01 
2.914860e+00 3.953538e+01 
2.949410e+00 3.881156e+01 
2.984440e+00 3.809479e+01 
3.019760e+00 3.739321e+01 
3.054730e+00 3.671823e+01 
3.089030e+00 3.606600e+01 
3.124060e+00 3.541860e+01 
3.159560e+00 3.478105e+01 
3.194710e+00 3.416091e+01 
3.229010e+00 3.357039e+01 
3.263320e+00 3.299548e+01 
3.297930e+00 3.242976e+01 
3.332830e+00 3.187194e+01 
3.368040e+00 3.132209e+01 
3.403300e+00 3.078456e+01 
3.438450e+00 3.026001e+01 
3.473060e+00 2.975618e+01 
3.508440e+00 2.925457e+01 
3.543110e+00 2.877462e+01 
3.577470e+00 2.830573e+01 
3.613040e+00 2.783248e+01 
3.648120e+00 2.737755e+01 
3.682910e+00 2.693657e+01 
3.718050e+00 2.650033e+01 
3.753320e+00 2.607213e+01 
3.787980e+00 2.565998e+01 
3.822290e+00 2.526169e+01 
3.857020e+00 2.486815e+01 
3.891920e+00 2.448023e+01 
3.926650e+00 2.410014e+01 
3.961970e+00 2.372264e+01 
3.997360e+00 2.335348e+01 
4.031670e+00 2.300333e+01 
4.066330e+00 2.265603e+01 
4.101420e+00 2.231224e+01 
4.136200e+00 2.197920e+01 
4.170810e+00 2.165501e+01 
4.206250e+00 2.132882e+01 
4.241580e+00 2.101049e+01 
4.276300e+00 2.070395e+01 
4.310970e+00 2.040408e+01 
4.346120e+00 2.010628e+01 
4.380600e+00 1.981992e+01 
4.414730e+00 1.954225e+01 
4.450350e+00 1.925776e+01 
4.485320e+00 1.898426e+01 
4.519810e+00 1.871968e+01 
4.555430e+00 1.845185e+01 
4.590870e+00 1.819073e+01 
4.625480e+00 1.794063e+01 
4.659910e+00 1.769671e+01 
4.695230e+00 1.745114e+01 
4.729960e+00 1.721437e+01 
4.764450e+00 1.698370e+01 
4.799530e+00 1.675348e+01 
4.834910e+00 1.652579e+01 
4.869700e+00 1.630605e+01 
4.904370e+00 1.609118e+01 
4.939450e+00 1.587783e+01 
4.973940e+00 1.567191e+01 
5.008430e+00 1.546977e+01 
5.043810e+00 1.526626e+01 
5.078840e+00 1.506850e+01 
5.113500e+00 1.487639e+01 
5.148890e+00 1.468373e+01 
5.184210e+00 1.449497e+01 
5.219060e+00 1.431209e+01 
5.253660e+00 1.413379e+01 
5.288570e+00 1.395706e+01 
5.323420e+00 1.378378e+01 
5.358440e+00 1.361274e+01 
5.393590e+00 1.344406e+01 
5.428310e+00 1.328040e+01 
5.462800e+00 1.312063e+01 
5.497640e+00 1.296198e+01 
5.532670e+00 1.280530e+01 
5.567280e+00 1.265314e+01 
5.602000e+00 1.250304e+01 
5.637270e+00 1.235321e+01 
5.672410e+00 1.220645e+01 
5.707020e+00 1.206428e+01 
5.742040e+00 1.192296e+01 
5.777430e+00 1.178253e+01 
5.812210e+00 1.164677e+01 
5.846820e+00 1.151392e+01 
5.881610e+00 1.138252e+01 
5.916510e+00 1.125281e+01 
5.951600e+00 1.112468e+01 
5.986560e+00 1.099913e+01 
6.021830e+00 1.087447e+01 
6.056490e+00 1.075398e+01 
6.091160e+00 1.063539e+01 
6.125830e+00 1.051862e+01 
6.161090e+00 1.040175e+01 
6.195760e+00 1.028872e+01 
6.230420e+00 1.017743e+01 
6.265690e+00 1.006590e+01 
6.300950e+00 9.956374e+00 
6.335620e+00 9.850295e+00 
6.370880e+00 9.744018e+00 
6.405550e+00 9.641181e+00 
6.440220e+00 9.539895e+00 
6.475480e+00 9.438398e+00 
6.510150e+00 9.340133e+00 
6.544810e+00 9.243486e+00 
6.580080e+00 9.146559e+00 
6.614750e+00 9.052651e+00 
6.649410e+00 8.960268e+00 
6.684080e+00 8.869195e+00 
6.719340e+00 8.777884e+00 
6.754010e+00 8.689430e+00 
6.788680e+00 8.602352e+00 
6.823940e+00 8.515028e+00 
6.859800e+00 8.427474e+00 
6.894470e+00 8.344139e+00 
6.929140e+00 8.261989e+00 
6.963800e+00 8.180979e+00 
6.999070e+00 8.099682e+00 
7.033730e+00 8.021097e+00 
7.068400e+00 7.943542e+00 
7.103660e+00 7.865728e+00 
7.138330e+00 7.790295e+00 
7.173600e+00 7.714696e+00 
7.208260e+00 7.641389e+00 
7.243530e+00 7.567776e+00 
7.277600e+00 7.497694e+00 
7.312860e+00 7.426195e+00 
7.348120e+00 7.355635e+00 
7.382790e+00 7.287154e+00 
7.417460e+00 7.219667e+00 
7.452720e+00 7.151974e+00 
7.487390e+00 7.086264e+00 
7.522650e+00 7.020287e+00 
7.557320e+00 6.956368e+00 
7.591990e+00 6.893297e+00 
7.627250e+00 6.829959e+00 
7.662510e+00 6.767420e+00 
7.697180e+00 6.706815e+00 
7.731850e+00 6.647003e+00 
7.766510e+00 6.587939e+00 
7.801180e+00 6.529579e+00 
7.836440e+00 6.471039e+00 
7.871110e+00 6.414233e+00 
7.906380e+00 6.357146e+00 
7.941040e+00 6.301725e+00 
7.976310e+00 6.246071e+00 
8.011570e+00 6.191184e+00 
8.046240e+00 6.137859e+00 
8.080900e+00 6.085177e+00 
8.115570e+00 6.033138e+00 
8.150830e+00 5.980982e+00 
8.185500e+00 5.930301e+00 
8.220770e+00 5.879346e+00 
8.255430e+00 5.829855e+00 
8.290100e+00 5.781019e+00 
8.324770e+00 5.732754e+00 
8.359430e+00 5.685053e+00 
8.394700e+00 5.637069e+00 
8.429960e+00 5.589722e+00 
8.464630e+00 5.543769e+00 
8.499890e+00 5.497563e+00 
8.534560e+00 5.452643e+00 
8.569200e+00 5.408262e+00 
