# Parameters:
# omega_b = 0.021957, omega_m = 0.129646, n_s = 0.991732, h = 73.661417, w = -1.000000, sigma_8 = 0.802362
# z = 0.700000
#
# k[1/Mpc] # P(k):
8.694000e-04 8.090325e+03 
2.077466e-03 1.752784e+04 
3.285532e-03 2.490292e+04 
4.493598e-03 3.051587e+04 
5.701664e-03 3.462183e+04 
6.909730e-03 3.746807e+04 
8.117797e-03 3.933196e+04 
9.325863e-03 4.035921e+04 
1.053393e-02 4.069450e+04 
1.174199e-02 4.047295e+04 
1.295006e-02 3.978056e+04 
1.415813e-02 3.873329e+04 
1.536619e-02 3.742911e+04 
1.657426e-02 3.593539e+04 
1.778233e-02 3.430474e+04 
1.899039e-02 3.260976e+04 
2.019846e-02 3.091171e+04 
2.140652e-02 2.927054e+04 
2.261459e-02 2.770632e+04 
2.382266e-02 2.624087e+04 
2.503072e-02 2.488918e+04 
2.623879e-02 2.365578e+04 
2.744685e-02 2.254228e+04 
2.865492e-02 2.154608e+04 
2.986299e-02 2.065954e+04 
3.100100e-02 1.992198e+04 
3.220400e-02 1.923372e+04 
3.288100e-02 1.888682e+04 
3.424300e-02 1.826247e+04 
3.555100e-02 1.774027e+04 
3.686000e-02 1.728166e+04 
3.795000e-02 1.693742e+04 
3.929100e-02 1.655158e+04 
4.039800e-02 1.625223e+04 
4.164000e-02 1.592875e+04 
4.294400e-02 1.558815e+04 
4.415000e-02 1.527200e+04 
4.542900e-02 1.491864e+04 
4.660900e-02 1.458335e+04 
4.782300e-02 1.421046e+04 
4.892900e-02 1.385891e+04 
5.031200e-02 1.339850e+04 
5.155900e-02 1.296398e+04 
5.238100e-02 1.267125e+04 
5.378200e-02 1.216560e+04 
5.513400e-02 1.167310e+04 
5.627600e-02 1.125951e+04 
5.735300e-02 1.087666e+04 
5.870100e-02 1.041213e+04 
5.988700e-02 1.002177e+04 
6.113500e-02 9.632300e+03 
6.225900e-02 9.303004e+03 
6.340100e-02 8.991261e+03 
6.480200e-02 8.639186e+03 
6.601100e-02 8.365585e+03 
6.725500e-02 8.111785e+03 
6.829100e-02 7.923543e+03 
6.958600e-02 7.711079e+03 
7.071100e-02 7.548592e+03 
7.192300e-02 7.392863e+03 
7.307400e-02 7.261588e+03 
7.412300e-02 7.154117e+03 
7.550400e-02 7.028674e+03 
7.663100e-02 6.935579e+03 
7.791200e-02 6.839192e+03 
7.912700e-02 6.752625e+03 
8.027600e-02 6.672632e+03 
8.138400e-02 6.595724e+03 
8.272200e-02 6.501056e+03 
8.406100e-02 6.402616e+03 
8.534100e-02 6.301584e+03 
8.653800e-02 6.200214e+03 
8.759800e-02 6.106504e+03 
8.900300e-02 5.975665e+03 
9.009000e-02 5.868746e+03 
9.113300e-02 5.761391e+03 
9.239600e-02 5.629100e+03 
9.358000e-02 5.501982e+03 
9.496100e-02 5.350577e+03 
9.608400e-02 5.228091e+03 
9.727500e-02 5.099757e+03 
9.852600e-02 4.966370e+03 
9.973800e-02 4.841536e+03 
1.009000e-01 4.725786e+03 
1.020900e-01 4.613749e+03 
1.034000e-01 4.496800e+03 
1.046000e-01 4.395682e+03 
1.057200e-01 4.309715e+03 
1.069100e-01 4.223234e+03 
1.082500e-01 4.135684e+03 
1.093900e-01 4.067882e+03 
1.105400e-01 4.003886e+03 
1.116900e-01 3.947714e+03 
1.129600e-01 3.889317e+03 
1.142000e-01 3.838674e+03 
1.153300e-01 3.795165e+03 
1.166400e-01 3.748317e+03 
1.177800e-01 3.709602e+03 
1.190000e-01 3.669658e+03 
1.201200e-01 3.633188e+03 
1.213400e-01 3.594285e+03 
1.227100e-01 3.548595e+03 
1.238900e-01 3.509317e+03 
1.250700e-01 3.467869e+03 
1.263200e-01 3.423578e+03 
1.275500e-01 3.377883e+03 
1.287500e-01 3.332694e+03 
1.299900e-01 3.284479e+03 
1.311300e-01 3.239786e+03 
1.323500e-01 3.190967e+03 
1.335900e-01 3.141503e+03 
1.347100e-01 3.096500e+03 
1.359800e-01 3.046164e+03 
1.372100e-01 2.997633e+03 
1.384300e-01 2.950518e+03 
1.395700e-01 2.907247e+03 
1.407700e-01 2.862742e+03 
1.420300e-01 2.817572e+03 
1.432800e-01 2.773788e+03 
1.444500e-01 2.734781e+03 
1.456300e-01 2.696266e+03 
1.468900e-01 2.657278e+03 
1.480500e-01 2.622509e+03 
1.491700e-01 2.590320e+03 
1.503800e-01 2.557153e+03 
1.516400e-01 2.523641e+03 
1.528200e-01 2.494258e+03 
1.540200e-01 2.464954e+03 
1.551900e-01 2.438047e+03 
1.564300e-01 2.410347e+03 
1.576600e-01 2.383845e+03 
1.588700e-01 2.358801e+03 
1.600900e-01 2.334045e+03 
1.612700e-01 2.310969e+03 
1.625400e-01 2.286592e+03 
1.637600e-01 2.263548e+03 
1.649500e-01 2.241435e+03 
1.662200e-01 2.218183e+03 
1.674000e-01 2.196504e+03 
1.685000e-01 2.176633e+03 
1.697500e-01 2.153999e+03 
1.710300e-01 2.130811e+03 
1.722200e-01 2.109636e+03 
1.734400e-01 2.087356e+03 
1.746400e-01 2.065781e+03 
1.758700e-01 2.043785e+03 
1.770900e-01 2.021808e+03 
1.782700e-01 2.000913e+03 
1.794600e-01 1.979870e+03 
1.807000e-01 1.958100e+03 
1.819100e-01 1.937219e+03 
1.830100e-01 1.918385e+03 
1.842200e-01 1.897971e+03 
1.855000e-01 1.876750e+03 
1.867000e-01 1.857312e+03 
1.879200e-01 1.837873e+03 
1.890900e-01 1.819587e+03 
1.902800e-01 1.801581e+03 
1.915200e-01 1.783119e+03 
1.926900e-01 1.766082e+03 
1.939000e-01 1.749086e+03 
1.951700e-01 1.731531e+03 
1.963100e-01 1.716137e+03 
1.975100e-01 1.700493e+03 
1.987800e-01 1.684194e+03 
2.000100e-01 1.668761e+03 
2.012500e-01 1.653688e+03 
2.023400e-01 1.640628e+03 
2.036100e-01 1.625676e+03 
2.048900e-01 1.611018e+03 
2.060400e-01 1.598040e+03 
2.072200e-01 1.584916e+03 
2.084200e-01 1.571826e+03 
2.096900e-01 1.558174e+03 
2.109200e-01 1.545146e+03 
2.121100e-01 1.532660e+03 
2.132700e-01 1.520652e+03 
2.145200e-01 1.507892e+03 
2.157200e-01 1.495748e+03 
2.168800e-01 1.484137e+03 
2.180700e-01 1.472385e+03 
2.193400e-01 1.459963e+03 
2.206000e-01 1.447715e+03 
2.217500e-01 1.436686e+03 
2.229500e-01 1.425329e+03 
2.241400e-01 1.414104e+03 
2.253500e-01 1.402839e+03 
2.264900e-01 1.392362e+03 
2.277100e-01 1.381254e+03 
2.289900e-01 1.369714e+03 
2.301500e-01 1.359393e+03 
2.313600e-01 1.348765e+03 
2.325600e-01 1.338329e+03 
2.337700e-01 1.327942e+03 
2.350000e-01 1.317520e+03 
2.362000e-01 1.307484e+03 
2.374100e-01 1.297494e+03 
2.386500e-01 1.287388e+03 
2.399100e-01 1.277253e+03 
2.410400e-01 1.268321e+03 
2.422500e-01 1.258877e+03 
2.435000e-01 1.249245e+03 
2.447300e-01 1.239900e+03 
2.458700e-01 1.231396e+03 
2.470600e-01 1.222623e+03 
2.483300e-01 1.213376e+03 
2.495600e-01 1.204568e+03 
2.507600e-01 1.196126e+03 
2.519600e-01 1.187785e+03 
2.532200e-01 1.179133e+03 
2.543700e-01 1.171378e+03 
2.555500e-01 1.163544e+03 
2.568000e-01 1.155344e+03 
2.580100e-01 1.147499e+03 
2.592400e-01 1.139673e+03 
2.604100e-01 1.132337e+03 
2.616100e-01 1.124898e+03 
2.628400e-01 1.117360e+03 
2.640600e-01 1.110016e+03 
2.652200e-01 1.103129e+03 
2.664300e-01 1.096023e+03 
2.676500e-01 1.088940e+03 
2.688400e-01 1.082137e+03 
2.700700e-01 1.075203e+03 
2.712400e-01 1.068679e+03 
2.724800e-01 1.061840e+03 
2.736700e-01 1.055362e+03 
2.748800e-01 1.048858e+03 
2.761000e-01 1.042372e+03 
2.773200e-01 1.035956e+03 
2.785400e-01 1.029615e+03 
2.797000e-01 1.023658e+03 
2.808900e-01 1.017610e+03 
2.821400e-01 1.011325e+03 
2.833900e-01 1.005108e+03 
2.845500e-01 9.994011e+02 
2.857800e-01 9.934122e+02 
2.870300e-01 9.873908e+02 
2.882100e-01 9.817657e+02 
2.893900e-01 9.762007e+02 
2.906300e-01 9.704148e+02 
2.918900e-01 9.645977e+02 
2.930500e-01 9.592968e+02 
2.942500e-01 9.538658e+02 
2.954200e-01 9.486177e+02 
2.966500e-01 9.431556e+02 
2.978900e-01 9.377054e+02 
2.990400e-01 9.327006e+02 
3.002700e-01 9.274020e+02 
3.015100e-01 9.221151e+02 
3.026800e-01 9.171757e+02 
3.038500e-01 9.122832e+02 
3.050300e-01 9.073959e+02 
3.062600e-01 9.023533e+02 
3.075000e-01 8.973201e+02 
3.087000e-01 8.924967e+02 
3.099100e-01 8.876797e+02 
3.111200e-01 8.829125e+02 
3.123100e-01 8.782749e+02 
3.135300e-01 8.735653e+02 
3.147300e-01 8.689769e+02 
3.159900e-01 8.642052e+02 
3.171800e-01 8.597468e+02 
3.183700e-01 8.553329e+02 
3.196300e-01 8.507035e+02 
3.208400e-01 8.463000e+02 
3.220300e-01 8.420089e+02 
3.232000e-01 8.378406e+02 
3.244300e-01 8.335033e+02 
3.256700e-01 8.291716e+02 
3.269200e-01 8.248459e+02 
3.280800e-01 8.208680e+02 
3.292500e-01 8.169038e+02 
3.304800e-01 8.127776e+02 
3.317100e-01 8.086891e+02 
3.328900e-01 8.048018e+02 
3.340700e-01 8.009482e+02 
3.353600e-01 7.967890e+02 
3.365300e-01 7.930564e+02 
3.377100e-01 7.893242e+02 
3.389200e-01 7.855302e+02 
3.401600e-01 7.816766e+02 
3.413700e-01 7.779604e+02 
3.425300e-01 7.744358e+02 
3.437700e-01 7.707004e+02 
3.449800e-01 7.670872e+02 
3.461800e-01 7.635344e+02 
3.473600e-01 7.600771e+02 
3.485800e-01 7.565492e+02 
3.498100e-01 7.530230e+02 
3.510200e-01 7.495838e+02 
3.522000e-01 7.462577e+02 
3.533900e-01 7.429311e+02 
3.546400e-01 7.394828e+02 
3.558400e-01 7.362014e+02 
3.570600e-01 7.328930e+02 
3.582700e-01 7.296391e+02 
3.595000e-01 7.263589e+02 
3.607100e-01 7.231682e+02 
3.618900e-01 7.200891e+02 
3.631200e-01 7.169058e+02 
3.643200e-01 7.138255e+02 
3.655500e-01 7.106939e+02 
3.667300e-01 7.077138e+02 
3.679500e-01 7.046711e+02 
3.691900e-01 7.016037e+02 
3.703600e-01 6.987326e+02 
3.715700e-01 6.957867e+02 
3.727700e-01 6.928882e+02 
3.739900e-01 6.899710e+02 
3.752000e-01 6.871118e+02 
3.763900e-01 6.843218e+02 
3.775800e-01 6.815533e+02 
3.788200e-01 6.786912e+02 
3.800300e-01 6.759204e+02 
3.812100e-01 6.732429e+02 
3.824200e-01 6.705210e+02 
3.836100e-01 6.678646e+02 
3.848600e-01 6.650960e+02 
3.860400e-01 6.625025e+02 
3.872400e-01 6.598850e+02 
3.884600e-01 6.572533e+02 
3.896500e-01 6.547091e+02 
3.908700e-01 6.521206e+02 
3.920600e-01 6.496147e+02 
3.933100e-01 6.470024e+02 
3.945300e-01 6.444724e+02 
3.957200e-01 6.420269e+02 
3.969300e-01 6.395599e+02 
3.981700e-01 6.370507e+02 
3.993500e-01 6.346806e+02 
4.094840e-01 6.150135e+02 
4.272360e-01 5.834105e+02 
4.454600e-01 5.540989e+02 
4.630560e-01 5.283842e+02 
4.804610e-01 5.051225e+02 
4.980690e-01 4.835043e+02 
5.159230e-01 4.633405e+02 
5.317440e-01 4.467841e+02 
5.489640e-01 4.300415e+02 
5.671990e-01 4.136355e+02 
5.838690e-01 3.996957e+02 
6.018840e-01 3.856799e+02 
6.202330e-01 3.724154e+02 
6.379250e-01 3.604862e+02 
6.545410e-01 3.500112e+02 
6.714560e-01 3.399735e+02 
6.892080e-01 3.300959e+02 
7.066010e-01 3.209847e+02 
7.240540e-01 3.123544e+02 
7.420450e-01 3.039709e+02 
7.593780e-01 2.963294e+02 
7.764720e-01 2.891709e+02 
7.942840e-01 2.820858e+02 
8.116170e-01 2.755202e+02 
8.288310e-01 2.693023e+02 
8.462240e-01 2.632955e+02 
8.631980e-01 2.576792e+02 
8.810700e-01 2.520127e+02 
8.989410e-01 2.465810e+02 
9.166330e-01 2.414135e+02 
9.345640e-01 2.363740e+02 
9.515980e-01 2.317591e+02 
9.688720e-01 2.272401e+02 
9.865640e-01 2.227669e+02 
1.031870e+00 2.119880e+02 
1.063490e+00 2.049468e+02 
1.097920e+00 1.977468e+02 
1.134370e+00 1.905167e+02 
1.167730e+00 1.842687e+02 
1.203830e+00 1.778483e+02 
1.240470e+00 1.716893e+02 
1.275790e+00 1.660260e+02 
1.309140e+00 1.609496e+02 
1.342970e+00 1.559987e+02 
1.378420e+00 1.510718e+02 
1.413200e+00 1.464502e+02 
1.448110e+00 1.419983e+02 
1.484090e+00 1.376306e+02 
1.518820e+00 1.335760e+02 
1.552880e+00 1.297759e+02 
1.588630e+00 1.259381e+02 
1.623230e+00 1.223882e+02 
1.657720e+00 1.189867e+02 
1.692450e+00 1.157155e+02 
1.726400e+00 1.126108e+02 
1.762200e+00 1.094620e+02 
1.797880e+00 1.064596e+02 
1.833270e+00 1.035828e+02 
1.869070e+00 1.007942e+02 
1.903200e+00 9.823167e+01 
1.937740e+00 9.572937e+01 
1.973190e+00 9.324988e+01 
2.007440e+00 9.094329e+01 
2.042160e+00 8.869311e+01 
2.077900e+00 8.644441e+01 
2.112390e+00 8.436234e+01 
2.146220e+00 8.237000e+01 
2.181600e+00 8.036677e+01 
2.216930e+00 7.843553e+01 
2.250760e+00 7.663823e+01 
2.286500e+00 7.479922e+01 
2.321770e+00 7.305440e+01 
2.355950e+00 7.142567e+01 
2.391280e+00 6.978094e+01 
2.426240e+00 6.820406e+01 
2.460670e+00 6.669921e+01 
2.495640e+00 6.521824e+01 
2.531080e+00 6.377034e+01 
2.566220e+00 6.237077e+01 
2.600830e+00 6.103541e+01 
2.635080e+00 5.975795e+01 
2.670340e+00 5.846977e+01 
2.705970e+00 5.721262e+01 
2.740040e+00 5.604865e+01 
2.774520e+00 5.490170e+01 
2.809730e+00 5.376334e+01 
2.844390e+00 5.267497e+01 
2.879960e+00 5.158839e+01 
2.914860e+00 5.055152e+01 
2.949410e+00 4.955379e+01 
2.984440e+00 4.856839e+01 
3.019760e+00 4.760564e+01 
3.054730e+00 4.668076e+01 
3.089030e+00 4.579035e+01 
3.124060e+00 4.490781e+01 
3.159560e+00 4.404032e+01 
3.194710e+00 4.319893e+01 
3.229010e+00 4.239887e+01 
3.263320e+00 4.162202e+01 
3.297930e+00 4.085864e+01 
3.332830e+00 4.010765e+01 
3.368040e+00 3.936889e+01 
3.403300e+00 3.864785e+01 
3.438450e+00 3.794615e+01 
3.473060e+00 3.727289e+01 
3.508440e+00 3.660432e+01 
3.543110e+00 3.596527e+01 
3.577470e+00 3.534289e+01 
3.613040e+00 3.471538e+01 
3.648120e+00 3.411341e+01 
3.682910e+00 3.353069e+01 
3.718050e+00 3.295549e+01 
3.753320e+00 3.239173e+01 
3.787980e+00 3.185019e+01 
3.822290e+00 3.132756e+01 
3.857020e+00 3.081206e+01 
3.891920e+00 3.030466e+01 
3.926650e+00 2.980862e+01 
3.961970e+00 2.931649e+01 
3.997360e+00 2.883618e+01 
4.031670e+00 2.838101e+01 
4.066330e+00 2.793063e+01 
4.101420e+00 2.748502e+01 
4.136200e+00 2.705435e+01 
4.170810e+00 2.663528e+01 
4.206250e+00 2.621467e+01 
4.241580e+00 2.580453e+01 
4.276300e+00 2.541028e+01 
4.310970e+00 2.502506e+01 
4.346120e+00 2.464294e+01 
4.380600e+00 2.427614e+01 
4.414730e+00 2.392062e+01 
4.450350e+00 2.355724e+01 
4.485320e+00 2.320802e+01 
4.519810e+00 2.287082e+01 
4.555430e+00 2.252983e+01 
4.590870e+00 2.219768e+01 
4.625480e+00 2.188006e+01 
4.659910e+00 2.157039e+01 
4.695230e+00 2.125925e+01 
4.729960e+00 2.095945e+01 
4.764450e+00 2.066767e+01 
4.799530e+00 2.037688e+01 
4.834910e+00 2.008938e+01 
4.869700e+00 1.981244e+01 
4.904370e+00 1.954177e+01 
4.939450e+00 1.927324e+01 
4.973940e+00 1.901446e+01 
5.008430e+00 1.876050e+01 
5.043810e+00 1.850517e+01 
5.078840e+00 1.825727e+01 
5.113500e+00 1.801652e+01 
5.148890e+00 1.777553e+01 
5.184210e+00 1.753948e+01 
5.219060e+00 1.731094e+01 
5.253660e+00 1.708843e+01 
5.288570e+00 1.686793e+01 
5.323420e+00 1.665193e+01 
5.358440e+00 1.643896e+01 
5.393590e+00 1.622898e+01 
5.428310e+00 1.602548e+01 
5.462800e+00 1.582697e+01 
5.497640e+00 1.562989e+01 
5.532670e+00 1.543550e+01 
5.567280e+00 1.524682e+01 
5.602000e+00 1.506073e+01 
5.637270e+00 1.487522e+01 
5.672410e+00 1.469358e+01 
5.707020e+00 1.451767e+01 
5.742040e+00 1.434302e+01 
5.777430e+00 1.416954e+01 
5.812210e+00 1.400187e+01 
5.846820e+00 1.383796e+01 
5.881610e+00 1.367592e+01 
5.916510e+00 1.351599e+01 
5.951600e+00 1.335814e+01 
5.986560e+00 1.320356e+01 
6.021830e+00 1.305009e+01 
6.056490e+00 1.290188e+01 
6.091160e+00 1.275610e+01 
6.125830e+00 1.261259e+01 
6.161090e+00 1.246902e+01 
6.195760e+00 1.233026e+01 
6.230420e+00 1.219366e+01 
6.265690e+00 1.205681e+01 
6.300950e+00 1.192255e+01 
6.335620e+00 1.179254e+01 
6.370880e+00 1.166231e+01 
6.405550e+00 1.153638e+01 
6.440220e+00 1.141240e+01 
6.475480e+00 1.128818e+01 
6.510150e+00 1.116797e+01 
6.544810e+00 1.104981e+01 
6.580080e+00 1.093133e+01 
6.614750e+00 1.081656e+01 
6.649410e+00 1.070374e+01 
6.684080e+00 1.059254e+01 
6.719340e+00 1.048107e+01 
6.754010e+00 1.037312e+01 
6.788680e+00 1.026691e+01 
6.823940e+00 1.016041e+01 
6.859800e+00 1.005365e+01 
6.894470e+00 9.952094e+00 
6.929140e+00 9.852014e+00 
6.963800e+00 9.753335e+00 
6.999070e+00 9.654324e+00 
7.033730e+00 9.558674e+00 
7.068400e+00 9.464291e+00 
7.103660e+00 9.369603e+00 
7.138330e+00 9.277842e+00 
7.173600e+00 9.185924e+00 
7.208260e+00 9.096804e+00 
7.243530e+00 9.007323e+00 
7.277600e+00 8.922162e+00 
7.312860e+00 8.835305e+00 
7.348120e+00 8.749599e+00 
7.382790e+00 8.666430e+00 
7.417460e+00 8.584504e+00 
7.452720e+00 8.502352e+00 
7.487390e+00 8.422617e+00 
7.522650e+00 8.342568e+00 
7.557320e+00 8.265040e+00 
7.591990e+00 8.188557e+00 
7.627250e+00 8.111758e+00 
7.662510e+00 8.035937e+00 
7.697180e+00 7.962489e+00 
7.731850e+00 7.890018e+00 
7.766510e+00 7.818462e+00 
7.801180e+00 7.747767e+00 
7.836440e+00 7.676875e+00 
7.871110e+00 7.608099e+00 
7.906380e+00 7.538991e+00 
7.941040e+00 7.471907e+00 
7.976310e+00 7.404559e+00 
8.011570e+00 7.338156e+00 
8.046240e+00 7.273651e+00 
8.080900e+00 7.209932e+00 
8.115570e+00 7.146999e+00 
8.150830e+00 7.083944e+00 
8.185500e+00 7.022679e+00 
8.220770e+00 6.961089e+00 
8.255430e+00 6.901277e+00 
8.290100e+00 6.842273e+00 
8.324770e+00 6.783967e+00 
8.359430e+00 6.726350e+00 
8.394700e+00 6.668398e+00 
8.429960e+00 6.611224e+00 
8.464630e+00 6.555744e+00 
8.499890e+00 6.499964e+00 
8.534560e+00 6.445743e+00 
8.569200e+00 6.392179e+00 
