# Parameters:
# omega_b = 0.022240, omega_m = 0.135709, n_s = 0.865748, h = 83.818898, w = -1.000000, sigma_8 = 0.807087
# z = 0.700000
#
# k[1/Mpc] # P(k):
8.694000e-04 1.187180e+04 
2.077466e-03 2.309414e+04 
3.285532e-03 3.111524e+04 
4.493598e-03 3.683337e+04 
5.701664e-03 4.074112e+04 
6.909730e-03 4.323122e+04 
8.117797e-03 4.467270e+04 
9.325863e-03 4.525530e+04 
1.053393e-02 4.514940e+04 
1.174199e-02 4.450334e+04 
1.295006e-02 4.341311e+04 
1.415813e-02 4.200153e+04 
1.536619e-02 4.036546e+04 
1.657426e-02 3.855824e+04 
1.778233e-02 3.655273e+04 
1.899039e-02 3.436984e+04 
2.019846e-02 3.221890e+04 
2.140652e-02 3.024946e+04 
2.261459e-02 2.843645e+04 
2.382266e-02 2.676362e+04 
2.503072e-02 2.523501e+04 
2.623879e-02 2.385075e+04 
2.744685e-02 2.260957e+04 
2.865492e-02 2.150520e+04 
2.986299e-02 2.052716e+04 
3.100100e-02 1.971709e+04 
3.220400e-02 1.896436e+04 
3.288100e-02 1.858641e+04 
3.424300e-02 1.790909e+04 
3.555100e-02 1.734612e+04 
3.686000e-02 1.685527e+04 
3.795000e-02 1.648952e+04 
3.929100e-02 1.608333e+04 
4.039800e-02 1.577075e+04 
4.164000e-02 1.543506e+04 
4.294400e-02 1.508383e+04 
4.415000e-02 1.475855e+04 
4.542900e-02 1.439527e+04 
4.660900e-02 1.405031e+04 
4.782300e-02 1.366573e+04 
4.892900e-02 1.330258e+04 
5.031200e-02 1.282613e+04 
5.155900e-02 1.237593e+04 
5.238100e-02 1.207261e+04 
5.378200e-02 1.154911e+04 
5.513400e-02 1.104033e+04 
5.627600e-02 1.061443e+04 
5.735300e-02 1.022164e+04 
5.870100e-02 9.747441e+03 
5.988700e-02 9.351328e+03 
6.113500e-02 8.958616e+03 
6.225900e-02 8.628919e+03 
6.340100e-02 8.319027e+03 
6.480200e-02 7.971584e+03 
6.601100e-02 7.704075e+03 
6.725500e-02 7.457865e+03 
6.829100e-02 7.276697e+03 
6.958600e-02 7.073338e+03 
7.071100e-02 6.918772e+03 
7.192300e-02 6.771239e+03 
7.307400e-02 6.647197e+03 
7.412300e-02 6.545719e+03 
7.550400e-02 6.427087e+03 
7.663100e-02 6.338757e+03 
7.791200e-02 6.246651e+03 
7.912700e-02 6.163250e+03 
8.027600e-02 6.085725e+03 
8.138400e-02 6.010893e+03 
8.272200e-02 5.918537e+03 
8.406100e-02 5.822494e+03 
8.534100e-02 5.724225e+03 
8.653800e-02 5.626124e+03 
8.759800e-02 5.535810e+03 
8.900300e-02 5.410342e+03 
9.009000e-02 5.308361e+03 
9.113300e-02 5.206399e+03 
9.239600e-02 5.081102e+03 
9.358000e-02 4.961058e+03 
9.496100e-02 4.818365e+03 
9.608400e-02 4.703017e+03 
9.727500e-02 4.582230e+03 
9.852600e-02 4.456502e+03 
9.973800e-02 4.338766e+03 
1.009000e-01 4.229548e+03 
1.020900e-01 4.123518e+03 
1.034000e-01 4.012775e+03 
1.046000e-01 3.916936e+03 
1.057200e-01 3.835338e+03 
1.069100e-01 3.753275e+03 
1.082500e-01 3.670201e+03 
1.093900e-01 3.605980e+03 
1.105400e-01 3.545437e+03 
1.116900e-01 3.492552e+03 
1.129600e-01 3.437699e+03 
1.142000e-01 3.390504e+03 
1.153300e-01 3.350147e+03 
1.166400e-01 3.306990e+03 
1.177800e-01 3.271609e+03 
1.190000e-01 3.235240e+03 
1.201200e-01 3.202301e+03 
1.213400e-01 3.167209e+03 
1.227100e-01 3.126164e+03 
1.238900e-01 3.090875e+03 
1.250700e-01 3.053608e+03 
1.263200e-01 3.013731e+03 
1.275500e-01 2.972475e+03 
1.287500e-01 2.931572e+03 
1.299900e-01 2.887777e+03 
1.311300e-01 2.847060e+03 
1.323500e-01 2.802410e+03 
1.335900e-01 2.757043e+03 
1.347100e-01 2.715600e+03 
1.359800e-01 2.669153e+03 
1.372100e-01 2.624169e+03 
1.384300e-01 2.580444e+03 
1.395700e-01 2.540121e+03 
1.407700e-01 2.498655e+03 
1.420300e-01 2.456406e+03 
1.432800e-01 2.415481e+03 
1.444500e-01 2.378952e+03 
1.456300e-01 2.342904e+03 
1.468900e-01 2.306466e+03 
1.480500e-01 2.273999e+03 
1.491700e-01 2.244015e+03 
1.503800e-01 2.213211e+03 
1.516400e-01 2.182143e+03 
1.528200e-01 2.155109e+03 
1.540200e-01 2.128155e+03 
1.551900e-01 2.103634e+03 
1.564300e-01 2.078451e+03 
1.576600e-01 2.054481e+03 
1.588700e-01 2.031978e+03 
1.600900e-01 2.009748e+03 
1.612700e-01 1.989219e+03 
1.625400e-01 1.967534e+03 
1.637600e-01 1.947098e+03 
1.649500e-01 1.927525e+03 
1.662200e-01 1.906941e+03 
1.674000e-01 1.887738e+03 
1.685000e-01 1.870136e+03 
1.697500e-01 1.850042e+03 
1.710300e-01 1.829412e+03 
1.722200e-01 1.810575e+03 
1.734400e-01 1.790618e+03 
1.746400e-01 1.771290e+03 
1.758700e-01 1.751545e+03 
1.770900e-01 1.731734e+03 
1.782700e-01 1.712903e+03 
1.794600e-01 1.693880e+03 
1.807000e-01 1.674163e+03 
1.819100e-01 1.655258e+03 
1.830100e-01 1.638166e+03 
1.842200e-01 1.619639e+03 
1.855000e-01 1.600385e+03 
1.867000e-01 1.582741e+03 
1.879200e-01 1.565101e+03 
1.890900e-01 1.548517e+03 
1.902800e-01 1.532204e+03 
1.915200e-01 1.515484e+03 
1.926900e-01 1.500069e+03 
1.939000e-01 1.484730e+03 
1.951700e-01 1.468891e+03 
1.963100e-01 1.455017e+03 
1.975100e-01 1.440955e+03 
1.987800e-01 1.426306e+03 
2.000100e-01 1.412452e+03 
2.012500e-01 1.398954e+03 
2.023400e-01 1.387261e+03 
2.036100e-01 1.373885e+03 
2.048900e-01 1.360803e+03 
2.060400e-01 1.349223e+03 
2.072200e-01 1.337516e+03 
2.084200e-01 1.325877e+03 
2.096900e-01 1.313740e+03 
2.109200e-01 1.302160e+03 
2.121100e-01 1.291107e+03 
2.132700e-01 1.280481e+03 
2.145200e-01 1.269191e+03 
2.157200e-01 1.258496e+03 
2.168800e-01 1.248293e+03 
2.180700e-01 1.237968e+03 
2.193400e-01 1.227096e+03 
2.206000e-01 1.216453e+03 
2.217500e-01 1.206871e+03 
2.229500e-01 1.197004e+03 
2.241400e-01 1.187398e+03 
2.253500e-01 1.177762e+03 
2.264900e-01 1.168801e+03 
2.277100e-01 1.159393e+03 
2.289900e-01 1.149722e+03 
2.301500e-01 1.141074e+03 
2.313600e-01 1.132169e+03 
2.325600e-01 1.123632e+03 
2.337700e-01 1.115134e+03 
2.350000e-01 1.106606e+03 
2.362000e-01 1.098485e+03 
2.374100e-01 1.090506e+03 
2.386500e-01 1.082433e+03 
2.399100e-01 1.074335e+03 
2.410400e-01 1.067327e+03 
2.422500e-01 1.059933e+03 
2.435000e-01 1.052390e+03 
2.447300e-01 1.045087e+03 
2.458700e-01 1.038509e+03 
2.470600e-01 1.031721e+03 
2.483300e-01 1.024566e+03 
2.495600e-01 1.017751e+03 
2.507600e-01 1.011223e+03 
2.519600e-01 1.004771e+03 
2.532200e-01 9.980781e+02 
2.543700e-01 9.920385e+02 
2.555500e-01 9.859096e+02 
2.568000e-01 9.794926e+02 
2.580100e-01 9.733537e+02 
2.592400e-01 9.671433e+02 
2.604100e-01 9.612844e+02 
2.616100e-01 9.553421e+02 
2.628400e-01 9.493204e+02 
2.640600e-01 9.433467e+02 
2.652200e-01 9.377022e+02 
2.664300e-01 9.318789e+02 
2.676500e-01 9.260731e+02 
2.688400e-01 9.204086e+02 
2.700700e-01 9.145785e+02 
2.712400e-01 9.090934e+02 
2.724800e-01 9.033435e+02 
2.736700e-01 8.978357e+02 
2.748800e-01 8.922443e+02 
2.761000e-01 8.866680e+02 
2.773200e-01 8.811524e+02 
2.785400e-01 8.756709e+02 
2.797000e-01 8.704605e+02 
2.808900e-01 8.651708e+02 
2.821400e-01 8.596739e+02 
2.833900e-01 8.542345e+02 
2.845500e-01 8.491839e+02 
2.857800e-01 8.438841e+02 
2.870300e-01 8.385558e+02 
2.882100e-01 8.335786e+02 
2.893900e-01 8.286296e+02 
2.906300e-01 8.234710e+02 
2.918900e-01 8.182849e+02 
2.930500e-01 8.135594e+02 
2.942500e-01 8.087137e+02 
2.954200e-01 8.040171e+02 
2.966500e-01 7.991293e+02 
2.978900e-01 7.942527e+02 
2.990400e-01 7.897749e+02 
3.002700e-01 7.850285e+02 
3.015100e-01 7.802903e+02 
3.026800e-01 7.758638e+02 
3.038500e-01 7.714797e+02 
3.050300e-01 7.671005e+02 
3.062600e-01 7.625793e+02 
3.075000e-01 7.580668e+02 
3.087000e-01 7.537429e+02 
3.099100e-01 7.494251e+02 
3.111200e-01 7.451528e+02 
3.123100e-01 7.409979e+02 
3.135300e-01 7.367789e+02 
3.147300e-01 7.326687e+02 
3.159900e-01 7.283948e+02 
3.171800e-01 7.244039e+02 
3.183700e-01 7.204545e+02 
3.196300e-01 7.163126e+02 
3.208400e-01 7.123731e+02 
3.220300e-01 7.085346e+02 
3.232000e-01 7.048087e+02 
3.244300e-01 7.009332e+02 
3.256700e-01 6.970630e+02 
3.269200e-01 6.931985e+02 
3.280800e-01 6.896449e+02 
3.292500e-01 6.861068e+02 
3.304800e-01 6.824254e+02 
3.317100e-01 6.787778e+02 
3.328900e-01 6.753100e+02 
3.340700e-01 6.718725e+02 
3.353600e-01 6.681664e+02 
3.365300e-01 6.648420e+02 
3.377100e-01 6.615181e+02 
3.389200e-01 6.581395e+02 
3.401600e-01 6.547080e+02 
3.413700e-01 6.514015e+02 
3.425300e-01 6.482672e+02 
3.437700e-01 6.449457e+02 
3.449800e-01 6.417330e+02 
3.461800e-01 6.385744e+02 
3.473600e-01 6.355017e+02 
3.485800e-01 6.323690e+02 
3.498100e-01 6.292381e+02 
3.510200e-01 6.261844e+02 
3.522000e-01 6.232315e+02 
3.533900e-01 6.202782e+02 
3.546400e-01 6.172210e+02 
3.558400e-01 6.143121e+02 
3.570600e-01 6.113795e+02 
3.582700e-01 6.084953e+02 
3.595000e-01 6.055880e+02 
3.607100e-01 6.027617e+02 
3.618900e-01 6.000358e+02 
3.631200e-01 5.972176e+02 
3.643200e-01 5.944908e+02 
3.655500e-01 5.917187e+02 
3.667300e-01 5.890809e+02 
3.679500e-01 5.863915e+02 
3.691900e-01 5.836804e+02 
3.703600e-01 5.811429e+02 
3.715700e-01 5.785394e+02 
3.727700e-01 5.759779e+02 
3.739900e-01 5.734006e+02 
3.752000e-01 5.708759e+02 
3.763900e-01 5.684124e+02 
3.775800e-01 5.659681e+02 
3.788200e-01 5.634411e+02 
3.800300e-01 5.609949e+02 
3.812100e-01 5.586328e+02 
3.824200e-01 5.562328e+02 
3.836100e-01 5.538905e+02 
3.848600e-01 5.514494e+02 
3.860400e-01 5.491629e+02 
3.872400e-01 5.468551e+02 
3.884600e-01 5.445365e+02 
3.896500e-01 5.422956e+02 
3.908700e-01 5.400157e+02 
3.920600e-01 5.378087e+02 
3.933100e-01 5.355081e+02 
3.945300e-01 5.332799e+02 
3.957200e-01 5.311289e+02 
3.969300e-01 5.289596e+02 
3.981700e-01 5.267533e+02 
3.993500e-01 5.246694e+02 
4.094840e-01 5.073896e+02 
4.272360e-01 4.796841e+02 
4.454600e-01 4.540663e+02 
4.630560e-01 4.316614e+02 
4.804610e-01 4.114505e+02 
4.980690e-01 3.927233e+02 
5.159230e-01 3.753009e+02 
5.317440e-01 3.610306e+02 
5.489640e-01 3.466321e+02 
5.671990e-01 3.325554e+02 
5.838690e-01 3.206192e+02 
6.018840e-01 3.086409e+02 
6.202330e-01 2.973330e+02 
6.379250e-01 2.871805e+02 
6.545410e-01 2.782869e+02 
6.714560e-01 2.697817e+02 
6.892080e-01 2.614280e+02 
7.066010e-01 2.537436e+02 
7.240540e-01 2.464818e+02 
7.420450e-01 2.394462e+02 
7.593780e-01 2.330493e+02 
7.764720e-01 2.270724e+02 
7.942840e-01 2.211734e+02 
8.116170e-01 2.157259e+02 
8.288310e-01 2.105812e+02 
8.462240e-01 2.056248e+02 
8.631980e-01 2.010046e+02 
8.810700e-01 1.963572e+02 
8.989410e-01 1.919157e+02 
9.166330e-01 1.877027e+02 
9.345640e-01 1.836078e+02 
9.515980e-01 1.798691e+02 
9.688720e-01 1.762182e+02 
9.865640e-01 1.726163e+02 
1.031870e+00 1.639722e+02 
1.063490e+00 1.583611e+02 
1.097920e+00 1.526471e+02 
1.134370e+00 1.469350e+02 
1.167730e+00 1.420192e+02 
1.203830e+00 1.369878e+02 
1.240470e+00 1.321768e+02 
1.275790e+00 1.277682e+02 
1.309140e+00 1.238255e+02 
1.342970e+00 1.199929e+02 
1.378420e+00 1.161850e+02 
1.413200e+00 1.126207e+02 
1.448110e+00 1.091949e+02 
1.484090e+00 1.058384e+02 
1.518820e+00 1.027272e+02 
1.552880e+00 9.981532e+01 
1.588630e+00 9.687714e+01 
1.623230e+00 9.416202e+01 
1.657720e+00 9.156281e+01 
1.692450e+00 8.906482e+01 
1.726400e+00 8.669628e+01 
1.762200e+00 8.429541e+01 
1.797880e+00 8.200686e+01 
1.833270e+00 7.981465e+01 
1.869070e+00 7.769099e+01 
1.903200e+00 7.573970e+01 
1.937740e+00 7.383447e+01 
1.973190e+00 7.194740e+01 
2.007440e+00 7.019145e+01 
2.042160e+00 6.847896e+01 
2.077900e+00 6.676728e+01 
2.112390e+00 6.518251e+01 
2.146220e+00 6.366561e+01 
2.181600e+00 6.214093e+01 
2.216930e+00 6.067032e+01 
2.250760e+00 5.930156e+01 
2.286500e+00 5.790087e+01 
2.321770e+00 5.657141e+01 
2.355950e+00 5.533011e+01 
2.391280e+00 5.407677e+01 
2.426240e+00 5.287446e+01 
2.460670e+00 5.172657e+01 
2.495640e+00 5.059660e+01 
2.531080e+00 4.949169e+01 
2.566220e+00 4.842293e+01 
2.600830e+00 4.740286e+01 
2.635080e+00 4.642686e+01 
2.670340e+00 4.544218e+01 
2.705970e+00 4.448070e+01 
2.740040e+00 4.359018e+01 
2.774520e+00 4.271261e+01 
2.809730e+00 4.184105e+01 
2.844390e+00 4.100739e+01 
2.879960e+00 4.017471e+01 
2.914860e+00 3.937968e+01 
2.949410e+00 3.861436e+01 
2.984440e+00 3.785805e+01 
3.019760e+00 3.711889e+01 
3.054730e+00 3.640860e+01 
3.089030e+00 3.572415e+01 
3.124060e+00 3.504556e+01 
3.159560e+00 3.437832e+01 
3.194710e+00 3.373068e+01 
3.229010e+00 3.311464e+01 
3.263320e+00 3.251611e+01 
3.297930e+00 3.192775e+01 
3.332830e+00 3.134861e+01 
3.368040e+00 3.077861e+01 
3.403300e+00 3.022206e+01 
3.438450e+00 2.968003e+01 
3.473060e+00 2.915983e+01 
3.508440e+00 2.864292e+01 
3.543110e+00 2.814870e+01 
3.577470e+00 2.766695e+01 
3.613040e+00 2.718111e+01 
3.648120e+00 2.671478e+01 
3.682910e+00 2.626322e+01 
3.718050e+00 2.581724e+01 
3.753320e+00 2.537993e+01 
3.787980e+00 2.495958e+01 
3.822290e+00 2.455378e+01 
3.857020e+00 2.415334e+01 
3.891920e+00 2.375903e+01 
3.926650e+00 2.337327e+01 
3.961970e+00 2.299046e+01 
3.997360e+00 2.261661e+01 
4.031670e+00 2.226224e+01 
4.066330e+00 2.191134e+01 
4.101420e+00 2.156413e+01 
4.136200e+00 2.122828e+01 
4.170810e+00 2.090146e+01 
4.206250e+00 2.057322e+01 
4.241580e+00 2.025309e+01 
4.276300e+00 1.994518e+01 
4.310970e+00 1.964424e+01 
4.346120e+00 1.934561e+01 
4.380600e+00 1.905880e+01 
4.414730e+00 1.878080e+01 
4.450350e+00 1.849638e+01 
4.485320e+00 1.822306e+01 
4.519810e+00 1.795898e+01 
4.555430e+00 1.769186e+01 
4.590870e+00 1.743161e+01 
4.625480e+00 1.718261e+01 
4.659910e+00 1.693985e+01 
4.695230e+00 1.669576e+01 
4.729960e+00 1.646052e+01 
4.764450e+00 1.623152e+01 
4.799530e+00 1.600320e+01 
4.834910e+00 1.577747e+01 
4.869700e+00 1.555987e+01 
4.904370e+00 1.534718e+01 
4.939450e+00 1.513613e+01 
4.973940e+00 1.493262e+01 
5.008430e+00 1.473292e+01 
5.043810e+00 1.453205e+01 
5.078840e+00 1.433699e+01 
5.113500e+00 1.414755e+01 
5.148890e+00 1.395782e+01 
5.184210e+00 1.377198e+01 
5.219060e+00 1.359203e+01 
5.253660e+00 1.341673e+01 
5.288570e+00 1.324303e+01 
5.323420e+00 1.307283e+01 
5.358440e+00 1.290496e+01 
5.393590e+00 1.273945e+01 
5.428310e+00 1.257900e+01 
5.462800e+00 1.242246e+01 
5.497640e+00 1.226705e+01 
5.532670e+00 1.211370e+01 
5.567280e+00 1.196486e+01 
5.602000e+00 1.181806e+01 
5.637270e+00 1.167167e+01 
5.672410e+00 1.152833e+01 
5.707020e+00 1.138951e+01 
5.742040e+00 1.125164e+01 
5.777430e+00 1.111470e+01 
5.812210e+00 1.098234e+01 
5.846820e+00 1.085292e+01 
5.881610e+00 1.072498e+01 
5.916510e+00 1.059870e+01 
5.951600e+00 1.047405e+01 
5.986560e+00 1.035196e+01 
6.021830e+00 1.023077e+01 
6.056490e+00 1.011371e+01 
6.091160e+00 9.998585e+00 
6.125830e+00 9.885247e+00 
6.161090e+00 9.771856e+00 
6.195760e+00 9.662258e+00 
6.230420e+00 9.554369e+00 
6.265690e+00 9.446281e+00 
6.300950e+00 9.340233e+00 
6.335620e+00 9.237543e+00 
6.370880e+00 9.134685e+00 
6.405550e+00 9.035238e+00 
6.440220e+00 8.937337e+00 
6.475480e+00 8.839251e+00 
6.510150e+00 8.744328e+00 
6.544810e+00 8.651028e+00 
6.580080e+00 8.557478e+00 
6.614750e+00 8.466861e+00 
6.649410e+00 8.377787e+00 
6.684080e+00 8.290006e+00 
6.719340e+00 8.202013e+00 
6.754010e+00 8.116808e+00 
6.788680e+00 8.032990e+00 
6.823940e+00 7.948953e+00 
6.859800e+00 7.864710e+00 
6.894470e+00 7.784589e+00 
6.929140e+00 7.705640e+00 
6.963800e+00 7.627800e+00 
6.999070e+00 7.549704e+00 
7.033730e+00 7.474284e+00 
7.068400e+00 7.399867e+00 
7.103660e+00 7.325213e+00 
7.138330e+00 7.252877e+00 
7.173600e+00 7.180432e+00 
7.208260e+00 7.110197e+00 
7.243530e+00 7.039681e+00 
7.277600e+00 6.972585e+00 
7.312860e+00 6.904169e+00 
7.348120e+00 6.836664e+00 
7.382790e+00 6.771159e+00 
7.417460e+00 6.706660e+00 
7.452720e+00 6.641997e+00 
7.487390e+00 6.579240e+00 
7.522650e+00 6.516239e+00 
7.557320e+00 6.455245e+00 
7.591990e+00 6.395082e+00 
7.627250e+00 6.334674e+00 
7.662510e+00 6.275038e+00 
7.697180e+00 6.217296e+00 
7.731850e+00 6.160333e+00 
7.766510e+00 6.104092e+00 
7.801180e+00 6.048529e+00 
7.836440e+00 5.992833e+00 
7.871110e+00 5.938813e+00 
7.906380e+00 5.884533e+00 
7.941040e+00 5.831846e+00 
7.976310e+00 5.778974e+00 
8.011570e+00 5.726869e+00 
8.046240e+00 5.676256e+00 
8.080900e+00 5.626260e+00 
8.115570e+00 5.576889e+00 
8.150830e+00 5.527446e+00 
8.185500e+00 5.479407e+00 
8.220770e+00 5.431116e+00 
8.255430e+00 5.384219e+00 
8.290100e+00 5.337999e+00 
8.324770e+00 5.292332e+00 
8.359430e+00 5.247205e+00 
8.394700e+00 5.201817e+00 
8.429960e+00 5.157055e+00 
8.464630e+00 5.113636e+00 
8.499890e+00 5.069983e+00 
8.534560e+00 5.027551e+00 
8.569200e+00 4.985633e+00 
