# Parameters:
# omega_b = 0.022839, omega_m = 0.139843, n_s = 0.931890, h = 64.448819, w = -1.000000, sigma_8 = 0.711024
# z = 0.700000
#
# k[1/Mpc] # P(k):
8.694000e-04 7.475649e+03 
2.077466e-03 1.554342e+04 
3.285532e-03 2.167792e+04 
4.493598e-03 2.629705e+04 
5.701664e-03 2.965690e+04 
6.909730e-03 3.198018e+04 
8.117797e-03 3.350251e+04 
9.325863e-03 3.434712e+04 
1.053393e-02 3.463357e+04 
1.174199e-02 3.447187e+04 
1.295006e-02 3.393089e+04 
1.415813e-02 3.310223e+04 
1.536619e-02 3.206360e+04 
1.657426e-02 3.087175e+04 
1.778233e-02 2.959571e+04 
1.899039e-02 2.832184e+04 
2.019846e-02 2.704544e+04 
2.140652e-02 2.576899e+04 
2.261459e-02 2.451852e+04 
2.382266e-02 2.332552e+04 
2.503072e-02 2.220692e+04 
2.623879e-02 2.116852e+04 
2.744685e-02 2.021127e+04 
2.865492e-02 1.933780e+04 
2.986299e-02 1.854448e+04 
3.100100e-02 1.786899e+04 
3.220400e-02 1.722444e+04 
3.288100e-02 1.689264e+04 
3.424300e-02 1.628450e+04 
3.555100e-02 1.576520e+04 
3.686000e-02 1.530136e+04 
3.795000e-02 1.495007e+04 
3.929100e-02 1.455603e+04 
4.039800e-02 1.425378e+04 
4.164000e-02 1.393292e+04 
4.294400e-02 1.360763e+04 
4.415000e-02 1.331459e+04 
4.542900e-02 1.300091e+04 
4.660900e-02 1.271140e+04 
4.782300e-02 1.240061e+04 
4.892900e-02 1.211266e+04 
5.031200e-02 1.174162e+04 
5.155900e-02 1.139504e+04 
5.238100e-02 1.116223e+04 
5.378200e-02 1.076005e+04 
5.513400e-02 1.036630e+04 
5.627600e-02 1.003284e+04 
5.735300e-02 9.721113e+03 
5.870100e-02 9.338052e+03 
5.988700e-02 9.011432e+03 
6.113500e-02 8.680461e+03 
6.225900e-02 8.395651e+03 
6.340100e-02 8.121204e+03 
6.480200e-02 7.805772e+03 
6.601100e-02 7.554615e+03 
6.725500e-02 7.316543e+03 
6.829100e-02 7.135504e+03 
6.958600e-02 6.927420e+03 
7.071100e-02 6.764300e+03 
7.192300e-02 6.604682e+03 
7.307400e-02 6.467438e+03 
7.412300e-02 6.353270e+03 
7.550400e-02 6.217989e+03 
7.663100e-02 6.116958e+03 
7.791200e-02 6.012649e+03 
7.912700e-02 5.920783e+03 
8.027600e-02 5.838112e+03 
8.138400e-02 5.760954e+03 
8.272200e-02 5.669619e+03 
8.406100e-02 5.578646e+03 
8.534100e-02 5.489671e+03 
8.653800e-02 5.403533e+03 
8.759800e-02 5.325514e+03 
8.900300e-02 5.218706e+03 
9.009000e-02 5.132758e+03 
9.113300e-02 5.047130e+03 
9.239600e-02 4.941925e+03 
9.358000e-02 4.840926e+03 
9.496100e-02 4.720097e+03 
9.608400e-02 4.621730e+03 
9.727500e-02 4.518092e+03 
9.852600e-02 4.408578e+03 
9.973800e-02 4.305005e+03 
1.009000e-01 4.208067e+03 
1.020900e-01 4.111784e+03 
1.034000e-01 4.009980e+03 
1.046000e-01 3.920584e+03 
1.057200e-01 3.842189e+03 
1.069100e-01 3.762437e+03 
1.082500e-01 3.679078e+03 
1.093900e-01 3.612940e+03 
1.105400e-01 3.549555e+03 
1.116900e-01 3.491881e+03 
1.129600e-01 3.431304e+03 
1.142000e-01 3.377362e+03 
1.153300e-01 3.330810e+03 
1.166400e-01 3.280326e+03 
1.177800e-01 3.239048e+03 
1.190000e-01 3.196663e+03 
1.201200e-01 3.159559e+03 
1.213400e-01 3.120252e+03 
1.227100e-01 3.077166e+03 
1.238900e-01 3.040767e+03 
1.250700e-01 3.004400e+03 
1.263200e-01 2.966235e+03 
1.275500e-01 2.928356e+03 
1.287500e-01 2.891434e+03 
1.299900e-01 2.852858e+03 
1.311300e-01 2.817279e+03 
1.323500e-01 2.778677e+03 
1.335900e-01 2.739418e+03 
1.347100e-01 2.703516e+03 
1.359800e-01 2.663036e+03 
1.372100e-01 2.623391e+03 
1.384300e-01 2.584533e+03 
1.395700e-01 2.547995e+03 
1.407700e-01 2.510278e+03 
1.420300e-01 2.470700e+03 
1.432800e-01 2.432337e+03 
1.444500e-01 2.396915e+03 
1.456300e-01 2.361947e+03 
1.468900e-01 2.325801e+03 
1.480500e-01 2.293349e+03 
1.491700e-01 2.263041e+03 
1.503800e-01 2.231465e+03 
1.516400e-01 2.199526e+03 
1.528200e-01 2.171310e+03 
1.540200e-01 2.143183e+03 
1.551900e-01 2.117404e+03 
1.564300e-01 2.090885e+03 
1.576600e-01 2.065655e+03 
1.588700e-01 2.041983e+03 
1.600900e-01 2.018613e+03 
1.612700e-01 1.997268e+03 
1.625400e-01 1.974724e+03 
1.637600e-01 1.953725e+03 
1.649500e-01 1.933758e+03 
1.662200e-01 1.912829e+03 
1.674000e-01 1.893689e+03 
1.685000e-01 1.876144e+03 
1.697500e-01 1.856325e+03 
1.710300e-01 1.836180e+03 
1.722200e-01 1.817784e+03 
1.734400e-01 1.798593e+03 
1.746400e-01 1.780015e+03 
1.758700e-01 1.761083e+03 
1.770900e-01 1.742185e+03 
1.782700e-01 1.724216e+03 
1.794600e-01 1.706070e+03 
1.807000e-01 1.687263e+03 
1.819100e-01 1.669225e+03 
1.830100e-01 1.652833e+03 
1.842200e-01 1.635045e+03 
1.855000e-01 1.616547e+03 
1.867000e-01 1.599419e+03 
1.879200e-01 1.582292e+03 
1.890900e-01 1.566153e+03 
1.902800e-01 1.550104e+03 
1.915200e-01 1.533652e+03 
1.926900e-01 1.518436e+03 
1.939000e-01 1.503141e+03 
1.951700e-01 1.487348e+03 
1.963100e-01 1.473473e+03 
1.975100e-01 1.459305e+03 
1.987800e-01 1.444545e+03 
2.000100e-01 1.430562e+03 
2.012500e-01 1.416882e+03 
2.023400e-01 1.405031e+03 
2.036100e-01 1.391472e+03 
2.048900e-01 1.378203e+03 
2.060400e-01 1.366459e+03 
2.072200e-01 1.354588e+03 
2.084200e-01 1.342814e+03 
2.096900e-01 1.330536e+03 
2.109200e-01 1.318821e+03 
2.121100e-01 1.307681e+03 
2.132700e-01 1.296973e+03 
2.145200e-01 1.285597e+03 
2.157200e-01 1.274826e+03 
2.168800e-01 1.264553e+03 
2.180700e-01 1.254157e+03 
2.193400e-01 1.243194e+03 
2.206000e-01 1.232429e+03 
2.217500e-01 1.222737e+03 
2.229500e-01 1.212757e+03 
2.241400e-01 1.202925e+03 
2.253500e-01 1.193060e+03 
2.264900e-01 1.183887e+03 
2.277100e-01 1.174165e+03 
2.289900e-01 1.164070e+03 
2.301500e-01 1.155043e+03 
2.313600e-01 1.145747e+03 
2.325600e-01 1.136604e+03 
2.337700e-01 1.127503e+03 
2.350000e-01 1.118373e+03 
2.362000e-01 1.109570e+03 
2.374100e-01 1.100793e+03 
2.386500e-01 1.091914e+03 
2.399100e-01 1.083011e+03 
2.410400e-01 1.075140e+03 
2.422500e-01 1.066816e+03 
2.435000e-01 1.058325e+03 
2.447300e-01 1.050084e+03 
2.458700e-01 1.042564e+03 
2.470600e-01 1.034807e+03 
2.483300e-01 1.026632e+03 
2.495600e-01 1.018837e+03 
2.507600e-01 1.011357e+03 
2.519600e-01 1.003967e+03 
2.532200e-01 9.963011e+02 
2.543700e-01 9.894257e+02 
2.555500e-01 9.824772e+02 
2.568000e-01 9.752037e+02 
2.580100e-01 9.682470e+02 
2.592400e-01 9.613042e+02 
2.604100e-01 9.547960e+02 
2.616100e-01 9.481966e+02 
2.628400e-01 9.415104e+02 
2.640600e-01 9.349979e+02 
2.652200e-01 9.288918e+02 
2.664300e-01 9.225932e+02 
2.676500e-01 9.163145e+02 
2.688400e-01 9.102875e+02 
2.700700e-01 9.041454e+02 
2.712400e-01 8.983673e+02 
2.724800e-01 8.923110e+02 
2.736700e-01 8.865761e+02 
2.748800e-01 8.808216e+02 
2.761000e-01 8.750831e+02 
2.773200e-01 8.694074e+02 
2.785400e-01 8.637988e+02 
2.797000e-01 8.585332e+02 
2.808900e-01 8.531877e+02 
2.821400e-01 8.476331e+02 
2.833900e-01 8.421395e+02 
2.845500e-01 8.370977e+02 
2.857800e-01 8.318072e+02 
2.870300e-01 8.264885e+02 
2.882100e-01 8.215203e+02 
2.893900e-01 8.166045e+02 
2.906300e-01 8.114934e+02 
2.918900e-01 8.063552e+02 
2.930500e-01 8.016734e+02 
2.942500e-01 7.968769e+02 
2.954200e-01 7.922420e+02 
2.966500e-01 7.874184e+02 
2.978900e-01 7.826058e+02 
2.990400e-01 7.781869e+02 
3.002700e-01 7.735068e+02 
3.015100e-01 7.688366e+02 
3.026800e-01 7.644737e+02 
3.038500e-01 7.601526e+02 
3.050300e-01 7.558363e+02 
3.062600e-01 7.513804e+02 
3.075000e-01 7.469332e+02 
3.087000e-01 7.426718e+02 
3.099100e-01 7.384164e+02 
3.111200e-01 7.342045e+02 
3.123100e-01 7.301055e+02 
3.135300e-01 7.259435e+02 
3.147300e-01 7.218887e+02 
3.159900e-01 7.176725e+02 
3.171800e-01 7.137325e+02 
3.183700e-01 7.098316e+02 
3.196300e-01 7.057406e+02 
3.208400e-01 7.018495e+02 
3.220300e-01 6.980582e+02 
3.232000e-01 6.943753e+02 
3.244300e-01 6.905433e+02 
3.256700e-01 6.867165e+02 
3.269200e-01 6.828954e+02 
3.280800e-01 6.793818e+02 
3.292500e-01 6.758806e+02 
3.304800e-01 6.722368e+02 
3.317100e-01 6.686264e+02 
3.328900e-01 6.651940e+02 
3.340700e-01 6.617917e+02 
3.353600e-01 6.581216e+02 
3.365300e-01 6.548289e+02 
3.377100e-01 6.515367e+02 
3.389200e-01 6.481903e+02 
3.401600e-01 6.447915e+02 
3.413700e-01 6.415164e+02 
3.425300e-01 6.384118e+02 
3.437700e-01 6.351218e+02 
3.449800e-01 6.319397e+02 
3.461800e-01 6.288110e+02 
3.473600e-01 6.257677e+02 
3.485800e-01 6.226654e+02 
3.498100e-01 6.195648e+02 
3.510200e-01 6.165408e+02 
3.522000e-01 6.136165e+02 
3.533900e-01 6.106919e+02 
3.546400e-01 6.076663e+02 
3.558400e-01 6.047876e+02 
3.570600e-01 6.018854e+02 
3.582700e-01 5.990311e+02 
3.595000e-01 5.961540e+02 
3.607100e-01 5.933585e+02 
3.618900e-01 5.906634e+02 
3.631200e-01 5.878771e+02 
3.643200e-01 5.851812e+02 
3.655500e-01 5.824405e+02 
3.667300e-01 5.798325e+02 
3.679500e-01 5.771766e+02 
3.691900e-01 5.744994e+02 
3.703600e-01 5.719936e+02 
3.715700e-01 5.694225e+02 
3.727700e-01 5.668931e+02 
3.739900e-01 5.643492e+02 
3.752000e-01 5.618596e+02 
3.763900e-01 5.594303e+02 
3.775800e-01 5.570199e+02 
3.788200e-01 5.545281e+02 
3.800300e-01 5.521158e+02 
3.812100e-01 5.497885e+02 
3.824200e-01 5.474252e+02 
3.836100e-01 5.451189e+02 
3.848600e-01 5.427151e+02 
3.860400e-01 5.404635e+02 
3.872400e-01 5.381911e+02 
3.884600e-01 5.359096e+02 
3.896500e-01 5.337053e+02 
3.908700e-01 5.314625e+02 
3.920600e-01 5.292914e+02 
3.933100e-01 5.270282e+02 
3.945300e-01 5.248363e+02 
3.957200e-01 5.227232e+02 
3.969300e-01 5.205930e+02 
3.981700e-01 5.184265e+02 
3.993500e-01 5.163802e+02 
4.094840e-01 4.994173e+02 
4.272360e-01 4.722518e+02 
4.454600e-01 4.471348e+02 
4.630560e-01 4.251562e+02 
4.804610e-01 4.053020e+02 
4.980690e-01 3.868877e+02 
5.159230e-01 3.697383e+02 
5.317440e-01 3.556896e+02 
5.489640e-01 3.415158e+02 
5.671990e-01 3.276706e+02 
5.838690e-01 3.159421e+02 
6.018840e-01 3.041885e+02 
6.202330e-01 2.931196e+02 
6.379250e-01 2.831919e+02 
6.545410e-01 2.745159e+02 
6.714560e-01 2.662306e+02 
6.892080e-01 2.581034e+02 
7.066010e-01 2.506410e+02 
7.240540e-01 2.435945e+02 
7.420450e-01 2.367750e+02 
7.593780e-01 2.305769e+02 
7.764720e-01 2.247868e+02 
7.942840e-01 2.190735e+02 
8.116170e-01 2.137977e+02 
8.288310e-01 2.088114e+02 
8.462240e-01 2.040045e+02 
8.631980e-01 1.995207e+02 
8.810700e-01 1.950052e+02 
8.989410e-01 1.906848e+02 
9.166330e-01 1.865819e+02 
9.345640e-01 1.825893e+02 
9.515980e-01 1.789377e+02 
9.688720e-01 1.753673e+02 
9.865640e-01 1.718386e+02 
1.031870e+00 1.633475e+02 
1.063490e+00 1.578167e+02 
1.097920e+00 1.521678e+02 
1.134370e+00 1.465051e+02 
1.167730e+00 1.416204e+02 
1.203830e+00 1.366049e+02 
1.240470e+00 1.318011e+02 
1.275790e+00 1.273871e+02 
1.309140e+00 1.234337e+02 
1.342970e+00 1.195841e+02 
1.378420e+00 1.157542e+02 
1.413200e+00 1.121642e+02 
1.448110e+00 1.087104e+02 
1.484090e+00 1.053238e+02 
1.518820e+00 1.021818e+02 
1.552880e+00 9.923825e+01 
1.588630e+00 9.626651e+01 
1.623230e+00 9.351990e+01 
1.657720e+00 9.088914e+01 
1.692450e+00 8.836020e+01 
1.726400e+00 8.596223e+01 
1.762200e+00 8.353207e+01 
1.797880e+00 8.121428e+01 
1.833270e+00 7.899422e+01 
1.869070e+00 7.684428e+01 
1.903200e+00 7.486891e+01 
1.937740e+00 7.294015e+01 
1.973190e+00 7.103098e+01 
2.007440e+00 6.925443e+01 
2.042160e+00 6.752249e+01 
2.077900e+00 6.579216e+01 
2.112390e+00 6.419011e+01 
2.146220e+00 6.265771e+01 
2.181600e+00 6.111820e+01 
2.216930e+00 5.963361e+01 
2.250760e+00 5.825276e+01 
2.286500e+00 5.684040e+01 
2.321770e+00 5.549995e+01 
2.355950e+00 5.424888e+01 
2.391280e+00 5.298711e+01 
2.426240e+00 5.177714e+01 
2.460670e+00 5.062248e+01 
2.495640e+00 4.948654e+01 
2.531080e+00 4.837640e+01 
2.566220e+00 4.730309e+01 
2.600830e+00 4.627916e+01 
2.635080e+00 4.529989e+01 
2.670340e+00 4.431295e+01 
2.705970e+00 4.334967e+01 
2.740040e+00 4.245789e+01 
2.774520e+00 4.157984e+01 
2.809730e+00 4.070828e+01 
2.844390e+00 3.987503e+01 
2.879960e+00 3.904325e+01 
2.914860e+00 3.824969e+01 
2.949410e+00 3.748621e+01 
2.984440e+00 3.673223e+01 
3.019760e+00 3.599571e+01 
3.054730e+00 3.528827e+01 
3.089030e+00 3.460732e+01 
3.124060e+00 3.393247e+01 
3.159560e+00 3.326921e+01 
3.194710e+00 3.262601e+01 
3.229010e+00 3.201448e+01 
3.263320e+00 3.142072e+01 
3.297930e+00 3.083734e+01 
3.332830e+00 3.026349e+01 
3.368040e+00 2.969908e+01 
3.403300e+00 2.914832e+01 
3.438450e+00 2.861231e+01 
3.473060e+00 2.809807e+01 
3.508440e+00 2.758749e+01 
3.543110e+00 2.709952e+01 
3.577470e+00 2.662435e+01 
3.613040e+00 2.614532e+01 
3.648120e+00 2.568579e+01 
3.682910e+00 2.524103e+01 
3.718050e+00 2.480206e+01 
3.753320e+00 2.437185e+01 
3.787980e+00 2.395862e+01 
3.822290e+00 2.355986e+01 
3.857020e+00 2.316660e+01 
3.891920e+00 2.277955e+01 
3.926650e+00 2.240122e+01 
3.961970e+00 2.202591e+01 
3.997360e+00 2.165962e+01 
4.031670e+00 2.131255e+01 
4.066330e+00 2.096915e+01 
4.101420e+00 2.062944e+01 
4.136200e+00 2.030114e+01 
4.170810e+00 1.998174e+01 
4.206250e+00 1.966119e+01 
4.241580e+00 1.934866e+01 
4.276300e+00 1.904826e+01 
4.310970e+00 1.875477e+01 
4.346120e+00 1.846368e+01 
4.380600e+00 1.818428e+01 
4.414730e+00 1.791352e+01 
4.450350e+00 1.763679e+01 
4.485320e+00 1.737088e+01 
4.519810e+00 1.711414e+01 
4.555430e+00 1.685455e+01 
4.590870e+00 1.660172e+01 
4.625480e+00 1.635997e+01 
4.659910e+00 1.612432e+01 
4.695230e+00 1.588757e+01 
4.729960e+00 1.565948e+01 
4.764450e+00 1.543752e+01 
4.799530e+00 1.521636e+01 
4.834910e+00 1.499772e+01 
4.869700e+00 1.478713e+01 
4.904370e+00 1.458135e+01 
4.939450e+00 1.437721e+01 
4.973940e+00 1.418051e+01 
5.008430e+00 1.398752e+01 
5.043810e+00 1.379350e+01 
5.078840e+00 1.360515e+01 
5.113500e+00 1.342227e+01 
5.148890e+00 1.323924e+01 
5.184210e+00 1.305999e+01 
5.219060e+00 1.288647e+01 
5.253660e+00 1.271756e+01 
5.288570e+00 1.255022e+01 
5.323420e+00 1.238632e+01 
5.358440e+00 1.222473e+01 
5.393590e+00 1.206544e+01 
5.428310e+00 1.191111e+01 
5.462800e+00 1.176058e+01 
5.497640e+00 1.161117e+01 
5.532670e+00 1.146382e+01 
5.567280e+00 1.132083e+01 
5.602000e+00 1.117983e+01 
5.637270e+00 1.103930e+01 
5.672410e+00 1.090174e+01 
5.707020e+00 1.076853e+01 
5.742040e+00 1.063631e+01 
5.777430e+00 1.050501e+01 
5.812210e+00 1.037812e+01 
5.846820e+00 1.025412e+01 
5.881610e+00 1.013157e+01 
5.916510e+00 1.001063e+01 
5.951600e+00 9.891303e+00 
5.986560e+00 9.774476e+00 
6.021830e+00 9.658512e+00 
6.056490e+00 9.546547e+00 
6.091160e+00 9.436458e+00 
6.125830e+00 9.328093e+00 
6.161090e+00 9.219709e+00 
6.195760e+00 9.115010e+00 
6.230420e+00 9.011952e+00 
6.265690e+00 8.908716e+00 
6.300950e+00 8.807498e+00 
6.335620e+00 8.709494e+00 
6.370880e+00 8.611337e+00 
6.405550e+00 8.516473e+00 
6.440220e+00 8.423103e+00 
6.475480e+00 8.329565e+00 
6.510150e+00 8.239068e+00 
6.544810e+00 8.150166e+00 
6.580080e+00 8.061032e+00 
6.614750e+00 7.974700e+00 
6.649410e+00 7.889886e+00 
6.684080e+00 7.806317e+00 
6.719340e+00 7.722553e+00 
6.754010e+00 7.641462e+00 
6.788680e+00 7.561727e+00 
6.823940e+00 7.481789e+00 
6.859800e+00 7.401660e+00 
6.894470e+00 7.325488e+00 
6.929140e+00 7.250445e+00 
6.963800e+00 7.176462e+00 
6.999070e+00 7.102242e+00 
7.033730e+00 7.030605e+00 
7.068400e+00 6.959923e+00 
7.103660e+00 6.889022e+00 
7.138330e+00 6.820340e+00 
7.173600e+00 6.751589e+00 
7.208260e+00 6.684938e+00 
7.243530e+00 6.618024e+00 
7.277600e+00 6.554379e+00 
7.312860e+00 6.489501e+00 
7.348120e+00 6.425490e+00 
7.382790e+00 6.363380e+00 
7.417460e+00 6.302244e+00 
7.452720e+00 6.240964e+00 
7.487390e+00 6.181493e+00 
7.522650e+00 6.121794e+00 
7.557320e+00 6.064028e+00 
7.591990e+00 6.007064e+00 
7.627250e+00 5.949869e+00 
7.662510e+00 5.893408e+00 
7.697180e+00 5.838761e+00 
7.731850e+00 5.784861e+00 
7.766510e+00 5.731646e+00 
7.801180e+00 5.679076e+00 
7.836440e+00 5.626401e+00 
7.871110e+00 5.575326e+00 
7.906380e+00 5.524008e+00 
7.941040e+00 5.474197e+00 
7.976310e+00 5.424222e+00 
8.011570e+00 5.374985e+00 
8.046240e+00 5.327159e+00 
8.080900e+00 5.279920e+00 
8.115570e+00 5.233278e+00 
8.150830e+00 5.186595e+00 
8.185500e+00 5.141240e+00 
8.220770e+00 5.095647e+00 
8.255430e+00 5.051373e+00 
8.290100e+00 5.007755e+00 
8.324770e+00 4.964661e+00 
8.359430e+00 4.922079e+00 
8.394700e+00 4.879252e+00 
8.429960e+00 4.837031e+00 
8.464630e+00 4.796092e+00 
8.499890e+00 4.754934e+00 
8.534560e+00 4.714927e+00 
8.569200e+00 4.675407e+00 
