# Parameters:
# omega_b = 0.023122, omega_m = 0.134882, n_s = 1.040551, h = 64.921260, w = -1.000000, sigma_8 = 0.885827
# z = 0.700000
#
# k[1/Mpc] # P(k):
8.694000e-04 7.734316e+03 
2.077466e-03 1.757518e+04 
3.285532e-03 2.564710e+04 
4.493598e-03 3.208123e+04 
5.701664e-03 3.699583e+04 
6.909730e-03 4.059101e+04 
8.117797e-03 4.313048e+04 
9.325863e-03 4.474669e+04 
1.053393e-02 4.557605e+04 
1.174199e-02 4.574957e+04 
1.295006e-02 4.535263e+04 
1.415813e-02 4.450931e+04 
1.536619e-02 4.332769e+04 
1.657426e-02 4.188658e+04 
1.778233e-02 4.027436e+04 
1.899039e-02 3.862493e+04 
2.019846e-02 3.696575e+04 
2.140652e-02 3.530614e+04 
2.261459e-02 3.367460e+04 
2.382266e-02 3.211442e+04 
2.503072e-02 3.065172e+04 
2.623879e-02 2.929656e+04 
2.744685e-02 2.805288e+04 
2.865492e-02 2.692415e+04 
2.986299e-02 2.590551e+04 
3.100100e-02 2.504501e+04 
3.220400e-02 2.423034e+04 
3.288100e-02 2.381416e+04 
3.424300e-02 2.305554e+04 
3.555100e-02 2.241129e+04 
3.686000e-02 2.183742e+04 
3.795000e-02 2.140234e+04 
3.929100e-02 2.091125e+04 
4.039800e-02 2.053030e+04 
4.164000e-02 2.012066e+04 
4.294400e-02 1.969570e+04 
4.415000e-02 1.930665e+04 
4.542900e-02 1.888113e+04 
4.660900e-02 1.848334e+04 
4.782300e-02 1.804982e+04 
4.892900e-02 1.764559e+04 
5.031200e-02 1.712184e+04 
5.155900e-02 1.663147e+04 
5.238100e-02 1.630208e+04 
5.378200e-02 1.573358e+04 
5.513400e-02 1.517853e+04 
5.627600e-02 1.470994e+04 
5.735300e-02 1.427311e+04 
5.870100e-02 1.373784e+04 
5.988700e-02 1.328256e+04 
6.113500e-02 1.282209e+04 
6.225900e-02 1.242656e+04 
6.340100e-02 1.204575e+04 
6.480200e-02 1.160812e+04 
6.601100e-02 1.125968e+04 
6.725500e-02 1.092923e+04 
6.829100e-02 1.067786e+04 
6.958600e-02 1.038874e+04 
7.071100e-02 1.016203e+04 
7.192300e-02 9.940216e+03 
7.307400e-02 9.749618e+03 
7.412300e-02 9.591279e+03 
7.550400e-02 9.404159e+03 
7.663100e-02 9.264781e+03 
7.791200e-02 9.121482e+03 
7.912700e-02 8.995762e+03 
8.027600e-02 8.882771e+03 
8.138400e-02 8.777271e+03 
8.272200e-02 8.652043e+03 
8.406100e-02 8.526555e+03 
8.534100e-02 8.402425e+03 
8.653800e-02 8.280686e+03 
8.759800e-02 8.169344e+03 
8.900300e-02 8.015153e+03 
9.009000e-02 7.889551e+03 
9.113300e-02 7.763204e+03 
9.239600e-02 7.607032e+03 
9.358000e-02 7.456128e+03 
9.496100e-02 7.274778e+03 
9.608400e-02 7.126953e+03 
9.727500e-02 6.971117e+03 
9.852600e-02 6.807068e+03 
9.973800e-02 6.652404e+03 
1.009000e-01 6.508044e+03 
1.020900e-01 6.366179e+03 
1.034000e-01 6.216924e+03 
1.046000e-01 6.086672e+03 
1.057200e-01 5.973885e+03 
1.069100e-01 5.859593e+03 
1.082500e-01 5.741554e+03 
1.093900e-01 5.648605e+03 
1.105400e-01 5.559934e+03 
1.116900e-01 5.480046e+03 
1.129600e-01 5.396296e+03 
1.142000e-01 5.321999e+03 
1.153300e-01 5.257769e+03 
1.166400e-01 5.187958e+03 
1.177800e-01 5.130352e+03 
1.190000e-01 5.070951e+03 
1.201200e-01 5.017850e+03 
1.213400e-01 4.961398e+03 
1.227100e-01 4.897681e+03 
1.238900e-01 4.843499e+03 
1.250700e-01 4.788235e+03 
1.263200e-01 4.729894e+03 
1.275500e-01 4.671240e+03 
1.287500e-01 4.613898e+03 
1.299900e-01 4.553726e+03 
1.311300e-01 4.498332e+03 
1.323500e-01 4.438382e+03 
1.335900e-01 4.377759e+03 
1.347100e-01 4.322768e+03 
1.359800e-01 4.261164e+03 
1.372100e-01 4.201623e+03 
1.384300e-01 4.143612e+03 
1.395700e-01 4.089913e+03 
1.407700e-01 4.034561e+03 
1.420300e-01 3.977556e+03 
1.432800e-01 3.922258e+03 
1.444500e-01 3.872009e+03 
1.456300e-01 3.822364e+03 
1.468900e-01 3.771301e+03 
1.480500e-01 3.725507e+03 
1.491700e-01 3.682702e+03 
1.503800e-01 3.638071e+03 
1.516400e-01 3.592813e+03 
1.528200e-01 3.552461e+03 
1.540200e-01 3.512211e+03 
1.551900e-01 3.474778e+03 
1.564300e-01 3.436118e+03 
1.576600e-01 3.398982e+03 
1.588700e-01 3.363706e+03 
1.600900e-01 3.328834e+03 
1.612700e-01 3.296317e+03 
1.625400e-01 3.261968e+03 
1.637600e-01 3.229673e+03 
1.649500e-01 3.198788e+03 
1.662200e-01 3.166386e+03 
1.674000e-01 3.136612e+03 
1.685000e-01 3.109317e+03 
1.697500e-01 3.078525e+03 
1.710300e-01 3.047265e+03 
1.722200e-01 3.018716e+03 
1.734400e-01 2.989237e+03 
1.746400e-01 2.960706e+03 
1.758700e-01 2.931742e+03 
1.770900e-01 2.903060e+03 
1.782700e-01 2.875781e+03 
1.794600e-01 2.848446e+03 
1.807000e-01 2.820252e+03 
1.819100e-01 2.793200e+03 
1.830100e-01 2.768817e+03 
1.842200e-01 2.742384e+03 
1.855000e-01 2.714890e+03 
1.867000e-01 2.689589e+03 
1.879200e-01 2.664278e+03 
1.890900e-01 2.640427e+03 
1.902800e-01 2.616762e+03 
1.915200e-01 2.592490e+03 
1.926900e-01 2.570023e+03 
1.939000e-01 2.547403e+03 
1.951700e-01 2.524035e+03 
1.963100e-01 2.503473e+03 
1.975100e-01 2.482404e+03 
1.987800e-01 2.460448e+03 
2.000100e-01 2.439599e+03 
2.012500e-01 2.419106e+03 
2.023400e-01 2.401347e+03 
2.036100e-01 2.380989e+03 
2.048900e-01 2.360940e+03 
2.060400e-01 2.343187e+03 
2.072200e-01 2.325228e+03 
2.084200e-01 2.307272e+03 
2.096900e-01 2.288544e+03 
2.109200e-01 2.270670e+03 
2.121100e-01 2.253517e+03 
2.132700e-01 2.237018e+03 
2.145200e-01 2.219484e+03 
2.157200e-01 2.202773e+03 
2.168800e-01 2.186782e+03 
2.180700e-01 2.170594e+03 
2.193400e-01 2.153444e+03 
2.206000e-01 2.136457e+03 
2.217500e-01 2.121160e+03 
2.229500e-01 2.105406e+03 
2.241400e-01 2.089661e+03 
2.253500e-01 2.073853e+03 
2.264900e-01 2.059150e+03 
2.277100e-01 2.043426e+03 
2.289900e-01 2.026938e+03 
2.301500e-01 2.012192e+03 
2.313600e-01 1.997002e+03 
2.325600e-01 1.981766e+03 
2.337700e-01 1.966600e+03 
2.350000e-01 1.951382e+03 
2.362000e-01 1.936577e+03 
2.374100e-01 1.921660e+03 
2.386500e-01 1.906570e+03 
2.399100e-01 1.891436e+03 
2.410400e-01 1.877868e+03 
2.422500e-01 1.863494e+03 
2.435000e-01 1.848832e+03 
2.447300e-01 1.834576e+03 
2.458700e-01 1.821470e+03 
2.470600e-01 1.807951e+03 
2.483300e-01 1.793703e+03 
2.495600e-01 1.780114e+03 
2.507600e-01 1.767068e+03 
2.519600e-01 1.754178e+03 
2.532200e-01 1.740808e+03 
2.543700e-01 1.728878e+03 
2.555500e-01 1.716862e+03 
2.568000e-01 1.704284e+03 
2.580100e-01 1.692253e+03 
2.592400e-01 1.680381e+03 
2.604100e-01 1.669311e+03 
2.616100e-01 1.658085e+03 
2.628400e-01 1.646711e+03 
2.640600e-01 1.635799e+03 
2.652200e-01 1.625634e+03 
2.664300e-01 1.615148e+03 
2.676500e-01 1.604693e+03 
2.688400e-01 1.594802e+03 
2.700700e-01 1.584813e+03 
2.712400e-01 1.575415e+03 
2.724800e-01 1.565563e+03 
2.736700e-01 1.556333e+03 
2.748800e-01 1.547174e+03 
2.761000e-01 1.538040e+03 
2.773200e-01 1.529004e+03 
2.785400e-01 1.520123e+03 
2.797000e-01 1.511889e+03 
2.808900e-01 1.503529e+03 
2.821400e-01 1.494840e+03 
2.833900e-01 1.486250e+03 
2.845500e-01 1.478469e+03 
2.857800e-01 1.470303e+03 
2.870300e-01 1.462092e+03 
2.882100e-01 1.454421e+03 
2.893900e-01 1.446880e+03 
2.906300e-01 1.439065e+03 
2.918900e-01 1.431207e+03 
2.930500e-01 1.424046e+03 
2.942500e-01 1.416717e+03 
2.954200e-01 1.409663e+03 
2.966500e-01 1.402321e+03 
2.978900e-01 1.394994e+03 
2.990400e-01 1.388265e+03 
3.002700e-01 1.381155e+03 
3.015100e-01 1.374067e+03 
3.026800e-01 1.367445e+03 
3.038500e-01 1.360885e+03 
3.050300e-01 1.354331e+03 
3.062600e-01 1.347577e+03 
3.075000e-01 1.340835e+03 
3.087000e-01 1.334374e+03 
3.099100e-01 1.327920e+03 
3.111200e-01 1.321533e+03 
3.123100e-01 1.315319e+03 
3.135300e-01 1.309008e+03 
3.147300e-01 1.302859e+03 
3.159900e-01 1.296465e+03 
3.171800e-01 1.290486e+03 
3.183700e-01 1.284564e+03 
3.196300e-01 1.278353e+03 
3.208400e-01 1.272444e+03 
3.220300e-01 1.266686e+03 
3.232000e-01 1.261087e+03 
3.244300e-01 1.255258e+03 
3.256700e-01 1.249436e+03 
3.269200e-01 1.243622e+03 
3.280800e-01 1.238276e+03 
3.292500e-01 1.232941e+03 
3.304800e-01 1.227387e+03 
3.317100e-01 1.221883e+03 
3.328900e-01 1.216649e+03 
3.340700e-01 1.211461e+03 
3.353600e-01 1.205852e+03 
3.365300e-01 1.200815e+03 
3.377100e-01 1.195779e+03 
3.389200e-01 1.190658e+03 
3.401600e-01 1.185457e+03 
3.413700e-01 1.180435e+03 
3.425300e-01 1.175667e+03 
3.437700e-01 1.170613e+03 
3.449800e-01 1.165725e+03 
3.461800e-01 1.160919e+03 
3.473600e-01 1.156238e+03 
3.485800e-01 1.151455e+03 
3.498100e-01 1.146674e+03 
3.510200e-01 1.142011e+03 
3.522000e-01 1.137501e+03 
3.533900e-01 1.132990e+03 
3.546400e-01 1.128302e+03 
3.558400e-01 1.123839e+03 
3.570600e-01 1.119340e+03 
3.582700e-01 1.114915e+03 
3.595000e-01 1.110454e+03 
3.607100e-01 1.106109e+03 
3.618900e-01 1.101911e+03 
3.631200e-01 1.097572e+03 
3.643200e-01 1.093373e+03 
3.655500e-01 1.089104e+03 
3.667300e-01 1.085041e+03 
3.679500e-01 1.080880e+03 
3.691900e-01 1.076686e+03 
3.703600e-01 1.072760e+03 
3.715700e-01 1.068731e+03 
3.727700e-01 1.064767e+03 
3.739900e-01 1.060775e+03 
3.752000e-01 1.056856e+03 
3.763900e-01 1.053032e+03 
3.775800e-01 1.049238e+03 
3.788200e-01 1.045315e+03 
3.800300e-01 1.041518e+03 
3.812100e-01 1.037842e+03 
3.824200e-01 1.034100e+03 
3.836100e-01 1.030448e+03 
3.848600e-01 1.026642e+03 
3.860400e-01 1.023077e+03 
3.872400e-01 1.019479e+03 
3.884600e-01 1.015855e+03 
3.896500e-01 1.012351e+03 
3.908700e-01 1.008785e+03 
3.920600e-01 1.005333e+03 
3.933100e-01 1.001735e+03 
3.945300e-01 9.982498e+02 
3.957200e-01 9.948694e+02 
3.969300e-01 9.914557e+02 
3.981700e-01 9.879839e+02 
3.993500e-01 9.847047e+02 
4.094840e-01 9.574577e+02 
4.272360e-01 9.134576e+02 
4.454600e-01 8.723944e+02 
4.630560e-01 8.361490e+02 
4.804610e-01 8.032158e+02 
4.980690e-01 7.724571e+02 
5.159230e-01 7.436756e+02 
5.317440e-01 7.199611e+02 
5.489640e-01 6.959175e+02 
5.671990e-01 6.722915e+02 
5.838690e-01 6.521665e+02 
6.018840e-01 6.318824e+02 
6.202330e-01 6.125966e+02 
6.379250e-01 5.952131e+02 
6.545410e-01 5.798743e+02 
6.714560e-01 5.651102e+02 
6.892080e-01 5.505253e+02 
7.066010e-01 5.369735e+02 
7.240540e-01 5.240664e+02 
7.420450e-01 5.114379e+02 
7.593780e-01 4.998504e+02 
7.764720e-01 4.889195e+02 
7.942840e-01 4.780179e+02 
8.116170e-01 4.678169e+02 
8.288310e-01 4.580835e+02 
8.462240e-01 4.486096e+02 
8.631980e-01 4.396793e+02 
8.810700e-01 4.305987e+02 
8.989410e-01 4.218269e+02 
9.166330e-01 4.134157e+02 
9.345640e-01 4.051437e+02 
9.515980e-01 3.975155e+02 
9.688720e-01 3.899926e+02 
9.865640e-01 3.824879e+02 
1.031870e+00 3.642412e+02 
1.063490e+00 3.521587e+02 
1.097920e+00 3.396926e+02 
1.134370e+00 3.270741e+02 
1.167730e+00 3.160803e+02 
1.203830e+00 3.047125e+02 
1.240470e+00 2.937499e+02 
1.275790e+00 2.836230e+02 
1.309140e+00 2.745193e+02 
1.342970e+00 2.656047e+02 
1.378420e+00 2.567218e+02 
1.413200e+00 2.483736e+02 
1.448110e+00 2.403190e+02 
1.484090e+00 2.324115e+02 
1.518820e+00 2.250722e+02 
1.552880e+00 2.181912e+02 
1.588630e+00 2.112503e+02 
1.623230e+00 2.048307e+02 
1.657720e+00 1.986850e+02 
1.692450e+00 1.927786e+02 
1.726400e+00 1.871801e+02 
1.762200e+00 1.815088e+02 
1.797880e+00 1.761118e+02 
1.833270e+00 1.709514e+02 
1.869070e+00 1.659542e+02 
1.903200e+00 1.613717e+02 
1.937740e+00 1.569065e+02 
1.973190e+00 1.524880e+02 
2.007440e+00 1.483892e+02 
2.042160e+00 1.443960e+02 
2.077900e+00 1.404166e+02 
2.112390e+00 1.367385e+02 
2.146220e+00 1.332301e+02 
2.181600e+00 1.297059e+02 
2.216930e+00 1.263187e+02 
2.250760e+00 1.231736e+02 
2.286500e+00 1.199627e+02 
2.321770e+00 1.169238e+02 
2.355950e+00 1.140924e+02 
2.391280e+00 1.112394e+02 
2.426240e+00 1.085121e+02 
2.460670e+00 1.059158e+02 
2.495640e+00 1.033659e+02 
2.531080e+00 1.008781e+02 
2.566220e+00 9.848141e+01 
2.600830e+00 9.619965e+01 
2.635080e+00 9.402038e+01 
2.670340e+00 9.182978e+01 
2.705970e+00 8.969693e+01 
2.740040e+00 8.772595e+01 
2.774520e+00 8.578709e+01 
2.809730e+00 8.386817e+01 
2.844390e+00 8.203747e+01 
2.879960e+00 8.021443e+01 
2.914860e+00 7.847929e+01 
2.949410e+00 7.681278e+01 
2.984440e+00 7.517124e+01 
3.019760e+00 7.357038e+01 
3.054730e+00 7.203485e+01 
3.089030e+00 7.056200e+01 
3.124060e+00 6.910436e+01 
3.159560e+00 6.767426e+01 
3.194710e+00 6.629121e+01 
3.229010e+00 6.497810e+01 
3.263320e+00 6.370646e+01 
3.297930e+00 6.245874e+01 
3.332830e+00 6.123416e+01 
3.368040e+00 6.003203e+01 
3.403300e+00 5.886077e+01 
3.438450e+00 5.772413e+01 
3.473060e+00 5.663482e+01 
3.508440e+00 5.555599e+01 
3.543110e+00 5.452591e+01 
3.577470e+00 5.352591e+01 
3.613040e+00 5.251883e+01 
3.648120e+00 5.155480e+01 
3.682910e+00 5.062294e+01 
3.718050e+00 4.970517e+01 
3.753320e+00 4.880712e+01 
3.787980e+00 4.794633e+01 
3.822290e+00 4.711675e+01 
3.857020e+00 4.630000e+01 
3.891920e+00 4.549730e+01 
3.926650e+00 4.471445e+01 
3.961970e+00 4.393868e+01 
3.997360e+00 4.318315e+01 
4.031670e+00 4.246785e+01 
4.066330e+00 4.176188e+01 
4.101420e+00 4.106377e+01 
4.136200e+00 4.039077e+01 
4.170810e+00 3.973619e+01 
4.206250e+00 3.908090e+01 
4.241580e+00 3.844244e+01 
4.276300e+00 3.782991e+01 
4.310970e+00 3.723217e+01 
4.346120e+00 3.663998e+01 
4.380600e+00 3.607258e+01 
4.414730e+00 3.552288e+01 
4.450350e+00 3.496252e+01 
4.485320e+00 3.442420e+01 
4.519810e+00 3.390544e+01 
4.555430e+00 3.338141e+01 
4.590870e+00 3.287148e+01 
4.625480e+00 3.238469e+01 
4.659910e+00 3.191024e+01 
4.695230e+00 3.143463e+01 
4.729960e+00 3.097662e+01 
4.764450e+00 3.053134e+01 
4.799530e+00 3.008827e+01 
4.834910e+00 2.965034e+01 
4.869700e+00 2.922937e+01 
4.904370e+00 2.881819e+01 
4.939450e+00 2.841056e+01 
4.973940e+00 2.801843e+01 
5.008430e+00 2.763371e+01 
5.043810e+00 2.724745e+01 
5.078840e+00 2.687281e+01 
5.113500e+00 2.650905e+01 
5.148890e+00 2.614564e+01 
5.184210e+00 2.578978e+01 
5.219060e+00 2.544547e+01 
5.253660e+00 2.511075e+01 
5.288570e+00 2.477912e+01 
5.323420e+00 2.445460e+01 
5.358440e+00 2.413499e+01 
5.393590e+00 2.381992e+01 
5.428310e+00 2.351497e+01 
5.462800e+00 2.321771e+01 
5.497640e+00 2.292264e+01 
5.532670e+00 2.263197e+01 
5.567280e+00 2.234999e+01 
5.602000e+00 2.207194e+01 
5.637270e+00 2.179509e+01 
5.672410e+00 2.152417e+01 
5.707020e+00 2.126181e+01 
5.742040e+00 2.100167e+01 
5.777430e+00 2.074337e+01 
5.812210e+00 2.049374e+01 
5.846820e+00 2.025000e+01 
5.881610e+00 2.000912e+01 
5.916510e+00 1.977141e+01 
5.951600e+00 1.953700e+01 
5.986560e+00 1.930755e+01 
6.021830e+00 1.907979e+01 
6.056490e+00 1.885996e+01 
6.091160e+00 1.864390e+01 
6.125830e+00 1.843120e+01 
6.161090e+00 1.821850e+01 
6.195760e+00 1.801308e+01 
6.230420e+00 1.781087e+01 
6.265690e+00 1.760831e+01 
6.300950e+00 1.740980e+01 
6.335620e+00 1.721758e+01 
6.370880e+00 1.702505e+01 
6.405550e+00 1.683898e+01 
6.440220e+00 1.665584e+01 
6.475480e+00 1.647236e+01 
6.510150e+00 1.629484e+01 
6.544810e+00 1.612047e+01 
6.580080e+00 1.594563e+01 
6.614750e+00 1.577628e+01 
6.649410e+00 1.560989e+01 
6.684080e+00 1.544593e+01 
6.719340e+00 1.528158e+01 
6.754010e+00 1.512245e+01 
6.788680e+00 1.496592e+01 
6.823940e+00 1.480899e+01 
6.859800e+00 1.465167e+01 
6.894470e+00 1.450208e+01 
6.929140e+00 1.435468e+01 
6.963800e+00 1.420936e+01 
6.999070e+00 1.406357e+01 
7.033730e+00 1.392275e+01 
7.068400e+00 1.378381e+01 
7.103660e+00 1.364442e+01 
7.138330e+00 1.350937e+01 
7.173600e+00 1.337411e+01 
7.208260e+00 1.324297e+01 
7.243530e+00 1.311132e+01 
7.277600e+00 1.298602e+01 
7.312860e+00 1.285824e+01 
7.348120e+00 1.273216e+01 
7.382790e+00 1.260981e+01 
7.417460e+00 1.248930e+01 
7.452720e+00 1.236847e+01 
7.487390e+00 1.225119e+01 
7.522650e+00 1.213346e+01 
7.557320e+00 1.201943e+01 
7.591990e+00 1.190694e+01 
7.627250e+00 1.179399e+01 
7.662510e+00 1.168248e+01 
7.697180e+00 1.157446e+01 
7.731850e+00 1.146787e+01 
7.766510e+00 1.136264e+01 
7.801180e+00 1.125867e+01 
7.836440e+00 1.115441e+01 
7.871110e+00 1.105326e+01 
7.906380e+00 1.095163e+01 
7.941040e+00 1.085298e+01 
7.976310e+00 1.075393e+01 
8.011570e+00 1.065624e+01 
8.046240e+00 1.056136e+01 
8.080900e+00 1.046763e+01 
8.115570e+00 1.037507e+01 
8.150830e+00 1.028231e+01 
8.185500e+00 1.019218e+01 
8.220770e+00 1.010159e+01 
8.255430e+00 1.001362e+01 
8.290100e+00 9.926786e+00 
8.324770e+00 9.840982e+00 
8.359430e+00 9.756199e+00 
8.394700e+00 9.670929e+00 
8.429960e+00 9.586789e+00 
8.464630e+00 9.505124e+00 
8.499890e+00 9.423026e+00 
8.534560e+00 9.343228e+00 
8.569200e+00 9.264403e+00 
