# Parameters:
# omega_b = 0.022618, omega_m = 0.123858, n_s = 0.856299, h = 84.291339, w = -1.000000, sigma_8 = 0.734646
# z = 0.700000
#
# k[1/Mpc] # P(k):
8.694000e-04 1.405800e+04 
2.077466e-03 2.679863e+04 
3.285532e-03 3.556777e+04 
4.493598e-03 4.152949e+04 
5.701664e-03 4.535694e+04 
6.909730e-03 4.755780e+04 
8.117797e-03 4.858714e+04 
9.325863e-03 4.867851e+04 
1.053393e-02 4.803762e+04 
1.174199e-02 4.684079e+04 
1.295006e-02 4.520097e+04 
1.415813e-02 4.325920e+04 
1.536619e-02 4.112646e+04 
1.657426e-02 3.886973e+04 
1.778233e-02 3.650120e+04 
1.899039e-02 3.407173e+04 
2.019846e-02 3.172884e+04 
2.140652e-02 2.957804e+04 
2.261459e-02 2.760845e+04 
2.382266e-02 2.581420e+04 
2.503072e-02 2.419667e+04 
2.623879e-02 2.275114e+04 
2.744685e-02 2.147333e+04 
2.865492e-02 2.035025e+04 
2.986299e-02 1.936721e+04 
3.100100e-02 1.856255e+04 
3.220400e-02 1.782242e+04 
3.288100e-02 1.745382e+04 
3.424300e-02 1.679747e+04 
3.555100e-02 1.625492e+04 
3.686000e-02 1.578289e+04 
3.795000e-02 1.543060e+04 
3.929100e-02 1.503648e+04 
4.039800e-02 1.472998e+04 
4.164000e-02 1.439732e+04 
4.294400e-02 1.404359e+04 
4.415000e-02 1.371306e+04 
4.542900e-02 1.334056e+04 
4.660900e-02 1.298581e+04 
4.782300e-02 1.259008e+04 
4.892900e-02 1.221743e+04 
5.031200e-02 1.173092e+04 
5.155900e-02 1.127466e+04 
5.238100e-02 1.096932e+04 
5.378200e-02 1.044623e+04 
5.513400e-02 9.943200e+03 
5.627600e-02 9.526286e+03 
5.735300e-02 9.145147e+03 
5.870100e-02 8.689452e+03 
5.988700e-02 8.312527e+03 
6.113500e-02 7.942446e+03 
6.225900e-02 7.634886e+03 
6.340100e-02 7.348629e+03 
6.480200e-02 7.030794e+03 
6.601100e-02 6.789254e+03 
6.725500e-02 6.569532e+03 
6.829100e-02 6.410025e+03 
6.958600e-02 6.232806e+03 
7.071100e-02 6.099964e+03 
7.192300e-02 5.974649e+03 
7.307400e-02 5.870437e+03 
7.412300e-02 5.785873e+03 
7.550400e-02 5.687589e+03 
7.663100e-02 5.614400e+03 
7.791200e-02 5.537344e+03 
7.912700e-02 5.466086e+03 
8.027600e-02 5.398344e+03 
8.138400e-02 5.331503e+03 
8.272200e-02 5.246887e+03 
8.406100e-02 5.156719e+03 
8.534100e-02 5.062272e+03 
8.653800e-02 4.966634e+03 
8.759800e-02 4.878012e+03 
8.900300e-02 4.754300e+03 
9.009000e-02 4.653582e+03 
9.113300e-02 4.553094e+03 
9.239600e-02 4.430015e+03 
9.358000e-02 4.312759e+03 
9.496100e-02 4.174706e+03 
9.608400e-02 4.064076e+03 
9.727500e-02 3.949057e+03 
9.852600e-02 3.831295e+03 
9.973800e-02 3.722058e+03 
1.009000e-01 3.621582e+03 
1.020900e-01 3.525991e+03 
1.034000e-01 3.427101e+03 
1.046000e-01 3.342490e+03 
1.057200e-01 3.271950e+03 
1.069100e-01 3.201542e+03 
1.082500e-01 3.131729e+03 
1.093900e-01 3.078569e+03 
1.105400e-01 3.028949e+03 
1.116900e-01 2.986523e+03 
1.129600e-01 2.942784e+03 
1.142000e-01 2.905677e+03 
1.153300e-01 2.873946e+03 
1.166400e-01 2.840020e+03 
1.177800e-01 2.811778e+03 
1.190000e-01 2.782544e+03 
1.201200e-01 2.755045e+03 
1.213400e-01 2.725569e+03 
1.227100e-01 2.689325e+03 
1.238900e-01 2.657818e+03 
1.250700e-01 2.623466e+03 
1.263200e-01 2.586382e+03 
1.275500e-01 2.547315e+03 
1.287500e-01 2.508384e+03 
1.299900e-01 2.466398e+03 
1.311300e-01 2.427381e+03 
1.323500e-01 2.384617e+03 
1.335900e-01 2.341371e+03 
1.347100e-01 2.302115e+03 
1.359800e-01 2.258393e+03 
1.372100e-01 2.216546e+03 
1.384300e-01 2.176146e+03 
1.395700e-01 2.139478e+03 
1.407700e-01 2.101877e+03 
1.420300e-01 2.064399e+03 
1.432800e-01 2.028115e+03 
1.444500e-01 1.996486e+03 
1.456300e-01 1.965283e+03 
1.468900e-01 1.934192e+03 
1.480500e-01 1.906629e+03 
1.491700e-01 1.881329e+03 
1.503800e-01 1.855537e+03 
1.516400e-01 1.829551e+03 
1.528200e-01 1.807059e+03 
1.540200e-01 1.784632e+03 
1.551900e-01 1.764194e+03 
1.564300e-01 1.743194e+03 
1.576600e-01 1.723121e+03 
1.588700e-01 1.704173e+03 
1.600900e-01 1.685439e+03 
1.612700e-01 1.667873e+03 
1.625400e-01 1.649319e+03 
1.637600e-01 1.631651e+03 
1.649500e-01 1.614624e+03 
1.662200e-01 1.596681e+03 
1.674000e-01 1.579724e+03 
1.685000e-01 1.564183e+03 
1.697500e-01 1.546362e+03 
1.710300e-01 1.527987e+03 
1.722200e-01 1.511215e+03 
1.734400e-01 1.493373e+03 
1.746400e-01 1.476097e+03 
1.758700e-01 1.458460e+03 
1.770900e-01 1.440785e+03 
1.782700e-01 1.423991e+03 
1.794600e-01 1.407075e+03 
1.807000e-01 1.389577e+03 
1.819100e-01 1.372806e+03 
1.830100e-01 1.357745e+03 
1.842200e-01 1.341440e+03 
1.855000e-01 1.324507e+03 
1.867000e-01 1.309123e+03 
1.879200e-01 1.293748e+03 
1.890900e-01 1.279316e+03 
1.902800e-01 1.265226e+03 
1.915200e-01 1.250787e+03 
1.926900e-01 1.237504e+03 
1.939000e-01 1.224370e+03 
1.951700e-01 1.210810e+03 
1.963100e-01 1.198952e+03 
1.975100e-01 1.186983e+03 
1.987800e-01 1.174517e+03 
2.000100e-01 1.162736e+03 
2.012500e-01 1.151278e+03 
2.023400e-01 1.141352e+03 
2.036100e-01 1.129996e+03 
2.048900e-01 1.118877e+03 
2.060400e-01 1.109037e+03 
2.072200e-01 1.099086e+03 
2.084200e-01 1.089150e+03 
2.096900e-01 1.078791e+03 
2.109200e-01 1.068908e+03 
2.121100e-01 1.059413e+03 
2.132700e-01 1.050282e+03 
2.145200e-01 1.040583e+03 
2.157200e-01 1.031341e+03 
2.168800e-01 1.022502e+03 
2.180700e-01 1.013558e+03 
2.193400e-01 1.004114e+03 
2.206000e-01 9.948163e+02 
2.217500e-01 9.864475e+02 
2.229500e-01 9.778320e+02 
2.241400e-01 9.693635e+02 
2.253500e-01 9.608685e+02 
2.264900e-01 9.529707e+02 
2.277100e-01 9.446431e+02 
2.289900e-01 9.360416e+02 
2.301500e-01 9.283517e+02 
2.313600e-01 9.204358e+02 
2.325600e-01 9.127741e+02 
2.337700e-01 9.051497e+02 
2.350000e-01 8.975015e+02 
2.362000e-01 8.901909e+02 
2.374100e-01 8.829776e+02 
2.386500e-01 8.756814e+02 
2.399100e-01 8.683653e+02 
2.410400e-01 8.620020e+02 
2.422500e-01 8.552857e+02 
2.435000e-01 8.484356e+02 
2.447300e-01 8.418039e+02 
2.458700e-01 8.358226e+02 
2.470600e-01 8.296528e+02 
2.483300e-01 8.231501e+02 
2.495600e-01 8.169667e+02 
2.507600e-01 8.110557e+02 
2.519600e-01 8.052152e+02 
2.532200e-01 7.991572e+02 
2.543700e-01 7.937190e+02 
2.555500e-01 7.882200e+02 
2.568000e-01 7.824635e+02 
2.580100e-01 7.769577e+02 
2.592400e-01 7.714321e+02 
2.604100e-01 7.662390e+02 
2.616100e-01 7.609730e+02 
2.628400e-01 7.556377e+02 
2.640600e-01 7.503941e+02 
2.652200e-01 7.454592e+02 
2.664300e-01 7.403688e+02 
2.676500e-01 7.352945e+02 
2.688400e-01 7.303808e+02 
2.700700e-01 7.253464e+02 
2.712400e-01 7.206107e+02 
2.724800e-01 7.156471e+02 
2.736700e-01 7.109166e+02 
2.748800e-01 7.061385e+02 
2.761000e-01 7.013740e+02 
2.773200e-01 6.966622e+02 
2.785400e-01 6.919903e+02 
2.797000e-01 6.875713e+02 
2.808900e-01 6.830856e+02 
2.821400e-01 6.784249e+02 
2.833900e-01 6.738146e+02 
2.845500e-01 6.695523e+02 
2.857800e-01 6.650805e+02 
2.870300e-01 6.605853e+02 
2.882100e-01 6.563868e+02 
2.893900e-01 6.522190e+02 
2.906300e-01 6.478784e+02 
2.918900e-01 6.435154e+02 
2.930500e-01 6.395405e+02 
2.942500e-01 6.354664e+02 
2.954200e-01 6.315229e+02 
2.966500e-01 6.274194e+02 
2.978900e-01 6.233258e+02 
2.990400e-01 6.195676e+02 
3.002700e-01 6.155865e+02 
3.015100e-01 6.116137e+02 
3.026800e-01 6.079028e+02 
3.038500e-01 6.042280e+02 
3.050300e-01 6.005578e+02 
3.062600e-01 5.967706e+02 
3.075000e-01 5.929914e+02 
3.087000e-01 5.893705e+02 
3.099100e-01 5.857553e+02 
3.111200e-01 5.821795e+02 
3.123100e-01 5.787038e+02 
3.135300e-01 5.751750e+02 
3.147300e-01 5.717377e+02 
3.159900e-01 5.681639e+02 
3.171800e-01 5.648290e+02 
3.183700e-01 5.615303e+02 
3.196300e-01 5.580712e+02 
3.208400e-01 5.547817e+02 
3.220300e-01 5.515769e+02 
3.232000e-01 5.484687e+02 
3.244300e-01 5.452368e+02 
3.256700e-01 5.420098e+02 
3.269200e-01 5.387879e+02 
3.280800e-01 5.358257e+02 
3.292500e-01 5.328788e+02 
3.304800e-01 5.298136e+02 
3.317100e-01 5.267770e+02 
3.328900e-01 5.238904e+02 
3.340700e-01 5.210294e+02 
3.353600e-01 5.179480e+02 
3.365300e-01 5.151855e+02 
3.377100e-01 5.124237e+02 
3.389200e-01 5.096168e+02 
3.401600e-01 5.067662e+02 
3.413700e-01 5.040218e+02 
3.425300e-01 5.014220e+02 
3.437700e-01 4.986671e+02 
3.449800e-01 4.960029e+02 
3.461800e-01 4.933837e+02 
3.473600e-01 4.908370e+02 
3.485800e-01 4.882430e+02 
3.498100e-01 4.856506e+02 
3.510200e-01 4.831225e+02 
3.522000e-01 4.806781e+02 
3.533900e-01 4.782336e+02 
3.546400e-01 4.757070e+02 
3.558400e-01 4.733033e+02 
3.570600e-01 4.708803e+02 
3.582700e-01 4.684975e+02 
3.595000e-01 4.660959e+02 
3.607100e-01 4.637630e+02 
3.618900e-01 4.615144e+02 
3.631200e-01 4.591898e+02 
3.643200e-01 4.569408e+02 
3.655500e-01 4.546547e+02 
3.667300e-01 4.524795e+02 
3.679500e-01 4.502655e+02 
3.691900e-01 4.480339e+02 
3.703600e-01 4.459453e+02 
3.715700e-01 4.438026e+02 
3.727700e-01 4.416946e+02 
3.739900e-01 4.395746e+02 
3.752000e-01 4.374994e+02 
3.763900e-01 4.354747e+02 
3.775800e-01 4.334659e+02 
3.788200e-01 4.313894e+02 
3.800300e-01 4.293793e+02 
3.812100e-01 4.274403e+02 
3.824200e-01 4.254714e+02 
3.836100e-01 4.235502e+02 
3.848600e-01 4.215479e+02 
3.860400e-01 4.196726e+02 
3.872400e-01 4.177800e+02 
3.884600e-01 4.158801e+02 
3.896500e-01 4.140446e+02 
3.908700e-01 4.121773e+02 
3.920600e-01 4.103697e+02 
3.933100e-01 4.084857e+02 
3.945300e-01 4.066611e+02 
3.957200e-01 4.049026e+02 
3.969300e-01 4.031302e+02 
3.981700e-01 4.013276e+02 
3.993500e-01 3.996252e+02 
4.094840e-01 3.855223e+02 
4.272360e-01 3.629818e+02 
4.454600e-01 3.422244e+02 
4.630560e-01 3.241426e+02 
4.804610e-01 3.078854e+02 
4.980690e-01 2.928746e+02 
5.159230e-01 2.789491e+02 
5.317440e-01 2.675749e+02 
5.489640e-01 2.561266e+02 
5.671990e-01 2.449627e+02 
5.838690e-01 2.355185e+02 
6.018840e-01 2.260624e+02 
6.202330e-01 2.171637e+02 
6.379250e-01 2.091905e+02 
6.545410e-01 2.022278e+02 
6.714560e-01 1.955875e+02 
6.892080e-01 1.890817e+02 
7.066010e-01 1.831204e+02 
7.240540e-01 1.775047e+02 
7.420450e-01 1.720843e+02 
7.593780e-01 1.671732e+02 
7.764720e-01 1.626011e+02 
7.942840e-01 1.581064e+02 
8.116170e-01 1.539756e+02 
8.288310e-01 1.500895e+02 
8.462240e-01 1.463600e+02 
8.631980e-01 1.428978e+02 
8.810700e-01 1.394294e+02 
8.989410e-01 1.361282e+02 
9.166330e-01 1.330096e+02 
9.345640e-01 1.299920e+02 
9.515980e-01 1.272476e+02 
9.688720e-01 1.245779e+02 
9.865640e-01 1.219555e+02 
1.031870e+00 1.156949e+02 
1.063490e+00 1.116637e+02 
1.097920e+00 1.075808e+02 
1.134370e+00 1.035210e+02 
1.167730e+00 1.000457e+02 
1.203830e+00 9.650485e+01 
1.240470e+00 9.313220e+01 
1.275790e+00 9.005326e+01 
1.309140e+00 8.730657e+01 
1.342970e+00 8.464602e+01 
1.378420e+00 8.200679e+01 
1.413200e+00 7.954155e+01 
1.448110e+00 7.717707e+01 
1.484090e+00 7.486315e+01 
1.518820e+00 7.272048e+01 
1.552880e+00 7.071724e+01 
1.588630e+00 6.869631e+01 
1.623230e+00 6.683014e+01 
1.657720e+00 6.504426e+01 
1.692450e+00 6.332842e+01 
1.726400e+00 6.170192e+01 
1.762200e+00 6.005326e+01 
1.797880e+00 5.848099e+01 
1.833270e+00 5.697413e+01 
1.869070e+00 5.551464e+01 
1.903200e+00 5.417276e+01 
1.937740e+00 5.286170e+01 
1.973190e+00 5.156300e+01 
2.007440e+00 5.035311e+01 
2.042160e+00 4.917294e+01 
2.077900e+00 4.799201e+01 
2.112390e+00 4.689807e+01 
2.146220e+00 4.584958e+01 
2.181600e+00 4.479572e+01 
2.216930e+00 4.377778e+01 
2.250760e+00 4.282953e+01 
2.286500e+00 4.185837e+01 
2.321770e+00 4.093552e+01 
2.355950e+00 4.007323e+01 
2.391280e+00 3.920201e+01 
2.426240e+00 3.836506e+01 
2.460670e+00 3.756507e+01 
2.495640e+00 3.677690e+01 
2.531080e+00 3.600560e+01 
2.566220e+00 3.525825e+01 
2.600830e+00 3.454426e+01 
2.635080e+00 3.386068e+01 
2.670340e+00 3.317000e+01 
2.705970e+00 3.249481e+01 
2.740040e+00 3.186888e+01 
2.774520e+00 3.125169e+01 
2.809730e+00 3.063782e+01 
2.844390e+00 3.005004e+01 
2.879960e+00 2.946223e+01 
2.914860e+00 2.890026e+01 
2.949410e+00 2.835881e+01 
2.984440e+00 2.782301e+01 
3.019760e+00 2.729891e+01 
3.054730e+00 2.679493e+01 
3.089030e+00 2.630833e+01 
3.124060e+00 2.582556e+01 
3.159560e+00 2.535043e+01 
3.194710e+00 2.488856e+01 
3.229010e+00 2.444890e+01 
3.263320e+00 2.402115e+01 
3.297930e+00 2.360036e+01 
3.332830e+00 2.318565e+01 
3.368040e+00 2.277705e+01 
3.403300e+00 2.237773e+01 
3.438450e+00 2.198825e+01 
3.473060e+00 2.161425e+01 
3.508440e+00 2.124208e+01 
3.543110e+00 2.088607e+01 
3.577470e+00 2.053843e+01 
3.613040e+00 2.018764e+01 
3.648120e+00 1.985056e+01 
3.682910e+00 1.952392e+01 
3.718050e+00 1.920094e+01 
3.753320e+00 1.888396e+01 
3.787980e+00 1.857891e+01 
3.822290e+00 1.828421e+01 
3.857020e+00 1.799313e+01 
3.891920e+00 1.770627e+01 
3.926650e+00 1.742527e+01 
3.961970e+00 1.714625e+01 
3.997360e+00 1.687344e+01 
4.031670e+00 1.661474e+01 
4.066330e+00 1.635819e+01 
4.101420e+00 1.610429e+01 
4.136200e+00 1.585834e+01 
4.170810e+00 1.561896e+01 
4.206250e+00 1.537821e+01 
4.241580e+00 1.514331e+01 
4.276300e+00 1.491715e+01 
4.310970e+00 1.469595e+01 
4.346120e+00 1.447632e+01 
4.380600e+00 1.426516e+01 
4.414730e+00 1.406045e+01 
4.450350e+00 1.385070e+01 
4.485320e+00 1.364909e+01 
4.519810e+00 1.345410e+01 
4.555430e+00 1.325676e+01 
4.590870e+00 1.306439e+01 
4.625480e+00 1.288017e+01 
4.659910e+00 1.270054e+01 
4.695230e+00 1.251970e+01 
4.729960e+00 1.234537e+01 
4.764450e+00 1.217557e+01 
4.799530e+00 1.200613e+01 
4.834910e+00 1.183859e+01 
4.869700e+00 1.167691e+01 
4.904370e+00 1.151883e+01 
4.939450e+00 1.136190e+01 
4.973940e+00 1.121044e+01 
5.008430e+00 1.106179e+01 
5.043810e+00 1.091217e+01 
5.078840e+00 1.076680e+01 
5.113500e+00 1.062562e+01 
5.148890e+00 1.048407e+01 
5.184210e+00 1.034541e+01 
5.219060e+00 1.021109e+01 
5.253660e+00 1.008016e+01 
5.288570e+00 9.950400e+00 
5.323420e+00 9.823189e+00 
5.358440e+00 9.697640e+00 
5.393590e+00 9.573856e+00 
5.428310e+00 9.453782e+00 
5.462800e+00 9.336590e+00 
5.497640e+00 9.220244e+00 
5.532670e+00 9.105368e+00 
5.567280e+00 8.993835e+00 
5.602000e+00 8.883837e+00 
5.637270e+00 8.774062e+00 
5.672410e+00 8.666563e+00 
5.707020e+00 8.562454e+00 
5.742040e+00 8.458990e+00 
5.777430e+00 8.356203e+00 
5.812210e+00 8.256857e+00 
5.846820e+00 8.159667e+00 
5.881610e+00 8.063569e+00 
5.916510e+00 7.968724e+00 
5.951600e+00 7.875055e+00 
5.986560e+00 7.783301e+00 
6.021830e+00 7.692216e+00 
6.056490e+00 7.604217e+00 
6.091160e+00 7.517647e+00 
6.125830e+00 7.432424e+00 
6.161090e+00 7.347148e+00 
6.195760e+00 7.264700e+00 
6.230420e+00 7.183537e+00 
6.265690e+00 7.102223e+00 
6.300950e+00 7.022410e+00 
6.335620e+00 6.945126e+00 
6.370880e+00 6.867715e+00 
6.405550e+00 6.792863e+00 
6.440220e+00 6.719172e+00 
6.475480e+00 6.645342e+00 
6.510150e+00 6.573887e+00 
6.544810e+00 6.503640e+00 
6.580080e+00 6.433204e+00 
6.614750e+00 6.364977e+00 
6.649410e+00 6.297904e+00 
6.684080e+00 6.231803e+00 
6.719340e+00 6.165544e+00 
6.754010e+00 6.101385e+00 
6.788680e+00 6.038272e+00 
6.823940e+00 5.974994e+00 
6.859800e+00 5.911562e+00 
6.894470e+00 5.851234e+00 
6.929140e+00 5.791788e+00 
6.963800e+00 5.733178e+00 
6.999070e+00 5.674377e+00 
7.033730e+00 5.617598e+00 
7.068400e+00 5.561575e+00 
7.103660e+00 5.505375e+00 
7.138330e+00 5.450921e+00 
7.173600e+00 5.396390e+00 
7.208260e+00 5.343522e+00 
7.243530e+00 5.290444e+00 
7.277600e+00 5.239948e+00 
7.312860e+00 5.188465e+00 
7.348120e+00 5.137667e+00 
7.382790e+00 5.088376e+00 
7.417460e+00 5.039853e+00 
7.452720e+00 4.991214e+00 
7.487390e+00 4.944008e+00 
7.522650e+00 4.896619e+00 
7.557320e+00 4.850753e+00 
7.591990e+00 4.805516e+00 
7.627250e+00 4.760096e+00 
7.662510e+00 4.715255e+00 
7.697180e+00 4.671854e+00 
7.731850e+00 4.629044e+00 
7.766510e+00 4.586776e+00 
7.801180e+00 4.545018e+00 
7.836440e+00 4.503171e+00 
7.871110e+00 4.462592e+00 
7.906380e+00 4.421817e+00 
7.941040e+00 4.382237e+00 
7.976310e+00 4.342532e+00 
8.011570e+00 4.303419e+00 
8.046240e+00 4.265425e+00 
8.080900e+00 4.227895e+00 
8.115570e+00 4.190837e+00 
8.150830e+00 4.153738e+00 
8.185500e+00 4.117694e+00 
8.220770e+00 4.081459e+00 
8.255430e+00 4.046270e+00 
8.290100e+00 4.011617e+00 
8.324770e+00 3.977381e+00 
8.359430e+00 3.943549e+00 
8.394700e+00 3.909521e+00 
8.429960e+00 3.875973e+00 
8.464630e+00 3.843442e+00 
8.499890e+00 3.810735e+00 
8.534560e+00 3.778942e+00 
8.569200e+00 3.747534e+00 
