# Parameters:
# omega_b = 0.022776, omega_m = 0.135984, n_s = 0.864173, h = 74.842520, w = -1.000000, sigma_8 = 0.824409
# z = 0.700000
#
# k[1/Mpc] # P(k):
8.694000e-04 1.377106e+04 
2.077466e-03 2.679313e+04 
3.285532e-03 3.606051e+04 
4.493598e-03 4.266896e+04 
5.701664e-03 4.717553e+04 
6.909730e-03 5.004066e+04 
8.117797e-03 5.169642e+04 
9.325863e-03 5.236224e+04 
1.053393e-02 5.223327e+04 
1.174199e-02 5.147836e+04 
1.295006e-02 5.020726e+04 
1.415813e-02 4.856162e+04 
1.536619e-02 4.665483e+04 
1.657426e-02 4.455583e+04 
1.778233e-02 4.228015e+04 
1.899039e-02 3.990060e+04 
2.019846e-02 3.757401e+04 
2.140652e-02 3.540008e+04 
2.261459e-02 3.336729e+04 
2.382266e-02 3.147832e+04 
2.503072e-02 2.974346e+04 
2.623879e-02 2.816430e+04 
2.744685e-02 2.673931e+04 
2.865492e-02 2.546323e+04 
2.986299e-02 2.432520e+04 
3.100100e-02 2.337429e+04 
3.220400e-02 2.248232e+04 
3.288100e-02 2.202994e+04 
3.424300e-02 2.121082e+04 
3.555100e-02 2.052044e+04 
3.686000e-02 1.990947e+04 
3.795000e-02 1.944863e+04 
3.929100e-02 1.893064e+04 
4.039800e-02 1.852995e+04 
4.164000e-02 1.809979e+04 
4.294400e-02 1.765389e+04 
4.415000e-02 1.724579e+04 
4.542900e-02 1.679953e+04 
4.660900e-02 1.638264e+04 
4.782300e-02 1.592897e+04 
4.892900e-02 1.550693e+04 
5.031200e-02 1.496214e+04 
5.155900e-02 1.445492e+04 
5.238100e-02 1.411608e+04 
5.378200e-02 1.353517e+04 
5.513400e-02 1.297384e+04 
5.627600e-02 1.250502e+04 
5.735300e-02 1.207247e+04 
5.870100e-02 1.154894e+04 
5.988700e-02 1.110955e+04 
6.113500e-02 1.067120e+04 
6.225900e-02 1.030012e+04 
6.340100e-02 9.947939e+03 
6.480200e-02 9.548904e+03 
6.601100e-02 9.236852e+03 
6.725500e-02 8.945335e+03 
6.829100e-02 8.726967e+03 
6.958600e-02 8.478465e+03 
7.071100e-02 8.285989e+03 
7.192300e-02 8.099268e+03 
7.307400e-02 7.939791e+03 
7.412300e-02 7.807645e+03 
7.550400e-02 7.651246e+03 
7.663100e-02 7.534123e+03 
7.791200e-02 7.411972e+03 
7.912700e-02 7.302557e+03 
8.027600e-02 7.202304e+03 
8.138400e-02 7.107040e+03 
8.272200e-02 6.991789e+03 
8.406100e-02 6.874403e+03 
8.534100e-02 6.756861e+03 
8.653800e-02 6.641261e+03 
8.759800e-02 6.535708e+03 
8.900300e-02 6.390207e+03 
9.009000e-02 6.272656e+03 
9.113300e-02 6.155583e+03 
9.239600e-02 6.012027e+03 
9.358000e-02 5.874801e+03 
9.496100e-02 5.712052e+03 
9.608400e-02 5.580654e+03 
9.727500e-02 5.443158e+03 
9.852600e-02 5.300387e+03 
9.973800e-02 5.166720e+03 
1.009000e-01 5.042737e+03 
1.020900e-01 4.922380e+03 
1.034000e-01 4.796490e+03 
1.046000e-01 4.687356e+03 
1.057200e-01 4.593916e+03 
1.069100e-01 4.499648e+03 
1.082500e-01 4.403321e+03 
1.093900e-01 4.328092e+03 
1.105400e-01 4.256704e+03 
1.116900e-01 4.193085e+03 
1.129600e-01 4.126612e+03 
1.142000e-01 4.068109e+03 
1.153300e-01 4.017587e+03 
1.166400e-01 3.962760e+03 
1.177800e-01 3.917315e+03 
1.190000e-01 3.870353e+03 
1.201200e-01 3.827807e+03 
1.213400e-01 3.782471e+03 
1.227100e-01 3.730201e+03 
1.238900e-01 3.685512e+03 
1.250700e-01 3.639165e+03 
1.263200e-01 3.589974e+03 
1.275500e-01 3.539946e+03 
1.287500e-01 3.490820e+03 
1.299900e-01 3.438938e+03 
1.311300e-01 3.391105e+03 
1.323500e-01 3.339231e+03 
1.335900e-01 3.286842e+03 
1.347100e-01 3.239394e+03 
1.359800e-01 3.186388e+03 
1.372100e-01 3.135407e+03 
1.384300e-01 3.085917e+03 
1.395700e-01 3.040469e+03 
1.407700e-01 2.993714e+03 
1.420300e-01 2.946136e+03 
1.432800e-01 2.900022e+03 
1.444500e-01 2.858704e+03 
1.456300e-01 2.817911e+03 
1.468900e-01 2.776388e+03 
1.480500e-01 2.739293e+03 
1.491700e-01 2.704813e+03 
1.503800e-01 2.669107e+03 
1.516400e-01 2.632976e+03 
1.528200e-01 2.601041e+03 
1.540200e-01 2.569198e+03 
1.551900e-01 2.539750e+03 
1.564300e-01 2.509385e+03 
1.576600e-01 2.480262e+03 
1.588700e-01 2.452649e+03 
1.600900e-01 2.425356e+03 
1.612700e-01 2.399878e+03 
1.625400e-01 2.372968e+03 
1.637600e-01 2.347600e+03 
1.649500e-01 2.323301e+03 
1.662200e-01 2.297784e+03 
1.674000e-01 2.274172e+03 
1.685000e-01 2.252531e+03 
1.697500e-01 2.228029e+03 
1.710300e-01 2.203069e+03 
1.722200e-01 2.180280e+03 
1.734400e-01 2.156577e+03 
1.746400e-01 2.133638e+03 
1.758700e-01 2.110327e+03 
1.770900e-01 2.087188e+03 
1.782700e-01 2.065189e+03 
1.794600e-01 2.043124e+03 
1.807000e-01 2.020356e+03 
1.819100e-01 1.998519e+03 
1.830100e-01 1.978873e+03 
1.842200e-01 1.957589e+03 
1.855000e-01 1.935464e+03 
1.867000e-01 1.915185e+03 
1.879200e-01 1.894907e+03 
1.890900e-01 1.875822e+03 
1.902800e-01 1.856970e+03 
1.915200e-01 1.837642e+03 
1.926900e-01 1.819787e+03 
1.939000e-01 1.801905e+03 
1.951700e-01 1.783438e+03 
1.963100e-01 1.767218e+03 
1.975100e-01 1.750668e+03 
1.987800e-01 1.733425e+03 
2.000100e-01 1.717078e+03 
2.012500e-01 1.701059e+03 
2.023400e-01 1.687181e+03 
2.036100e-01 1.671285e+03 
2.048900e-01 1.655669e+03 
2.060400e-01 1.641845e+03 
2.072200e-01 1.627866e+03 
2.084200e-01 1.613928e+03 
2.096900e-01 1.599393e+03 
2.109200e-01 1.585524e+03 
2.121100e-01 1.572267e+03 
2.132700e-01 1.559520e+03 
2.145200e-01 1.545977e+03 
2.157200e-01 1.533129e+03 
2.168800e-01 1.520863e+03 
2.180700e-01 1.508450e+03 
2.193400e-01 1.495356e+03 
2.206000e-01 1.482496e+03 
2.217500e-01 1.470917e+03 
2.229500e-01 1.458995e+03 
2.241400e-01 1.447281e+03 
2.253500e-01 1.435528e+03 
2.264900e-01 1.424599e+03 
2.277100e-01 1.413044e+03 
2.289900e-01 1.401076e+03 
2.301500e-01 1.390373e+03 
2.313600e-01 1.379353e+03 
2.325600e-01 1.368589e+03 
2.337700e-01 1.357876e+03 
2.350000e-01 1.347128e+03 
2.362000e-01 1.336796e+03 
2.374100e-01 1.326535e+03 
2.386500e-01 1.316155e+03 
2.399100e-01 1.305744e+03 
2.410400e-01 1.296591e+03 
2.422500e-01 1.286916e+03 
2.435000e-01 1.277048e+03 
2.447300e-01 1.267476e+03 
2.458700e-01 1.258776e+03 
2.470600e-01 1.249801e+03 
2.483300e-01 1.240341e+03 
2.495600e-01 1.231328e+03 
2.507600e-01 1.222688e+03 
2.519600e-01 1.214150e+03 
2.532200e-01 1.205293e+03 
2.543700e-01 1.197346e+03 
2.555500e-01 1.189313e+03 
2.568000e-01 1.180902e+03 
2.580100e-01 1.172857e+03 
2.592400e-01 1.164815e+03 
2.604100e-01 1.157270e+03 
2.616100e-01 1.149618e+03 
2.628400e-01 1.141865e+03 
2.640600e-01 1.134291e+03 
2.652200e-01 1.127181e+03 
2.664300e-01 1.119846e+03 
2.676500e-01 1.112534e+03 
2.688400e-01 1.105496e+03 
2.700700e-01 1.098311e+03 
2.712400e-01 1.091552e+03 
2.724800e-01 1.084467e+03 
2.736700e-01 1.077744e+03 
2.748800e-01 1.070984e+03 
2.761000e-01 1.064242e+03 
2.773200e-01 1.057574e+03 
2.785400e-01 1.050977e+03 
2.797000e-01 1.044769e+03 
2.808900e-01 1.038466e+03 
2.821400e-01 1.031916e+03 
2.833900e-01 1.025437e+03 
2.845500e-01 1.019480e+03 
2.857800e-01 1.013228e+03 
2.870300e-01 1.006943e+03 
2.882100e-01 1.001071e+03 
2.893900e-01 9.952576e+02 
2.906300e-01 9.892109e+02 
2.918900e-01 9.831318e+02 
2.930500e-01 9.775924e+02 
2.942500e-01 9.719164e+02 
2.954200e-01 9.664300e+02 
2.966500e-01 9.607199e+02 
2.978900e-01 9.550225e+02 
2.990400e-01 9.497909e+02 
3.002700e-01 9.442526e+02 
3.015100e-01 9.387271e+02 
3.026800e-01 9.335648e+02 
3.038500e-01 9.284518e+02 
3.050300e-01 9.233443e+02 
3.062600e-01 9.180750e+02 
3.075000e-01 9.128157e+02 
3.087000e-01 9.077758e+02 
3.099100e-01 9.027428e+02 
3.111200e-01 8.977633e+02 
3.123100e-01 8.929210e+02 
3.135300e-01 8.880039e+02 
3.147300e-01 8.832134e+02 
3.159900e-01 8.782318e+02 
3.171800e-01 8.735795e+02 
3.183700e-01 8.689753e+02 
3.196300e-01 8.641465e+02 
3.208400e-01 8.595534e+02 
3.220300e-01 8.550778e+02 
3.232000e-01 8.507322e+02 
3.244300e-01 8.462115e+02 
3.256700e-01 8.416966e+02 
3.269200e-01 8.371882e+02 
3.280800e-01 8.330424e+02 
3.292500e-01 8.289136e+02 
3.304800e-01 8.246172e+02 
3.317100e-01 8.203600e+02 
3.328900e-01 8.163124e+02 
3.340700e-01 8.123001e+02 
3.353600e-01 8.079725e+02 
3.365300e-01 8.040899e+02 
3.377100e-01 8.002077e+02 
3.389200e-01 7.962614e+02 
3.401600e-01 7.922532e+02 
3.413700e-01 7.883896e+02 
3.425300e-01 7.847263e+02 
3.437700e-01 7.808439e+02 
3.449800e-01 7.770887e+02 
3.461800e-01 7.733964e+02 
3.473600e-01 7.698040e+02 
3.485800e-01 7.661403e+02 
3.498100e-01 7.624783e+02 
3.510200e-01 7.589067e+02 
3.522000e-01 7.554527e+02 
3.533900e-01 7.519983e+02 
3.546400e-01 7.484197e+02 
3.558400e-01 7.450145e+02 
3.570600e-01 7.415813e+02 
3.582700e-01 7.382047e+02 
3.595000e-01 7.348010e+02 
3.607100e-01 7.314911e+02 
3.618900e-01 7.282978e+02 
3.631200e-01 7.249963e+02 
3.643200e-01 7.218018e+02 
3.655500e-01 7.185542e+02 
3.667300e-01 7.154637e+02 
3.679500e-01 7.123103e+02 
3.691900e-01 7.091314e+02 
3.703600e-01 7.061560e+02 
3.715700e-01 7.031031e+02 
3.727700e-01 7.000994e+02 
3.739900e-01 6.970764e+02 
3.752000e-01 6.941138e+02 
3.763900e-01 6.912230e+02 
3.775800e-01 6.883546e+02 
3.788200e-01 6.853892e+02 
3.800300e-01 6.825184e+02 
3.812100e-01 6.797449e+02 
3.824200e-01 6.769258e+02 
3.836100e-01 6.741745e+02 
3.848600e-01 6.713071e+02 
3.860400e-01 6.686211e+02 
3.872400e-01 6.659102e+02 
3.884600e-01 6.631854e+02 
3.896500e-01 6.605516e+02 
3.908700e-01 6.578718e+02 
3.920600e-01 6.552776e+02 
3.933100e-01 6.525734e+02 
3.945300e-01 6.499543e+02 
3.957200e-01 6.474227e+02 
3.969300e-01 6.448689e+02 
3.981700e-01 6.422714e+02 
3.993500e-01 6.398180e+02 
4.094840e-01 6.194639e+02 
4.272360e-01 5.867655e+02 
4.454600e-01 5.564564e+02 
4.630560e-01 5.298825e+02 
4.804610e-01 5.058703e+02 
4.980690e-01 4.835808e+02 
5.159230e-01 4.628258e+02 
5.317440e-01 4.458091e+02 
5.489640e-01 4.286322e+02 
5.671990e-01 4.118321e+02 
5.838690e-01 3.975812e+02 
6.018840e-01 3.832753e+02 
6.202330e-01 3.697546e+02 
6.379250e-01 3.576095e+02 
6.545410e-01 3.469562e+02 
6.714560e-01 3.367526e+02 
6.892080e-01 3.267176e+02 
7.066010e-01 3.174608e+02 
7.240540e-01 3.086948e+02 
7.420450e-01 3.001767e+02 
7.593780e-01 2.924100e+02 
7.764720e-01 2.851316e+02 
7.942840e-01 2.779247e+02 
8.116170e-01 2.712408e+02 
8.288310e-01 2.649072e+02 
8.462240e-01 2.587843e+02 
8.631980e-01 2.530555e+02 
8.810700e-01 2.472728e+02 
8.989410e-01 2.417266e+02 
9.166330e-01 2.364462e+02 
9.345640e-01 2.312942e+02 
9.515980e-01 2.265752e+02 
9.688720e-01 2.219516e+02 
9.865640e-01 2.173735e+02 
1.031870e+00 2.063416e+02 
1.063490e+00 1.991363e+02 
1.097920e+00 1.917673e+02 
1.134370e+00 1.843767e+02 
1.167730e+00 1.779930e+02 
1.203830e+00 1.714426e+02 
1.240470e+00 1.651663e+02 
1.275790e+00 1.594054e+02 
1.309140e+00 1.542487e+02 
1.342970e+00 1.492298e+02 
1.378420e+00 1.442428e+02 
1.413200e+00 1.395736e+02 
1.448110e+00 1.350861e+02 
1.484090e+00 1.306905e+02 
1.518820e+00 1.266203e+02 
1.552880e+00 1.228125e+02 
1.588630e+00 1.189759e+02 
1.623230e+00 1.154332e+02 
1.657720e+00 1.120457e+02 
1.692450e+00 1.087932e+02 
1.726400e+00 1.057144e+02 
1.762200e+00 1.025977e+02 
1.797880e+00 9.963171e+01 
1.833270e+00 9.679586e+01 
1.869070e+00 9.405199e+01 
1.903200e+00 9.153537e+01 
1.937740e+00 8.908246e+01 
1.973190e+00 8.665642e+01 
2.007440e+00 8.440369e+01 
2.042160e+00 8.220954e+01 
2.077900e+00 8.002126e+01 
2.112390e+00 7.799803e+01 
2.146220e+00 7.606635e+01 
2.181600e+00 7.412674e+01 
2.216930e+00 7.225994e+01 
2.250760e+00 7.052571e+01 
2.286500e+00 6.875414e+01 
2.321770e+00 6.707560e+01 
2.355950e+00 6.551054e+01 
2.391280e+00 6.393348e+01 
2.426240e+00 6.242373e+01 
2.460670e+00 6.098489e+01 
2.495640e+00 5.957067e+01 
2.531080e+00 5.819007e+01 
2.566220e+00 5.685779e+01 
2.600830e+00 5.558822e+01 
2.635080e+00 5.437502e+01 
2.670340e+00 5.315400e+01 
2.705970e+00 5.196364e+01 
2.740040e+00 5.086261e+01 
2.774520e+00 4.977919e+01 
2.809730e+00 4.870527e+01 
2.844390e+00 4.767960e+01 
2.879960e+00 4.665701e+01 
2.914860e+00 4.568247e+01 
2.949410e+00 4.474558e+01 
2.984440e+00 4.382146e+01 
3.019760e+00 4.291950e+01 
3.054730e+00 4.205372e+01 
3.089030e+00 4.122159e+01 
3.124060e+00 4.039748e+01 
3.159560e+00 3.958822e+01 
3.194710e+00 3.880434e+01 
3.229010e+00 3.805949e+01 
3.263320e+00 3.733715e+01 
3.297930e+00 3.662783e+01 
3.332830e+00 3.593076e+01 
3.368040e+00 3.524569e+01 
3.403300e+00 3.457758e+01 
3.438450e+00 3.392815e+01 
3.473060e+00 3.330539e+01 
3.508440e+00 3.268769e+01 
3.543110e+00 3.209756e+01 
3.577470e+00 3.152358e+01 
3.613040e+00 3.094519e+01 
3.648120e+00 3.039083e+01 
3.682910e+00 2.985457e+01 
3.718050e+00 2.932576e+01 
3.753320e+00 2.880779e+01 
3.787980e+00 2.831063e+01 
3.822290e+00 2.783113e+01 
3.857020e+00 2.735857e+01 
3.891920e+00 2.689373e+01 
3.926650e+00 2.643970e+01 
3.961970e+00 2.598950e+01 
3.997360e+00 2.555046e+01 
4.031670e+00 2.513458e+01 
4.066330e+00 2.472345e+01 
4.101420e+00 2.431682e+01 
4.136200e+00 2.392415e+01 
4.170810e+00 2.354216e+01 
4.206250e+00 2.315917e+01 
4.241580e+00 2.278588e+01 
4.276300e+00 2.242730e+01 
4.310970e+00 2.207712e+01 
4.346120e+00 2.172994e+01 
4.380600e+00 2.139691e+01 
4.414730e+00 2.107421e+01 
4.450350e+00 2.074464e+01 
4.485320e+00 2.042801e+01 
4.519810e+00 2.012250e+01 
4.555430e+00 1.981370e+01 
4.590870e+00 1.951305e+01 
4.625480e+00 1.922573e+01 
4.659910e+00 1.894568e+01 
4.695230e+00 1.866450e+01 
4.729960e+00 1.839366e+01 
4.764450e+00 1.813019e+01 
4.799530e+00 1.786778e+01 
4.834910e+00 1.760840e+01 
4.869700e+00 1.735871e+01 
4.904370e+00 1.711476e+01 
4.939450e+00 1.687282e+01 
4.973940e+00 1.663980e+01 
5.008430e+00 1.641119e+01 
5.043810e+00 1.618146e+01 
5.078840e+00 1.595852e+01 
5.113500e+00 1.574207e+01 
5.148890e+00 1.552557e+01 
5.184210e+00 1.531356e+01 
5.219060e+00 1.510836e+01 
5.253660e+00 1.490868e+01 
5.288570e+00 1.471085e+01 
5.323420e+00 1.451715e+01 
5.358440e+00 1.432624e+01 
5.393590e+00 1.413805e+01 
5.428310e+00 1.395578e+01 
5.462800e+00 1.377805e+01 
5.497640e+00 1.360164e+01 
5.532670e+00 1.342773e+01 
5.567280e+00 1.325899e+01 
5.602000e+00 1.309261e+01 
5.637270e+00 1.292683e+01 
5.672410e+00 1.276457e+01 
5.707020e+00 1.260746e+01 
5.742040e+00 1.245156e+01 
5.777430e+00 1.229676e+01 
5.812210e+00 1.214716e+01 
5.846820e+00 1.200102e+01 
5.881610e+00 1.185658e+01 
5.916510e+00 1.171405e+01 
5.951600e+00 1.157344e+01 
5.986560e+00 1.143579e+01 
6.021830e+00 1.129917e+01 
6.056490e+00 1.116728e+01 
6.091160e+00 1.103764e+01 
6.125830e+00 1.091003e+01 
6.161090e+00 1.078241e+01 
6.195760e+00 1.065912e+01 
6.230420e+00 1.053778e+01 
6.265690e+00 1.041623e+01 
6.300950e+00 1.029708e+01 
6.335620e+00 1.018172e+01 
6.370880e+00 1.006618e+01 
6.405550e+00 9.954542e+00 
6.440220e+00 9.844669e+00 
6.475480e+00 9.734605e+00 
6.510150e+00 9.628123e+00 
6.544810e+00 9.523520e+00 
6.580080e+00 9.418650e+00 
6.614750e+00 9.317080e+00 
6.649410e+00 9.217302e+00 
6.684080e+00 9.118991e+00 
6.719340e+00 9.020457e+00 
6.754010e+00 8.925070e+00 
6.788680e+00 8.831278e+00 
6.823940e+00 8.737252e+00 
6.859800e+00 8.643008e+00 
6.894470e+00 8.553421e+00 
6.929140e+00 8.465167e+00 
6.963800e+00 8.378163e+00 
6.999070e+00 8.290884e+00 
7.033730e+00 8.206643e+00 
7.068400e+00 8.123529e+00 
7.103660e+00 8.040162e+00 
7.138330e+00 7.959403e+00 
7.173600e+00 7.878558e+00 
7.208260e+00 7.800187e+00 
7.243530e+00 7.721512e+00 
7.277600e+00 7.646675e+00 
7.312860e+00 7.570387e+00 
7.348120e+00 7.495122e+00 
7.382790e+00 7.422096e+00 
7.417460e+00 7.350219e+00 
7.452720e+00 7.278179e+00 
7.487390e+00 7.208269e+00 
7.522650e+00 7.138094e+00 
7.557320e+00 7.070178e+00 
7.591990e+00 7.003200e+00 
7.627250e+00 6.935956e+00 
7.662510e+00 6.869577e+00 
7.697180e+00 6.805331e+00 
7.731850e+00 6.741964e+00 
7.766510e+00 6.679406e+00 
7.801180e+00 6.617608e+00 
7.836440e+00 6.555681e+00 
7.871110e+00 6.495632e+00 
7.906380e+00 6.435300e+00 
7.941040e+00 6.376742e+00 
7.976310e+00 6.317994e+00 
8.011570e+00 6.260116e+00 
8.046240e+00 6.203899e+00 
8.080900e+00 6.148373e+00 
8.115570e+00 6.093550e+00 
8.150830e+00 6.038664e+00 
8.185500e+00 5.985342e+00 
8.220770e+00 5.931745e+00 
8.255430e+00 5.879700e+00 
8.290100e+00 5.828425e+00 
8.324770e+00 5.777770e+00 
8.359430e+00 5.727718e+00 
8.394700e+00 5.677380e+00 
8.429960e+00 5.627748e+00 
8.464630e+00 5.579615e+00 
8.499890e+00 5.531227e+00 
8.534560e+00 5.484196e+00 
8.569200e+00 5.437740e+00 
