# Parameters:
# omega_b = 0.021500, omega_m = 0.126614, n_s = 0.903543, h = 72.480315, w = -1.000000, sigma_8 = 0.896850
# z = 0.700000
#
# k[1/Mpc] # P(k):
8.694000e-04 1.674741e+04 
2.077466e-03 3.344979e+04 
3.285532e-03 4.550275e+04 
4.493598e-03 5.409140e+04 
5.701664e-03 5.994883e+04 
6.909730e-03 6.364905e+04 
8.117797e-03 6.574288e+04 
9.325863e-03 6.651719e+04 
1.053393e-02 6.623722e+04 
1.174199e-02 6.513843e+04 
1.295006e-02 6.336820e+04 
1.415813e-02 6.111658e+04 
1.536619e-02 5.854056e+04 
1.657426e-02 5.574653e+04 
1.778233e-02 5.282797e+04 
1.899039e-02 4.990039e+04 
2.019846e-02 4.702777e+04 
2.140652e-02 4.428042e+04 
2.261459e-02 4.169070e+04 
2.382266e-02 3.929099e+04 
2.503072e-02 3.709843e+04 
2.623879e-02 3.511394e+04 
2.744685e-02 3.333530e+04 
2.865492e-02 3.175225e+04 
2.986299e-02 3.034893e+04 
3.100100e-02 2.918353e+04 
3.220400e-02 2.809588e+04 
3.288100e-02 2.754636e+04 
3.424300e-02 2.655315e+04 
3.555100e-02 2.571603e+04 
3.686000e-02 2.497283e+04 
3.795000e-02 2.440901e+04 
3.929100e-02 2.376830e+04 
4.039800e-02 2.326663e+04 
4.164000e-02 2.272215e+04 
4.294400e-02 2.214915e+04 
4.415000e-02 2.162068e+04 
4.542900e-02 2.103876e+04 
4.660900e-02 2.049424e+04 
4.782300e-02 1.990240e+04 
4.892900e-02 1.935385e+04 
5.031200e-02 1.864982e+04 
5.155900e-02 1.799966e+04 
5.238100e-02 1.756819e+04 
5.378200e-02 1.683352e+04 
5.513400e-02 1.613008e+04 
5.627600e-02 1.554713e+04 
5.735300e-02 1.501251e+04 
5.870100e-02 1.436920e+04 
5.988700e-02 1.383193e+04 
6.113500e-02 1.329806e+04 
6.225900e-02 1.284765e+04 
6.340100e-02 1.242114e+04 
6.480200e-02 1.193853e+04 
6.601100e-02 1.156152e+04 
6.725500e-02 1.120936e+04 
6.829100e-02 1.094550e+04 
6.958600e-02 1.064501e+04 
7.071100e-02 1.041203e+04 
7.192300e-02 1.018576e+04 
7.307400e-02 9.992255e+03 
7.412300e-02 9.831710e+03 
7.550400e-02 9.641358e+03 
7.663100e-02 9.498542e+03 
7.791200e-02 9.349062e+03 
7.912700e-02 9.214528e+03 
8.027600e-02 9.090590e+03 
8.138400e-02 8.972151e+03 
8.272200e-02 8.827812e+03 
8.406100e-02 8.679573e+03 
8.534100e-02 8.529649e+03 
8.653800e-02 8.381030e+03 
8.759800e-02 8.244699e+03 
8.900300e-02 8.055931e+03 
9.009000e-02 7.902906e+03 
9.113300e-02 7.750371e+03 
9.239600e-02 7.563420e+03 
9.358000e-02 7.385029e+03 
9.496100e-02 7.174523e+03 
9.608400e-02 7.005453e+03 
9.727500e-02 6.829296e+03 
9.852600e-02 6.648707e+03 
9.973800e-02 6.480821e+03 
1.009000e-01 6.326069e+03 
1.020900e-01 6.178386e+03 
1.034000e-01 6.025028e+03 
1.046000e-01 5.893262e+03 
1.057200e-01 5.782220e+03 
1.069100e-01 5.670729e+03 
1.082500e-01 5.558318e+03 
1.093900e-01 5.471156e+03 
1.105400e-01 5.388821e+03 
1.116900e-01 5.315892e+03 
1.129600e-01 5.239710e+03 
1.142000e-01 5.172430e+03 
1.153300e-01 5.113937e+03 
1.166400e-01 5.049846e+03 
1.177800e-01 4.995691e+03 
1.190000e-01 4.939239e+03 
1.201200e-01 4.886509e+03 
1.213400e-01 4.830043e+03 
1.227100e-01 4.762753e+03 
1.238900e-01 4.704866e+03 
1.250700e-01 4.643738e+03 
1.263200e-01 4.578615e+03 
1.275500e-01 4.511853e+03 
1.287500e-01 4.446292e+03 
1.299900e-01 4.377043e+03 
1.311300e-01 4.313480e+03 
1.323500e-01 4.244956e+03 
1.335900e-01 4.176271e+03 
1.347100e-01 4.114729e+03 
1.359800e-01 4.046507e+03 
1.372100e-01 3.981930e+03 
1.384300e-01 3.919695e+03 
1.395700e-01 3.863618e+03 
1.407700e-01 3.806049e+03 
1.420300e-01 3.748834e+03 
1.432800e-01 3.693353e+03 
1.444500e-01 3.644697e+03 
1.456300e-01 3.596632e+03 
1.468900e-01 3.548106e+03 
1.480500e-01 3.504861e+03 
1.491700e-01 3.464665e+03 
1.503800e-01 3.423045e+03 
1.516400e-01 3.380827e+03 
1.528200e-01 3.343130e+03 
1.540200e-01 3.305528e+03 
1.551900e-01 3.270138e+03 
1.564300e-01 3.233487e+03 
1.576600e-01 3.197933e+03 
1.588700e-01 3.163738e+03 
1.600900e-01 3.129894e+03 
1.612700e-01 3.097545e+03 
1.625400e-01 3.063377e+03 
1.637600e-01 3.030846e+03 
1.649500e-01 2.999499e+03 
1.662200e-01 2.966551e+03 
1.674000e-01 2.935909e+03 
1.685000e-01 2.907824e+03 
1.697500e-01 2.876089e+03 
1.710300e-01 2.843821e+03 
1.722200e-01 2.814359e+03 
1.734400e-01 2.784053e+03 
1.746400e-01 2.754736e+03 
1.758700e-01 2.725079e+03 
1.770900e-01 2.695914e+03 
1.782700e-01 2.668182e+03 
1.794600e-01 2.640606e+03 
1.807000e-01 2.612308e+03 
1.819100e-01 2.585163e+03 
1.830100e-01 2.560986e+03 
1.842200e-01 2.534828e+03 
1.855000e-01 2.507640e+03 
1.867000e-01 2.482911e+03 
1.879200e-01 2.458177e+03 
1.890900e-01 2.434906e+03 
1.902800e-01 2.411987e+03 
1.915200e-01 2.388484e+03 
1.926900e-01 2.366762e+03 
1.939000e-01 2.344994e+03 
1.951700e-01 2.322507e+03 
1.963100e-01 2.302732e+03 
1.975100e-01 2.282494e+03 
1.987800e-01 2.261405e+03 
2.000100e-01 2.241371e+03 
2.012500e-01 2.221654e+03 
2.023400e-01 2.204569e+03 
2.036100e-01 2.184970e+03 
2.048900e-01 2.165603e+03 
2.060400e-01 2.148457e+03 
2.072200e-01 2.131106e+03 
2.084200e-01 2.113689e+03 
2.096900e-01 2.095524e+03 
2.109200e-01 2.078190e+03 
2.121100e-01 2.061501e+03 
2.132700e-01 2.045448e+03 
2.145200e-01 2.028389e+03 
2.157200e-01 2.012123e+03 
2.168800e-01 1.996555e+03 
2.180700e-01 1.980798e+03 
2.193400e-01 1.964124e+03 
2.206000e-01 1.947644e+03 
2.217500e-01 1.932806e+03 
2.229500e-01 1.917526e+03 
2.241400e-01 1.902349e+03 
2.253500e-01 1.887116e+03 
2.264900e-01 1.872949e+03 
2.277100e-01 1.857871e+03 
2.289900e-01 1.842139e+03 
2.301500e-01 1.828072e+03 
2.313600e-01 1.813585e+03 
2.325600e-01 1.799220e+03 
2.337700e-01 1.784923e+03 
2.350000e-01 1.770579e+03 
2.362000e-01 1.756699e+03 
2.374100e-01 1.742801e+03 
2.386500e-01 1.728742e+03 
2.399100e-01 1.714644e+03 
2.410400e-01 1.702117e+03 
2.422500e-01 1.688861e+03 
2.435000e-01 1.675341e+03 
2.447300e-01 1.662213e+03 
2.458700e-01 1.650220e+03 
2.470600e-01 1.637850e+03 
2.483300e-01 1.624813e+03 
2.495600e-01 1.612397e+03 
2.507600e-01 1.600502e+03 
2.519600e-01 1.588749e+03 
2.532200e-01 1.576558e+03 
2.543700e-01 1.565676e+03 
2.555500e-01 1.554713e+03 
2.568000e-01 1.543237e+03 
2.580100e-01 1.532260e+03 
2.592400e-01 1.521396e+03 
2.604100e-01 1.511251e+03 
2.616100e-01 1.500964e+03 
2.628400e-01 1.490541e+03 
2.640600e-01 1.480488e+03 
2.652200e-01 1.471101e+03 
2.664300e-01 1.461417e+03 
2.676500e-01 1.451764e+03 
2.688400e-01 1.442579e+03 
2.700700e-01 1.433269e+03 
2.712400e-01 1.424511e+03 
2.724800e-01 1.415330e+03 
2.736700e-01 1.406689e+03 
2.748800e-01 1.398075e+03 
2.761000e-01 1.389483e+03 
2.773200e-01 1.380984e+03 
2.785400e-01 1.372611e+03 
2.797000e-01 1.364801e+03 
2.808900e-01 1.356872e+03 
2.821400e-01 1.348631e+03 
2.833900e-01 1.340483e+03 
2.845500e-01 1.333059e+03 
2.857800e-01 1.325267e+03 
2.870300e-01 1.317433e+03 
2.882100e-01 1.310115e+03 
2.893900e-01 1.302899e+03 
2.906300e-01 1.295410e+03 
2.918900e-01 1.287880e+03 
2.930500e-01 1.281018e+03 
2.942500e-01 1.273993e+03 
2.954200e-01 1.267220e+03 
2.966500e-01 1.260171e+03 
2.978900e-01 1.253137e+03 
2.990400e-01 1.246677e+03 
3.002700e-01 1.239850e+03 
3.015100e-01 1.233043e+03 
3.026800e-01 1.226684e+03 
3.038500e-01 1.220384e+03 
3.050300e-01 1.214091e+03 
3.062600e-01 1.207606e+03 
3.075000e-01 1.201134e+03 
3.087000e-01 1.194930e+03 
3.099100e-01 1.188735e+03 
3.111200e-01 1.182607e+03 
3.123100e-01 1.176651e+03 
3.135300e-01 1.170602e+03 
3.147300e-01 1.164708e+03 
3.159900e-01 1.158579e+03 
3.171800e-01 1.152856e+03 
3.183700e-01 1.147192e+03 
3.196300e-01 1.141251e+03 
3.208400e-01 1.135600e+03 
3.220300e-01 1.130093e+03 
3.232000e-01 1.124745e+03 
3.244300e-01 1.119181e+03 
3.256700e-01 1.113623e+03 
3.269200e-01 1.108074e+03 
3.280800e-01 1.102970e+03 
3.292500e-01 1.097886e+03 
3.304800e-01 1.092595e+03 
3.317100e-01 1.087353e+03 
3.328900e-01 1.082368e+03 
3.340700e-01 1.077426e+03 
3.353600e-01 1.072092e+03 
3.365300e-01 1.067306e+03 
3.377100e-01 1.062519e+03 
3.389200e-01 1.057653e+03 
3.401600e-01 1.052711e+03 
3.413700e-01 1.047943e+03 
3.425300e-01 1.043420e+03 
3.437700e-01 1.038626e+03 
3.449800e-01 1.033989e+03 
3.461800e-01 1.029429e+03 
3.473600e-01 1.024991e+03 
3.485800e-01 1.020460e+03 
3.498100e-01 1.015932e+03 
3.510200e-01 1.011514e+03 
3.522000e-01 1.007243e+03 
3.533900e-01 1.002970e+03 
3.546400e-01 9.985351e+02 
3.558400e-01 9.943145e+02 
3.570600e-01 9.900591e+02 
3.582700e-01 9.858736e+02 
3.595000e-01 9.816542e+02 
3.607100e-01 9.775469e+02 
3.618900e-01 9.735808e+02 
3.631200e-01 9.694803e+02 
3.643200e-01 9.655125e+02 
3.655500e-01 9.614785e+02 
3.667300e-01 9.576397e+02 
3.679500e-01 9.537129e+02 
3.691900e-01 9.497543e+02 
3.703600e-01 9.460489e+02 
3.715700e-01 9.422469e+02 
3.727700e-01 9.385061e+02 
3.739900e-01 9.347384e+02 
3.752000e-01 9.310409e+02 
3.763900e-01 9.274328e+02 
3.775800e-01 9.238526e+02 
3.788200e-01 9.201513e+02 
3.800300e-01 9.165679e+02 
3.812100e-01 9.131005e+02 
3.824200e-01 9.095724e+02 
3.836100e-01 9.061291e+02 
3.848600e-01 9.025402e+02 
3.860400e-01 8.991784e+02 
3.872400e-01 8.957854e+02 
3.884600e-01 8.923706e+02 
3.896500e-01 8.890681e+02 
3.908700e-01 8.857079e+02 
3.920600e-01 8.824550e+02 
3.933100e-01 8.790641e+02 
3.945300e-01 8.757799e+02 
3.957200e-01 8.725961e+02 
3.969300e-01 8.693816e+02 
3.981700e-01 8.661121e+02 
3.993500e-01 8.630240e+02 
4.094840e-01 8.373763e+02 
4.272360e-01 7.960120e+02 
4.454600e-01 7.575111e+02 
4.630560e-01 7.236274e+02 
4.804610e-01 6.929436e+02 
4.980690e-01 6.643837e+02 
5.159230e-01 6.377505e+02 
5.317440e-01 6.158676e+02 
5.489640e-01 5.937424e+02 
5.671990e-01 5.720554e+02 
5.838690e-01 5.536207e+02 
6.018840e-01 5.350730e+02 
6.202330e-01 5.174696e+02 
6.379250e-01 5.016251e+02 
6.545410e-01 4.876667e+02 
6.714560e-01 4.742488e+02 
6.892080e-01 4.610102e+02 
7.066010e-01 4.487291e+02 
7.240540e-01 4.370532e+02 
7.420450e-01 4.256482e+02 
7.593780e-01 4.152024e+02 
7.764720e-01 4.053685e+02 
7.942840e-01 3.955825e+02 
8.116170e-01 3.864501e+02 
8.288310e-01 3.777584e+02 
8.462240e-01 3.693179e+02 
8.631980e-01 3.613823e+02 
8.810700e-01 3.533374e+02 
8.989410e-01 3.455880e+02 
9.166330e-01 3.381774e+02 
9.345640e-01 3.309127e+02 
9.515980e-01 3.242351e+02 
9.688720e-01 3.176673e+02 
9.865640e-01 3.111379e+02 
1.031870e+00 2.953354e+02 
1.063490e+00 2.849435e+02 
1.097920e+00 2.742706e+02 
1.134370e+00 2.635277e+02 
1.167730e+00 2.542114e+02 
1.203830e+00 2.446292e+02 
1.240470e+00 2.354256e+02 
1.275790e+00 2.269647e+02 
1.309140e+00 2.193833e+02 
1.342970e+00 2.119924e+02 
1.378420e+00 2.046478e+02 
1.413200e+00 1.977683e+02 
1.448110e+00 1.911534e+02 
1.484090e+00 1.846745e+02 
1.518820e+00 1.786795e+02 
1.552880e+00 1.730728e+02 
1.588630e+00 1.674303e+02 
1.623230e+00 1.622213e+02 
1.657720e+00 1.572454e+02 
1.692450e+00 1.524708e+02 
1.726400e+00 1.479558e+02 
1.762200e+00 1.433888e+02 
1.797880e+00 1.390498e+02 
1.833270e+00 1.349073e+02 
1.869070e+00 1.309014e+02 
1.903200e+00 1.272328e+02 
1.937740e+00 1.236625e+02 
1.973190e+00 1.201337e+02 
2.007440e+00 1.168635e+02 
2.042160e+00 1.136809e+02 
2.077900e+00 1.105123e+02 
2.112390e+00 1.075863e+02 
2.146220e+00 1.047980e+02 
2.181600e+00 1.019996e+02 
2.216930e+00 9.931166e+01 
2.250760e+00 9.681783e+01 
2.286500e+00 9.427366e+01 
2.321770e+00 9.186718e+01 
2.355950e+00 8.962588e+01 
2.391280e+00 8.736970e+01 
2.426240e+00 8.521385e+01 
2.460670e+00 8.316231e+01 
2.495640e+00 8.114817e+01 
2.531080e+00 7.918421e+01 
2.566220e+00 7.729298e+01 
2.600830e+00 7.549311e+01 
2.635080e+00 7.377475e+01 
2.670340e+00 7.204829e+01 
2.705970e+00 7.036754e+01 
2.740040e+00 6.881467e+01 
2.774520e+00 6.728785e+01 
2.809730e+00 6.577698e+01 
2.844390e+00 6.433580e+01 
2.879960e+00 6.290109e+01 
2.914860e+00 6.153574e+01 
2.949410e+00 6.022452e+01 
2.984440e+00 5.893313e+01 
3.019760e+00 5.767403e+01 
3.054730e+00 5.646648e+01 
3.089030e+00 5.530822e+01 
3.124060e+00 5.416210e+01 
3.159560e+00 5.303787e+01 
3.194710e+00 5.195061e+01 
3.229010e+00 5.091835e+01 
3.263320e+00 4.991882e+01 
3.297930e+00 4.893810e+01 
3.332830e+00 4.797557e+01 
3.368040e+00 4.703066e+01 
3.403300e+00 4.611001e+01 
3.438450e+00 4.521654e+01 
3.473060e+00 4.436031e+01 
3.508440e+00 4.351227e+01 
3.543110e+00 4.270256e+01 
3.577470e+00 4.191636e+01 
3.613040e+00 4.112460e+01 
3.648120e+00 4.036667e+01 
3.682910e+00 3.963405e+01 
3.718050e+00 3.891249e+01 
3.753320e+00 3.820636e+01 
3.787980e+00 3.752937e+01 
3.822290e+00 3.687693e+01 
3.857020e+00 3.623458e+01 
3.891920e+00 3.560323e+01 
3.926650e+00 3.498735e+01 
3.961970e+00 3.437703e+01 
3.997360e+00 3.378255e+01 
4.031670e+00 3.321971e+01 
4.066330e+00 3.266407e+01 
4.101420e+00 3.211465e+01 
4.136200e+00 3.158478e+01 
4.170810e+00 3.106945e+01 
4.206250e+00 3.055350e+01 
4.241580e+00 3.005082e+01 
4.276300e+00 2.956846e+01 
4.310970e+00 2.909772e+01 
4.346120e+00 2.863131e+01 
4.380600e+00 2.818434e+01 
4.414730e+00 2.775134e+01 
4.450350e+00 2.730973e+01 
4.485320e+00 2.688553e+01 
4.519810e+00 2.647667e+01 
4.555430e+00 2.606363e+01 
4.590870e+00 2.566170e+01 
4.625480e+00 2.527794e+01 
4.659910e+00 2.490394e+01 
4.695230e+00 2.452887e+01 
4.729960e+00 2.416770e+01 
4.764450e+00 2.381655e+01 
4.799530e+00 2.346710e+01 
4.834910e+00 2.312173e+01 
4.869700e+00 2.278962e+01 
4.904370e+00 2.246523e+01 
4.939450e+00 2.214365e+01 
4.973940e+00 2.183419e+01 
5.008430e+00 2.153062e+01 
5.043810e+00 2.122580e+01 
5.078840e+00 2.093013e+01 
5.113500e+00 2.064309e+01 
5.148890e+00 2.035627e+01 
5.184210e+00 2.007544e+01 
5.219060e+00 1.980371e+01 
5.253660e+00 1.953948e+01 
5.288570e+00 1.927773e+01 
5.323420e+00 1.902156e+01 
5.358440e+00 1.876922e+01 
5.393590e+00 1.852050e+01 
5.428310e+00 1.827976e+01 
5.462800e+00 1.804509e+01 
5.497640e+00 1.781217e+01 
5.532670e+00 1.758270e+01 
5.567280e+00 1.736011e+01 
5.602000e+00 1.714064e+01 
5.637270e+00 1.692211e+01 
5.672410e+00 1.670826e+01 
5.707020e+00 1.650120e+01 
5.742040e+00 1.629587e+01 
5.777430e+00 1.609201e+01 
5.812210e+00 1.589502e+01 
5.846820e+00 1.570266e+01 
5.881610e+00 1.551258e+01 
5.916510e+00 1.532502e+01 
5.951600e+00 1.514006e+01 
5.986560e+00 1.495902e+01 
6.021830e+00 1.477933e+01 
6.056490e+00 1.460594e+01 
6.091160e+00 1.443555e+01 
6.125830e+00 1.426783e+01 
6.161090e+00 1.410012e+01 
6.195760e+00 1.393815e+01 
6.230420e+00 1.377874e+01 
6.265690e+00 1.361906e+01 
6.300950e+00 1.346259e+01 
6.335620e+00 1.331111e+01 
6.370880e+00 1.315940e+01 
6.405550e+00 1.301283e+01 
6.440220e+00 1.286860e+01 
6.475480e+00 1.272412e+01 
6.510150e+00 1.258436e+01 
6.544810e+00 1.244709e+01 
6.580080e+00 1.230947e+01 
6.614750e+00 1.217618e+01 
6.649410e+00 1.204527e+01 
6.684080e+00 1.191628e+01 
6.719340e+00 1.178701e+01 
6.754010e+00 1.166187e+01 
6.788680e+00 1.153882e+01 
6.823940e+00 1.141547e+01 
6.859800e+00 1.129183e+01 
6.894470e+00 1.117432e+01 
6.929140e+00 1.105855e+01 
6.963800e+00 1.094443e+01 
6.999070e+00 1.082996e+01 
7.033730e+00 1.071946e+01 
7.068400e+00 1.061044e+01 
7.103660e+00 1.050109e+01 
7.138330e+00 1.039516e+01 
7.173600e+00 1.028912e+01 
7.208260e+00 1.018632e+01 
7.243530e+00 1.008313e+01 
7.277600e+00 9.984959e+00 
7.312860e+00 9.884878e+00 
7.348120e+00 9.786142e+00 
7.382790e+00 9.690346e+00 
7.417460e+00 9.596051e+00 
7.452720e+00 9.501540e+00 
7.487390e+00 9.409825e+00 
7.522650e+00 9.317765e+00 
7.557320e+00 9.228645e+00 
7.591990e+00 9.140750e+00 
7.627250e+00 9.052508e+00 
7.662510e+00 8.965405e+00 
7.697180e+00 8.881084e+00 
7.731850e+00 8.797913e+00 
7.766510e+00 8.715808e+00 
7.801180e+00 8.634703e+00 
7.836440e+00 8.553411e+00 
7.871110e+00 8.474574e+00 
7.906380e+00 8.395369e+00 
7.941040e+00 8.318497e+00 
7.976310e+00 8.241362e+00 
8.011570e+00 8.165353e+00 
8.046240e+00 8.091529e+00 
8.080900e+00 8.018617e+00 
8.115570e+00 7.946622e+00 
8.150830e+00 7.874521e+00 
8.185500e+00 7.804477e+00 
8.220770e+00 7.734074e+00 
8.255430e+00 7.665713e+00 
8.290100e+00 7.598333e+00 
8.324770e+00 7.531766e+00 
8.359430e+00 7.465996e+00 
8.394700e+00 7.399853e+00 
8.429960e+00 7.334620e+00 
8.464630e+00 7.271340e+00 
8.499890e+00 7.207729e+00 
8.534560e+00 7.145905e+00 
8.569200e+00 7.084839e+00 
