# Parameters:
# omega_b = 0.021941, omega_m = 0.153346, n_s = 1.029528, h = 74.370079, w = -1.000000, sigma_8 = 0.766142
# z = 0.700000
#
# k[1/Mpc] # P(k):
8.694000e-04 3.498282e+03 
2.077466e-03 7.972796e+03 
3.285532e-03 1.173411e+04 
4.493598e-03 1.481813e+04 
5.701664e-03 1.727140e+04 
6.909730e-03 1.916032e+04 
8.117797e-03 2.058335e+04 
9.325863e-03 2.159091e+04 
1.053393e-02 2.223941e+04 
1.174199e-02 2.258545e+04 
1.295006e-02 2.266420e+04 
1.415813e-02 2.252707e+04 
1.536619e-02 2.221784e+04 
1.657426e-02 2.176248e+04 
1.778233e-02 2.115487e+04 
1.899039e-02 2.040515e+04 
2.019846e-02 1.959921e+04 
2.140652e-02 1.881395e+04 
2.261459e-02 1.804862e+04 
2.382266e-02 1.730572e+04 
2.503072e-02 1.659599e+04 
2.623879e-02 1.592635e+04 
2.744685e-02 1.529996e+04 
2.865492e-02 1.472272e+04 
2.986299e-02 1.419471e+04 
3.100100e-02 1.374365e+04 
3.220400e-02 1.331351e+04 
3.288100e-02 1.309314e+04 
3.424300e-02 1.269236e+04 
3.555100e-02 1.235498e+04 
3.686000e-02 1.205959e+04 
3.795000e-02 1.184038e+04 
3.929100e-02 1.160122e+04 
4.039800e-02 1.142166e+04 
4.164000e-02 1.123358e+04 
4.294400e-02 1.104419e+04 
4.415000e-02 1.087232e+04 
4.542900e-02 1.068368e+04 
4.660900e-02 1.050502e+04 
4.782300e-02 1.030415e+04 
4.892900e-02 1.011165e+04 
5.031200e-02 9.853408e+03 
5.155900e-02 9.601820e+03 
5.238100e-02 9.428006e+03 
5.378200e-02 9.119869e+03 
5.513400e-02 8.809179e+03 
5.627600e-02 8.540314e+03 
5.735300e-02 8.285314e+03 
5.870100e-02 7.968085e+03 
5.988700e-02 7.695248e+03 
6.113500e-02 7.417231e+03 
6.225900e-02 7.177358e+03 
6.340100e-02 6.946292e+03 
6.480200e-02 6.681279e+03 
6.601100e-02 6.471517e+03 
6.725500e-02 6.274162e+03 
6.829100e-02 6.125683e+03 
6.958600e-02 5.956546e+03 
7.071100e-02 5.825760e+03 
7.192300e-02 5.699444e+03 
7.307400e-02 5.592372e+03 
7.412300e-02 5.504512e+03 
7.550400e-02 5.402175e+03 
7.663100e-02 5.326756e+03 
7.791200e-02 5.250200e+03 
7.912700e-02 5.183550e+03 
8.027600e-02 5.123938e+03 
8.138400e-02 5.068453e+03 
8.272200e-02 5.002744e+03 
8.406100e-02 4.937029e+03 
8.534100e-02 4.872210e+03 
8.653800e-02 4.808767e+03 
8.759800e-02 4.750792e+03 
8.900300e-02 4.670505e+03 
9.009000e-02 4.605007e+03 
9.113300e-02 4.538779e+03 
9.239600e-02 4.456468e+03 
9.358000e-02 4.376196e+03 
9.496100e-02 4.278108e+03 
9.608400e-02 4.196961e+03 
9.727500e-02 4.110419e+03 
9.852600e-02 4.016394e+03 
9.973800e-02 3.926315e+03 
1.009000e-01 3.841062e+03 
1.020900e-01 3.754312e+03 
1.034000e-01 3.661791e+03 
1.046000e-01 3.579743e+03 
1.057200e-01 3.506860e+03 
1.069100e-01 3.432497e+03 
1.082500e-01 3.354340e+03 
1.093900e-01 3.292393e+03 
1.105400e-01 3.233067e+03 
1.116900e-01 3.179621e+03 
1.129600e-01 3.123775e+03 
1.142000e-01 3.074999e+03 
1.153300e-01 3.033458e+03 
1.166400e-01 2.989290e+03 
1.177800e-01 2.954179e+03 
1.190000e-01 2.918613e+03 
1.201200e-01 2.888618e+03 
1.213400e-01 2.857056e+03 
1.227100e-01 2.823720e+03 
1.238900e-01 2.795720e+03 
1.250700e-01 2.768194e+03 
1.263200e-01 2.739311e+03 
1.275500e-01 2.710640e+03 
1.287500e-01 2.682467e+03 
1.299900e-01 2.652675e+03 
1.311300e-01 2.624755e+03 
1.323500e-01 2.593810e+03 
1.335900e-01 2.561732e+03 
1.347100e-01 2.531619e+03 
1.359800e-01 2.497128e+03 
1.372100e-01 2.462306e+03 
1.384300e-01 2.427758e+03 
1.395700e-01 2.394311e+03 
1.407700e-01 2.359674e+03 
1.420300e-01 2.322245e+03 
1.432800e-01 2.285967e+03 
1.444500e-01 2.251775e+03 
1.456300e-01 2.218029e+03 
1.468900e-01 2.182991e+03 
1.480500e-01 2.151491e+03 
1.491700e-01 2.122175e+03 
1.503800e-01 2.091761e+03 
1.516400e-01 2.061112e+03 
1.528200e-01 2.034516e+03 
1.540200e-01 2.008007e+03 
1.551900e-01 1.984344e+03 
1.564300e-01 1.960159e+03 
1.576600e-01 1.937519e+03 
1.588700e-01 1.916730e+03 
1.600900e-01 1.896237e+03 
1.612700e-01 1.878172e+03 
1.625400e-01 1.859088e+03 
1.637600e-01 1.841536e+03 
1.649500e-01 1.824979e+03 
1.662200e-01 1.807627e+03 
1.674000e-01 1.791789e+03 
1.685000e-01 1.777269e+03 
1.697500e-01 1.760714e+03 
1.710300e-01 1.743735e+03 
1.722200e-01 1.728228e+03 
1.734400e-01 1.711577e+03 
1.746400e-01 1.695437e+03 
1.758700e-01 1.678813e+03 
1.770900e-01 1.661869e+03 
1.782700e-01 1.645755e+03 
1.794600e-01 1.629215e+03 
1.807000e-01 1.611895e+03 
1.819100e-01 1.595281e+03 
1.830100e-01 1.579930e+03 
1.842200e-01 1.563230e+03 
1.855000e-01 1.545854e+03 
1.867000e-01 1.529609e+03 
1.879200e-01 1.513365e+03 
1.890900e-01 1.498053e+03 
1.902800e-01 1.482811e+03 
1.915200e-01 1.467184e+03 
1.926900e-01 1.452747e+03 
1.939000e-01 1.438283e+03 
1.951700e-01 1.423346e+03 
1.963100e-01 1.410256e+03 
1.975100e-01 1.396977e+03 
1.987800e-01 1.383143e+03 
2.000100e-01 1.370077e+03 
2.012500e-01 1.357391e+03 
2.023400e-01 1.346399e+03 
2.036100e-01 1.333849e+03 
2.048900e-01 1.321669e+03 
2.060400e-01 1.310886e+03 
2.072200e-01 1.299993e+03 
2.084200e-01 1.289274e+03 
2.096900e-01 1.278094e+03 
2.109200e-01 1.267425e+03 
2.121100e-01 1.257348e+03 
2.132700e-01 1.247663e+03 
2.145200e-01 1.237373e+03 
2.157200e-01 1.227678e+03 
2.168800e-01 1.218455e+03 
2.180700e-01 1.209118e+03 
2.193400e-01 1.199304e+03 
2.206000e-01 1.189726e+03 
2.217500e-01 1.181102e+03 
2.229500e-01 1.172221e+03 
2.241400e-01 1.163599e+03 
2.253500e-01 1.154949e+03 
2.264900e-01 1.146904e+03 
2.277100e-01 1.138461e+03 
2.289900e-01 1.129784e+03 
2.301500e-01 1.122024e+03 
2.313600e-01 1.114032e+03 
2.325600e-01 1.106366e+03 
2.337700e-01 1.098733e+03 
2.350000e-01 1.091073e+03 
2.362000e-01 1.083774e+03 
2.374100e-01 1.076601e+03 
2.386500e-01 1.069341e+03 
2.399100e-01 1.062059e+03 
2.410400e-01 1.055746e+03 
2.422500e-01 1.049084e+03 
2.435000e-01 1.042287e+03 
2.447300e-01 1.035700e+03 
2.458700e-01 1.029745e+03 
2.470600e-01 1.023600e+03 
2.483300e-01 1.017121e+03 
2.495600e-01 1.010937e+03 
2.507600e-01 1.004993e+03 
2.519600e-01 9.991184e+02 
2.532200e-01 9.930233e+02 
2.543700e-01 9.874975e+02 
2.555500e-01 9.818723e+02 
2.568000e-01 9.759823e+02 
2.580100e-01 9.703472e+02 
2.592400e-01 9.646123e+02 
2.604100e-01 9.591866e+02 
2.616100e-01 9.536836e+02 
2.628400e-01 9.481067e+02 
2.640600e-01 9.425427e+02 
2.652200e-01 9.372726e+02 
2.664300e-01 9.318353e+02 
2.676500e-01 9.264140e+02 
2.688400e-01 9.211032e+02 
2.700700e-01 9.156235e+02 
2.712400e-01 9.104677e+02 
2.724800e-01 9.050627e+02 
2.736700e-01 8.998730e+02 
2.748800e-01 8.945917e+02 
2.761000e-01 8.893243e+02 
2.773200e-01 8.841138e+02 
2.785400e-01 8.789314e+02 
2.797000e-01 8.739968e+02 
2.808900e-01 8.689868e+02 
2.821400e-01 8.637801e+02 
2.833900e-01 8.586271e+02 
2.845500e-01 8.538337e+02 
2.857800e-01 8.488034e+02 
2.870300e-01 8.437456e+02 
2.882100e-01 8.390207e+02 
2.893900e-01 8.343200e+02 
2.906300e-01 8.294184e+02 
2.918900e-01 8.244903e+02 
2.930500e-01 8.199996e+02 
2.942500e-01 8.153930e+02 
2.954200e-01 8.109241e+02 
2.966500e-01 8.062729e+02 
2.978900e-01 8.016318e+02 
2.990400e-01 7.973700e+02 
3.002700e-01 7.928467e+02 
3.015100e-01 7.883281e+02 
3.026800e-01 7.841064e+02 
3.038500e-01 7.799249e+02 
3.050300e-01 7.757475e+02 
3.062600e-01 7.714287e+02 
3.075000e-01 7.671180e+02 
3.087000e-01 7.629870e+02 
3.099100e-01 7.588614e+02 
3.111200e-01 7.547752e+02 
3.123100e-01 7.507942e+02 
3.135300e-01 7.467515e+02 
3.147300e-01 7.428127e+02 
3.159900e-01 7.387167e+02 
3.171800e-01 7.348851e+02 
3.183700e-01 7.310888e+02 
3.196300e-01 7.271071e+02 
3.208400e-01 7.233197e+02 
3.220300e-01 7.196292e+02 
3.232000e-01 7.160406e+02 
3.244300e-01 7.123053e+02 
3.256700e-01 7.085748e+02 
3.269200e-01 7.048495e+02 
3.280800e-01 7.014237e+02 
3.292500e-01 6.980058e+02 
3.304800e-01 6.944471e+02 
3.317100e-01 6.909210e+02 
3.328900e-01 6.875683e+02 
3.340700e-01 6.842447e+02 
3.353600e-01 6.806551e+02 
3.365300e-01 6.774327e+02 
3.377100e-01 6.742106e+02 
3.389200e-01 6.709353e+02 
3.401600e-01 6.676085e+02 
3.413700e-01 6.644000e+02 
3.425300e-01 6.613566e+02 
3.437700e-01 6.581313e+02 
3.449800e-01 6.550115e+02 
3.461800e-01 6.519440e+02 
3.473600e-01 6.489588e+02 
3.485800e-01 6.459127e+02 
3.498100e-01 6.428681e+02 
3.510200e-01 6.398985e+02 
3.522000e-01 6.370268e+02 
3.533900e-01 6.341545e+02 
3.546400e-01 6.311791e+02 
3.558400e-01 6.283477e+02 
3.570600e-01 6.254931e+02 
3.582700e-01 6.226855e+02 
3.595000e-01 6.198553e+02 
3.607100e-01 6.171037e+02 
3.618900e-01 6.144494e+02 
3.631200e-01 6.117052e+02 
3.643200e-01 6.090499e+02 
3.655500e-01 6.063504e+02 
3.667300e-01 6.037815e+02 
3.679500e-01 6.011617e+02 
3.691900e-01 5.985208e+02 
3.703600e-01 5.960488e+02 
3.715700e-01 5.935123e+02 
3.727700e-01 5.910168e+02 
3.739900e-01 5.885066e+02 
3.752000e-01 5.860491e+02 
3.763900e-01 5.836510e+02 
3.775800e-01 5.812715e+02 
3.788200e-01 5.788115e+02 
3.800300e-01 5.764300e+02 
3.812100e-01 5.741311e+02 
3.824200e-01 5.717957e+02 
3.836100e-01 5.695165e+02 
3.848600e-01 5.671410e+02 
3.860400e-01 5.649159e+02 
3.872400e-01 5.626700e+02 
3.884600e-01 5.604137e+02 
3.896500e-01 5.582331e+02 
3.908700e-01 5.560144e+02 
3.920600e-01 5.538666e+02 
3.933100e-01 5.516276e+02 
3.945300e-01 5.494591e+02 
3.957200e-01 5.473676e+02 
3.969300e-01 5.452590e+02 
3.981700e-01 5.431144e+02 
3.993500e-01 5.410887e+02 
4.094840e-01 5.242875e+02 
4.272360e-01 4.973518e+02 
4.454600e-01 4.724025e+02 
4.630560e-01 4.505327e+02 
4.804610e-01 4.307286e+02 
4.980690e-01 4.123134e+02 
5.159230e-01 3.951072e+02 
5.317440e-01 3.809706e+02 
5.489640e-01 3.666594e+02 
5.671990e-01 3.526307e+02 
5.838690e-01 3.407091e+02 
6.018840e-01 3.287260e+02 
6.202330e-01 3.174088e+02 
6.379250e-01 3.072348e+02 
6.545410e-01 2.983223e+02 
6.714560e-01 2.897997e+02 
6.892080e-01 2.814276e+02 
7.066010e-01 2.737346e+02 
7.240540e-01 2.664629e+02 
7.420450e-01 2.594240e+02 
7.593780e-01 2.530255e+02 
7.764720e-01 2.470475e+02 
7.942840e-01 2.411488e+02 
8.116170e-01 2.357041e+02 
8.288310e-01 2.305594e+02 
8.462240e-01 2.256024e+02 
8.631980e-01 2.209807e+02 
8.810700e-01 2.163267e+02 
8.989410e-01 2.118750e+02 
9.166330e-01 2.076498e+02 
9.345640e-01 2.035387e+02 
9.515980e-01 1.997777e+02 
9.688720e-01 1.961020e+02 
9.865640e-01 1.924685e+02 
1.031870e+00 1.837198e+02 
1.063490e+00 1.780131e+02 
1.097920e+00 1.721826e+02 
1.134370e+00 1.663213e+02 
1.167730e+00 1.612585e+02 
1.203830e+00 1.560446e+02 
1.240470e+00 1.510391e+02 
1.275790e+00 1.464239e+02 
1.309140e+00 1.422800e+02 
1.342970e+00 1.382290e+02 
1.378420e+00 1.341885e+02 
1.413200e+00 1.303884e+02 
1.448110e+00 1.267181e+02 
1.484090e+00 1.231095e+02 
1.518820e+00 1.197470e+02 
1.552880e+00 1.165872e+02 
1.588630e+00 1.133850e+02 
1.623230e+00 1.104171e+02 
1.657720e+00 1.075646e+02 
1.692450e+00 1.048155e+02 
1.726400e+00 1.021971e+02 
1.762200e+00 9.953570e+01 
1.797880e+00 9.698951e+01 
1.833270e+00 9.454248e+01 
1.869070e+00 9.216584e+01 
1.903200e+00 8.997547e+01 
1.937740e+00 8.783066e+01 
1.973190e+00 8.570128e+01 
2.007440e+00 8.371434e+01 
2.042160e+00 8.177243e+01 
2.077900e+00 7.982625e+01 
2.112390e+00 7.802044e+01 
2.146220e+00 7.628709e+01 
2.181600e+00 7.454194e+01 
2.216930e+00 7.285493e+01 
2.250760e+00 7.128146e+01 
2.286500e+00 6.966804e+01 
2.321770e+00 6.813371e+01 
2.355950e+00 6.669927e+01 
2.391280e+00 6.524762e+01 
2.426240e+00 6.385252e+01 
2.460670e+00 6.251858e+01 
2.495640e+00 6.120377e+01 
2.531080e+00 5.991594e+01 
2.566220e+00 5.866779e+01 
2.600830e+00 5.747483e+01 
2.635080e+00 5.633207e+01 
2.670340e+00 5.517696e+01 
2.705970e+00 5.404790e+01 
2.740040e+00 5.300113e+01 
2.774520e+00 5.196826e+01 
2.809730e+00 5.094110e+01 
2.844390e+00 4.995761e+01 
2.879960e+00 4.897390e+01 
2.914860e+00 4.803360e+01 
2.949410e+00 4.712775e+01 
2.984440e+00 4.623151e+01 
3.019760e+00 4.535472e+01 
3.054730e+00 4.451155e+01 
3.089030e+00 4.369801e+01 
3.124060e+00 4.289083e+01 
3.159560e+00 4.209635e+01 
3.194710e+00 4.132447e+01 
3.229010e+00 4.058986e+01 
3.263320e+00 3.987531e+01 
3.297930e+00 3.917256e+01 
3.332830e+00 3.848025e+01 
3.368040e+00 3.779843e+01 
3.403300e+00 3.713235e+01 
3.438450e+00 3.648302e+01 
3.473060e+00 3.585959e+01 
3.508440e+00 3.523957e+01 
3.543110e+00 3.464658e+01 
3.577470e+00 3.406807e+01 
3.613040e+00 3.348443e+01 
3.648120e+00 3.292385e+01 
3.682910e+00 3.238074e+01 
3.718050e+00 3.184393e+01 
3.753320e+00 3.131740e+01 
3.787980e+00 3.081110e+01 
3.822290e+00 3.032210e+01 
3.857020e+00 2.983927e+01 
3.891920e+00 2.936366e+01 
3.926650e+00 2.889815e+01 
3.961970e+00 2.843605e+01 
3.997360e+00 2.798455e+01 
4.031670e+00 2.755647e+01 
4.066330e+00 2.713238e+01 
4.101420e+00 2.671266e+01 
4.136200e+00 2.630659e+01 
4.170810e+00 2.591136e+01 
4.206250e+00 2.551412e+01 
4.241580e+00 2.512659e+01 
4.276300e+00 2.475373e+01 
4.310970e+00 2.438918e+01 
4.346120e+00 2.402735e+01 
4.380600e+00 2.367973e+01 
4.414730e+00 2.334271e+01 
4.450350e+00 2.299789e+01 
4.485320e+00 2.266644e+01 
4.519810e+00 2.234608e+01 
4.555430e+00 2.202194e+01 
4.590870e+00 2.170605e+01 
4.625480e+00 2.140374e+01 
4.659910e+00 2.110894e+01 
4.695230e+00 2.081248e+01 
4.729960e+00 2.052673e+01 
4.764450e+00 2.024847e+01 
4.799530e+00 1.997097e+01 
4.834910e+00 1.969653e+01 
4.869700e+00 1.943197e+01 
4.904370e+00 1.917333e+01 
4.939450e+00 1.891662e+01 
4.973940e+00 1.866907e+01 
5.008430e+00 1.842610e+01 
5.043810e+00 1.818163e+01 
5.078840e+00 1.794417e+01 
5.113500e+00 1.771352e+01 
5.148890e+00 1.748242e+01 
5.184210e+00 1.725600e+01 
5.219060e+00 1.703673e+01 
5.253660e+00 1.682313e+01 
5.288570e+00 1.661142e+01 
5.323420e+00 1.640395e+01 
5.358440e+00 1.619929e+01 
5.393590e+00 1.599747e+01 
5.428310e+00 1.580177e+01 
5.462800e+00 1.561078e+01 
5.497640e+00 1.542113e+01 
5.532670e+00 1.523396e+01 
5.567280e+00 1.505224e+01 
5.602000e+00 1.487299e+01 
5.637270e+00 1.469417e+01 
5.672410e+00 1.451906e+01 
5.707020e+00 1.434943e+01 
5.742040e+00 1.418092e+01 
5.777430e+00 1.401350e+01 
5.812210e+00 1.385165e+01 
5.846820e+00 1.369337e+01 
5.881610e+00 1.353685e+01 
5.916510e+00 1.338234e+01 
5.951600e+00 1.322979e+01 
5.986560e+00 1.308035e+01 
6.021830e+00 1.293198e+01 
6.056490e+00 1.278859e+01 
6.091160e+00 1.264750e+01 
6.125830e+00 1.250858e+01 
6.161090e+00 1.236957e+01 
6.195760e+00 1.223519e+01 
6.230420e+00 1.210288e+01 
6.265690e+00 1.197029e+01 
6.300950e+00 1.184015e+01 
6.335620e+00 1.171411e+01 
6.370880e+00 1.158783e+01 
6.405550e+00 1.146565e+01 
6.440220e+00 1.134533e+01 
6.475480e+00 1.122475e+01 
6.510150e+00 1.110803e+01 
6.544810e+00 1.099328e+01 
6.580080e+00 1.087819e+01 
6.614750e+00 1.076669e+01 
6.649410e+00 1.065702e+01 
6.684080e+00 1.054892e+01 
6.719340e+00 1.044054e+01 
6.754010e+00 1.033555e+01 
6.788680e+00 1.023220e+01 
6.823940e+00 1.012857e+01 
6.859800e+00 1.002466e+01 
6.894470e+00 9.925765e+00 
6.929140e+00 9.828284e+00 
6.963800e+00 9.732153e+00 
6.999070e+00 9.635681e+00 
7.033730e+00 9.542432e+00 
7.068400e+00 9.450402e+00 
7.103660e+00 9.358063e+00 
7.138330e+00 9.268555e+00 
7.173600e+00 9.178860e+00 
7.208260e+00 9.091882e+00 
7.243530e+00 9.004541e+00 
7.277600e+00 8.921388e+00 
7.312860e+00 8.836553e+00 
7.348120e+00 8.752830e+00 
7.382790e+00 8.671574e+00 
7.417460e+00 8.591482e+00 
7.452720e+00 8.511137e+00 
7.487390e+00 8.433145e+00 
7.522650e+00 8.354834e+00 
7.557320e+00 8.278968e+00 
7.591990e+00 8.204109e+00 
7.627250e+00 8.128930e+00 
7.662510e+00 8.054699e+00 
7.697180e+00 7.982749e+00 
7.731850e+00 7.911734e+00 
7.766510e+00 7.841607e+00 
7.801180e+00 7.772314e+00 
7.836440e+00 7.702802e+00 
7.871110e+00 7.635347e+00 
7.906380e+00 7.567556e+00 
7.941040e+00 7.501742e+00 
7.976310e+00 7.435636e+00 
8.011570e+00 7.370418e+00 
8.046240e+00 7.307056e+00 
8.080900e+00 7.244458e+00 
8.115570e+00 7.182622e+00 
8.150830e+00 7.120644e+00 
8.185500e+00 7.060418e+00 
8.220770e+00 6.999865e+00 
8.255430e+00 6.941052e+00 
8.290100e+00 6.882980e+00 
8.324770e+00 6.825582e+00 
8.359430e+00 6.768856e+00 
8.394700e+00 6.711792e+00 
8.429960e+00 6.655480e+00 
8.464630e+00 6.600820e+00 
8.499890e+00 6.545859e+00 
8.534560e+00 6.492427e+00 
8.569200e+00 6.439636e+00 
