# Parameters:
# omega_b = 0.021972, omega_m = 0.151142, n_s = 0.955512, h = 57.834646, w = -1.000000, sigma_8 = 0.762992
# z = 0.700000
#
# k[1/Mpc] # P(k):
8.694000e-04 6.433035e+03 
2.077466e-03 1.373102e+04 
3.285532e-03 1.951677e+04 
4.493598e-03 2.405594e+04 
5.701664e-03 2.752161e+04 
6.909730e-03 3.006904e+04 
8.117797e-03 3.188201e+04 
9.325863e-03 3.305697e+04 
1.053393e-02 3.369456e+04 
1.174199e-02 3.389226e+04 
1.295006e-02 3.370818e+04 
1.415813e-02 3.322371e+04 
1.536619e-02 3.251093e+04 
1.657426e-02 3.162599e+04 
1.778233e-02 3.065964e+04 
1.899039e-02 2.970562e+04 
2.019846e-02 2.870691e+04 
2.140652e-02 2.764008e+04 
2.261459e-02 2.654644e+04 
2.382266e-02 2.547089e+04 
2.503072e-02 2.443636e+04 
2.623879e-02 2.345231e+04 
2.744685e-02 2.252055e+04 
2.865492e-02 2.165056e+04 
2.986299e-02 2.084283e+04 
3.100100e-02 2.013917e+04 
3.220400e-02 1.945398e+04 
3.288100e-02 1.909504e+04 
3.424300e-02 1.842734e+04 
3.555100e-02 1.784808e+04 
3.686000e-02 1.732416e+04 
3.795000e-02 1.692464e+04 
3.929100e-02 1.647574e+04 
4.039800e-02 1.613332e+04 
4.164000e-02 1.577325e+04 
4.294400e-02 1.541615e+04 
4.415000e-02 1.510031e+04 
4.542900e-02 1.477165e+04 
4.660900e-02 1.447408e+04 
4.782300e-02 1.416272e+04 
4.892900e-02 1.387799e+04 
5.031200e-02 1.351553e+04 
5.155900e-02 1.317936e+04 
5.238100e-02 1.295374e+04 
5.378200e-02 1.256312e+04 
5.513400e-02 1.217761e+04 
5.627600e-02 1.184738e+04 
5.735300e-02 1.153475e+04 
5.870100e-02 1.114431e+04 
5.988700e-02 1.080524e+04 
6.113500e-02 1.045493e+04 
6.225900e-02 1.014692e+04 
6.340100e-02 9.843701e+03 
6.480200e-02 9.487803e+03 
6.601100e-02 9.196455e+03 
6.725500e-02 8.913655e+03 
6.829100e-02 8.693016e+03 
6.958600e-02 8.434796e+03 
7.071100e-02 8.227729e+03 
7.192300e-02 8.021492e+03 
7.307400e-02 7.841391e+03 
7.412300e-02 7.689887e+03 
7.550400e-02 7.508781e+03 
7.663100e-02 7.373289e+03 
7.791200e-02 7.234336e+03 
7.912700e-02 7.114361e+03 
8.027600e-02 7.008974e+03 
8.138400e-02 6.913210e+03 
8.272200e-02 6.803803e+03 
8.406100e-02 6.699087e+03 
8.534100e-02 6.601199e+03 
8.653800e-02 6.509496e+03 
8.759800e-02 6.427920e+03 
8.900300e-02 6.318052e+03 
9.009000e-02 6.230560e+03 
9.113300e-02 6.143575e+03 
9.239600e-02 6.036562e+03 
9.358000e-02 5.933315e+03 
9.496100e-02 5.808376e+03 
9.608400e-02 5.705548e+03 
9.727500e-02 5.596238e+03 
9.852600e-02 5.478165e+03 
9.973800e-02 5.365072e+03 
1.009000e-01 5.258034e+03 
1.020900e-01 5.148740e+03 
1.034000e-01 5.031619e+03 
1.046000e-01 4.927160e+03 
1.057200e-01 4.832829e+03 
1.069100e-01 4.735834e+03 
1.082500e-01 4.631567e+03 
1.093900e-01 4.547101e+03 
1.105400e-01 4.465120e+03 
1.116900e-01 4.388388e+03 
1.129600e-01 4.307150e+03 
1.142000e-01 4.233334e+03 
1.153300e-01 4.169384e+03 
1.166400e-01 4.099622e+03 
1.177800e-01 4.042910e+03 
1.190000e-01 3.984840e+03 
1.201200e-01 3.935371e+03 
1.213400e-01 3.883219e+03 
1.227100e-01 3.828919e+03 
1.238900e-01 3.783705e+03 
1.250700e-01 3.740668e+03 
1.263200e-01 3.696287e+03 
1.275500e-01 3.653963e+03 
1.287500e-01 3.613396e+03 
1.299900e-01 3.572079e+03 
1.311300e-01 3.534268e+03 
1.323500e-01 3.493677e+03 
1.335900e-01 3.452302e+03 
1.347100e-01 3.414348e+03 
1.359800e-01 3.371218e+03 
1.372100e-01 3.328337e+03 
1.384300e-01 3.285883e+03 
1.395700e-01 3.245012e+03 
1.407700e-01 3.202647e+03 
1.420300e-01 3.156698e+03 
1.432800e-01 3.112128e+03 
1.444500e-01 3.069506e+03 
1.456300e-01 3.027413e+03 
1.468900e-01 2.982953e+03 
1.480500e-01 2.942745e+03 
1.491700e-01 2.904815e+03 
1.503800e-01 2.864817e+03 
1.516400e-01 2.824256e+03 
1.528200e-01 2.787987e+03 
1.540200e-01 2.751834e+03 
1.551900e-01 2.718538e+03 
1.564300e-01 2.684246e+03 
1.576600e-01 2.651661e+03 
1.588700e-01 2.621135e+03 
1.600900e-01 2.591016e+03 
1.612700e-01 2.563816e+03 
1.625400e-01 2.535088e+03 
1.637600e-01 2.508622e+03 
1.649500e-01 2.483629e+03 
1.662200e-01 2.457512e+03 
1.674000e-01 2.434078e+03 
1.685000e-01 2.412596e+03 
1.697500e-01 2.388564e+03 
1.710300e-01 2.364366e+03 
1.722200e-01 2.342267e+03 
1.734400e-01 2.319555e+03 
1.746400e-01 2.297577e+03 
1.758700e-01 2.275227e+03 
1.770900e-01 2.253013e+03 
1.782700e-01 2.231886e+03 
1.794600e-01 2.210550e+03 
1.807000e-01 2.188434e+03 
1.819100e-01 2.167213e+03 
1.830100e-01 2.147811e+03 
1.842200e-01 2.126730e+03 
1.855000e-01 2.104790e+03 
1.867000e-01 2.084252e+03 
1.879200e-01 2.063709e+03 
1.890900e-01 2.044303e+03 
1.902800e-01 2.024793e+03 
1.915200e-01 2.004786e+03 
1.926900e-01 1.986220e+03 
1.939000e-01 1.967366e+03 
1.951700e-01 1.947892e+03 
1.963100e-01 1.930732e+03 
1.975100e-01 1.913076e+03 
1.987800e-01 1.894680e+03 
2.000100e-01 1.877217e+03 
2.012500e-01 1.860058e+03 
2.023400e-01 1.845190e+03 
2.036100e-01 1.828174e+03 
2.048900e-01 1.811504e+03 
2.060400e-01 1.796746e+03 
2.072200e-01 1.781831e+03 
2.084200e-01 1.767075e+03 
2.096900e-01 1.751687e+03 
2.109200e-01 1.737002e+03 
2.121100e-01 1.723107e+03 
2.132700e-01 1.709753e+03 
2.145200e-01 1.695563e+03 
2.157200e-01 1.682179e+03 
2.168800e-01 1.669437e+03 
2.180700e-01 1.656540e+03 
2.193400e-01 1.642952e+03 
2.206000e-01 1.629637e+03 
2.217500e-01 1.617647e+03 
2.229500e-01 1.605298e+03 
2.241400e-01 1.593142e+03 
2.253500e-01 1.580942e+03 
2.264900e-01 1.569595e+03 
2.277100e-01 1.557549e+03 
2.289900e-01 1.545015e+03 
2.301500e-01 1.533805e+03 
2.313600e-01 1.522259e+03 
2.325600e-01 1.510831e+03 
2.337700e-01 1.499456e+03 
2.350000e-01 1.488042e+03 
2.362000e-01 1.476994e+03 
2.374100e-01 1.465933e+03 
2.386500e-01 1.454741e+03 
2.399100e-01 1.443517e+03 
2.410400e-01 1.433523e+03 
2.422500e-01 1.422944e+03 
2.435000e-01 1.412153e+03 
2.447300e-01 1.401664e+03 
2.458700e-01 1.392043e+03 
2.470600e-01 1.382118e+03 
2.483300e-01 1.371656e+03 
2.495600e-01 1.361665e+03 
2.507600e-01 1.352057e+03 
2.519600e-01 1.342562e+03 
2.532200e-01 1.332713e+03 
2.543700e-01 1.323874e+03 
2.555500e-01 1.314939e+03 
2.568000e-01 1.305585e+03 
2.580100e-01 1.296637e+03 
2.592400e-01 1.287719e+03 
2.604100e-01 1.279365e+03 
2.616100e-01 1.270893e+03 
2.628400e-01 1.262309e+03 
2.640600e-01 1.253971e+03 
2.652200e-01 1.246163e+03 
2.664300e-01 1.238108e+03 
2.676500e-01 1.230077e+03 
2.688400e-01 1.222393e+03 
2.700700e-01 1.214578e+03 
2.712400e-01 1.207226e+03 
2.724800e-01 1.199518e+03 
2.736700e-01 1.192239e+03 
2.748800e-01 1.184954e+03 
2.761000e-01 1.177688e+03 
2.773200e-01 1.170501e+03 
2.785400e-01 1.163409e+03 
2.797000e-01 1.156772e+03 
2.808900e-01 1.150034e+03 
2.821400e-01 1.143032e+03 
2.833900e-01 1.136107e+03 
2.845500e-01 1.129774e+03 
2.857800e-01 1.123128e+03 
2.870300e-01 1.116446e+03 
2.882100e-01 1.110204e+03 
2.893900e-01 1.104039e+03 
2.906300e-01 1.097635e+03 
2.918900e-01 1.091197e+03 
2.930500e-01 1.085329e+03 
2.942500e-01 1.079319e+03 
2.954200e-01 1.073518e+03 
2.966500e-01 1.067479e+03 
2.978900e-01 1.061453e+03 
2.990400e-01 1.055920e+03 
3.002700e-01 1.050061e+03 
3.015100e-01 1.044216e+03 
3.026800e-01 1.038754e+03 
3.038500e-01 1.033345e+03 
3.050300e-01 1.027941e+03 
3.062600e-01 1.022361e+03 
3.075000e-01 1.016793e+03 
3.087000e-01 1.011456e+03 
3.099100e-01 1.006126e+03 
3.111200e-01 1.000849e+03 
3.123100e-01 9.957100e+02 
3.135300e-01 9.904918e+02 
3.147300e-01 9.854075e+02 
3.159900e-01 9.801202e+02 
3.171800e-01 9.751753e+02 
3.183700e-01 9.702767e+02 
3.196300e-01 9.651389e+02 
3.208400e-01 9.602516e+02 
3.220300e-01 9.554890e+02 
3.232000e-01 9.508576e+02 
3.244300e-01 9.460365e+02 
3.256700e-01 9.412215e+02 
3.269200e-01 9.364131e+02 
3.280800e-01 9.319911e+02 
3.292500e-01 9.275799e+02 
3.304800e-01 9.229871e+02 
3.317100e-01 9.184361e+02 
3.328900e-01 9.141089e+02 
3.340700e-01 9.098193e+02 
3.353600e-01 9.051857e+02 
3.365300e-01 9.010260e+02 
3.377100e-01 8.968665e+02 
3.389200e-01 8.926382e+02 
3.401600e-01 8.883434e+02 
3.413700e-01 8.842006e+02 
3.425300e-01 8.802705e+02 
3.437700e-01 8.761052e+02 
3.449800e-01 8.720762e+02 
3.461800e-01 8.681146e+02 
3.473600e-01 8.642591e+02 
3.485800e-01 8.603247e+02 
3.498100e-01 8.563920e+02 
3.510200e-01 8.525563e+02 
3.522000e-01 8.488468e+02 
3.533900e-01 8.451366e+02 
3.546400e-01 8.412913e+02 
3.558400e-01 8.376320e+02 
3.570600e-01 8.339426e+02 
3.582700e-01 8.303138e+02 
3.595000e-01 8.266558e+02 
3.607100e-01 8.230987e+02 
3.618900e-01 8.196669e+02 
3.631200e-01 8.161189e+02 
3.643200e-01 8.126856e+02 
3.655500e-01 8.091952e+02 
3.667300e-01 8.058736e+02 
3.679500e-01 8.024844e+02 
3.691900e-01 7.990678e+02 
3.703600e-01 7.958697e+02 
3.715700e-01 7.925883e+02 
3.727700e-01 7.893597e+02 
3.739900e-01 7.861113e+02 
3.752000e-01 7.829296e+02 
3.763900e-01 7.798249e+02 
3.775800e-01 7.767441e+02 
3.788200e-01 7.735592e+02 
3.800300e-01 7.704758e+02 
3.812100e-01 7.674978e+02 
3.824200e-01 7.644714e+02 
3.836100e-01 7.615178e+02 
3.848600e-01 7.584394e+02 
3.860400e-01 7.555558e+02 
3.872400e-01 7.526453e+02 
3.884600e-01 7.497205e+02 
3.896500e-01 7.468935e+02 
3.908700e-01 7.440172e+02 
3.920600e-01 7.412327e+02 
3.933100e-01 7.383300e+02 
3.945300e-01 7.355186e+02 
3.957200e-01 7.328026e+02 
3.969300e-01 7.300631e+02 
3.981700e-01 7.272767e+02 
3.993500e-01 7.246449e+02 
4.094840e-01 7.028057e+02 
4.272360e-01 6.677063e+02 
4.454600e-01 6.350958e+02 
4.630560e-01 6.064188e+02 
4.804610e-01 5.804087e+02 
4.980690e-01 5.561819e+02 
5.159230e-01 5.335484e+02 
5.317440e-01 5.149509e+02 
5.489640e-01 4.961431e+02 
5.671990e-01 4.777287e+02 
5.838690e-01 4.620975e+02 
6.018840e-01 4.464034e+02 
6.202330e-01 4.315788e+02 
6.379250e-01 4.182591e+02 
6.545410e-01 4.065824e+02 
6.714560e-01 3.953981e+02 
6.892080e-01 3.843978e+02 
7.066010e-01 3.742490e+02 
7.240540e-01 3.646287e+02 
7.420450e-01 3.552726e+02 
7.593780e-01 3.467289e+02 
7.764720e-01 3.387080e+02 
7.942840e-01 3.307503e+02 
8.116170e-01 3.233507e+02 
8.288310e-01 3.163178e+02 
8.462240e-01 3.095001e+02 
8.631980e-01 3.031021e+02 
8.810700e-01 2.966205e+02 
8.989410e-01 2.903819e+02 
9.166330e-01 2.844217e+02 
9.345640e-01 2.785842e+02 
9.515980e-01 2.732152e+02 
9.688720e-01 2.679368e+02 
9.865640e-01 2.626874e+02 
1.031870e+00 2.499633e+02 
1.063490e+00 2.415831e+02 
1.097920e+00 2.329602e+02 
1.134370e+00 2.242573e+02 
1.167730e+00 2.166987e+02 
1.203830e+00 2.088943e+02 
1.240470e+00 2.013849e+02 
1.275790e+00 1.944552e+02 
1.309140e+00 1.882317e+02 
1.342970e+00 1.821485e+02 
1.378420e+00 1.760879e+02 
1.413200e+00 1.703956e+02 
1.448110e+00 1.649095e+02 
1.484090e+00 1.595254e+02 
1.518820e+00 1.545282e+02 
1.552880e+00 1.498435e+02 
1.588630e+00 1.451163e+02 
1.623230e+00 1.407464e+02 
1.657720e+00 1.365620e+02 
1.692450e+00 1.325407e+02 
1.726400e+00 1.287299e+02 
1.762200e+00 1.248705e+02 
1.797880e+00 1.211940e+02 
1.833270e+00 1.176773e+02 
1.869070e+00 1.142735e+02 
1.903200e+00 1.111505e+02 
1.937740e+00 1.081055e+02 
1.973190e+00 1.050940e+02 
2.007440e+00 1.022972e+02 
2.042160e+00 9.957310e+01 
2.077900e+00 9.685691e+01 
2.112390e+00 9.434501e+01 
2.146220e+00 9.194791e+01 
2.181600e+00 8.954106e+01 
2.216930e+00 8.722527e+01 
2.250760e+00 8.507484e+01 
2.286500e+00 8.287879e+01 
2.321770e+00 8.079837e+01 
2.355950e+00 7.885930e+01 
2.391280e+00 7.690663e+01 
2.426240e+00 7.503824e+01 
2.460670e+00 7.325854e+01 
2.495640e+00 7.151031e+01 
2.531080e+00 6.980432e+01 
2.566220e+00 6.815913e+01 
2.600830e+00 6.659211e+01 
2.635080e+00 6.509525e+01 
2.670340e+00 6.359025e+01 
2.705970e+00 6.212391e+01 
2.740040e+00 6.076840e+01 
2.774520e+00 5.943539e+01 
2.809730e+00 5.811509e+01 
2.844390e+00 5.685487e+01 
2.879960e+00 5.559927e+01 
2.914860e+00 5.440376e+01 
2.949410e+00 5.325519e+01 
2.984440e+00 5.212321e+01 
3.019760e+00 5.101898e+01 
3.054730e+00 4.995958e+01 
3.089030e+00 4.894275e+01 
3.124060e+00 4.793618e+01 
3.159560e+00 4.694827e+01 
3.194710e+00 4.599240e+01 
3.229010e+00 4.508467e+01 
3.263320e+00 4.420510e+01 
3.297930e+00 4.334188e+01 
3.332830e+00 4.249432e+01 
3.368040e+00 4.166206e+01 
3.403300e+00 4.085100e+01 
3.438450e+00 4.006338e+01 
3.473060e+00 3.930843e+01 
3.508440e+00 3.856039e+01 
3.543110e+00 3.784608e+01 
3.577470e+00 3.715225e+01 
3.613040e+00 3.645339e+01 
3.648120e+00 3.578411e+01 
3.682910e+00 3.513704e+01 
3.718050e+00 3.449950e+01 
3.753320e+00 3.387549e+01 
3.787980e+00 3.327713e+01 
3.822290e+00 3.270034e+01 
3.857020e+00 3.213230e+01 
3.891920e+00 3.157392e+01 
3.926650e+00 3.102912e+01 
3.961970e+00 3.048917e+01 
3.997360e+00 2.996308e+01 
4.031670e+00 2.946496e+01 
4.066330e+00 2.897309e+01 
4.101420e+00 2.848671e+01 
4.136200e+00 2.801763e+01 
4.170810e+00 2.756140e+01 
4.206250e+00 2.710446e+01 
4.241580e+00 2.665923e+01 
4.276300e+00 2.623192e+01 
4.310970e+00 2.581486e+01 
4.346120e+00 2.540160e+01 
4.380600e+00 2.500554e+01 
4.414730e+00 2.462185e+01 
4.450350e+00 2.423052e+01 
4.485320e+00 2.385462e+01 
4.519810e+00 2.349224e+01 
4.555430e+00 2.312613e+01 
4.590870e+00 2.276984e+01 
4.625480e+00 2.242963e+01 
4.659910e+00 2.209808e+01 
4.695230e+00 2.176558e+01 
4.729960e+00 2.144541e+01 
4.764450e+00 2.113409e+01 
4.799530e+00 2.082427e+01 
4.834910e+00 2.051806e+01 
4.869700e+00 2.022361e+01 
4.904370e+00 1.993601e+01 
4.939450e+00 1.965089e+01 
4.973940e+00 1.937654e+01 
5.008430e+00 1.910741e+01 
5.043810e+00 1.883715e+01 
5.078840e+00 1.857499e+01 
5.113500e+00 1.832048e+01 
5.148890e+00 1.806615e+01 
5.184210e+00 1.781713e+01 
5.219060e+00 1.757620e+01 
5.253660e+00 1.734196e+01 
5.288570e+00 1.710991e+01 
5.323420e+00 1.688283e+01 
5.358440e+00 1.665916e+01 
5.393590e+00 1.643870e+01 
5.428310e+00 1.622530e+01 
5.462800e+00 1.601729e+01 
5.497640e+00 1.581083e+01 
5.532670e+00 1.560745e+01 
5.567280e+00 1.541016e+01 
5.602000e+00 1.521564e+01 
5.637270e+00 1.502196e+01 
5.672410e+00 1.483243e+01 
5.707020e+00 1.464893e+01 
5.742040e+00 1.446698e+01 
5.777430e+00 1.428633e+01 
5.812210e+00 1.411177e+01 
5.846820e+00 1.394135e+01 
5.881610e+00 1.377296e+01 
5.916510e+00 1.360679e+01 
5.951600e+00 1.344297e+01 
5.986560e+00 1.328263e+01 
6.021830e+00 1.312349e+01 
6.056490e+00 1.296992e+01 
6.091160e+00 1.281898e+01 
6.125830e+00 1.267043e+01 
6.161090e+00 1.252189e+01 
6.195760e+00 1.237848e+01 
6.230420e+00 1.223734e+01 
6.265690e+00 1.209596e+01 
6.300950e+00 1.195745e+01 
6.335620e+00 1.182335e+01 
6.370880e+00 1.168905e+01 
6.405550e+00 1.155930e+01 
6.440220e+00 1.143162e+01 
6.475480e+00 1.130371e+01 
6.510150e+00 1.118000e+01 
6.544810e+00 1.105852e+01 
6.580080e+00 1.093673e+01 
6.614750e+00 1.081877e+01 
6.649410e+00 1.070293e+01 
6.684080e+00 1.058881e+01 
6.719340e+00 1.047443e+01 
6.754010e+00 1.036371e+01 
6.788680e+00 1.025487e+01 
6.823940e+00 1.014575e+01 
6.859800e+00 1.003638e+01 
6.894470e+00 9.932432e+00 
6.929140e+00 9.830040e+00 
6.963800e+00 9.729097e+00 
6.999070e+00 9.627837e+00 
7.033730e+00 9.530113e+00 
7.068400e+00 9.433696e+00 
7.103660e+00 9.336985e+00 
7.138330e+00 9.243309e+00 
7.173600e+00 9.149552e+00 
7.208260e+00 9.058663e+00 
7.243530e+00 8.967420e+00 
7.277600e+00 8.880634e+00 
7.312860e+00 8.792169e+00 
7.348120e+00 8.704890e+00 
7.382790e+00 8.620206e+00 
7.417460e+00 8.536845e+00 
7.452720e+00 8.453290e+00 
7.487390e+00 8.372205e+00 
7.522650e+00 8.290811e+00 
7.557320e+00 8.212047e+00 
7.591990e+00 8.134376e+00 
7.627250e+00 8.056394e+00 
7.662510e+00 7.979416e+00 
7.697180e+00 7.904901e+00 
7.731850e+00 7.831403e+00 
7.766510e+00 7.758842e+00 
7.801180e+00 7.687163e+00 
7.836440e+00 7.615334e+00 
7.871110e+00 7.545684e+00 
7.906380e+00 7.475705e+00 
7.941040e+00 7.407785e+00 
7.976310e+00 7.339628e+00 
8.011570e+00 7.272464e+00 
8.046240e+00 7.207226e+00 
8.080900e+00 7.142792e+00 
8.115570e+00 7.079172e+00 
8.150830e+00 7.015484e+00 
8.185500e+00 6.953611e+00 
8.220770e+00 6.891418e+00 
8.255430e+00 6.831026e+00 
8.290100e+00 6.771496e+00 
8.324770e+00 6.712681e+00 
8.359430e+00 6.654567e+00 
8.394700e+00 6.596122e+00 
8.429960e+00 6.538494e+00 
8.464630e+00 6.482605e+00 
8.499890e+00 6.426420e+00 
8.534560e+00 6.371811e+00 
8.569200e+00 6.317869e+00 
