# Parameters:
# omega_b = 0.021783, omega_m = 0.150039, n_s = 0.875197, h = 58.543307, w = -1.000000, sigma_8 = 0.767717
# z = 0.700000
#
# k[1/Mpc] # P(k):
8.694000e-04 9.667859e+03 
2.077466e-03 1.921526e+04 
3.285532e-03 2.629523e+04 
4.493598e-03 3.156213e+04 
5.701664e-03 3.538258e+04 
6.909730e-03 3.802476e+04 
8.117797e-03 3.975879e+04 
9.325863e-03 4.072789e+04 
1.053393e-02 4.107157e+04 
1.174199e-02 4.091859e+04 
1.295006e-02 4.034531e+04 
1.415813e-02 3.945234e+04 
1.536619e-02 3.832654e+04 
1.657426e-02 3.703422e+04 
1.778233e-02 3.568077e+04 
1.899039e-02 3.436873e+04 
2.019846e-02 3.302813e+04 
2.140652e-02 3.163355e+04 
2.261459e-02 3.023296e+04 
2.382266e-02 2.887543e+04 
2.503072e-02 2.758436e+04 
2.623879e-02 2.636809e+04 
2.744685e-02 2.522693e+04 
2.865492e-02 2.416870e+04 
2.986299e-02 2.319191e+04 
3.100100e-02 2.234501e+04 
3.220400e-02 2.152320e+04 
3.288100e-02 2.109356e+04 
3.424300e-02 2.029530e+04 
3.555100e-02 1.960316e+04 
3.686000e-02 1.897666e+04 
3.795000e-02 1.849834e+04 
3.929100e-02 1.795938e+04 
4.039800e-02 1.754729e+04 
4.164000e-02 1.711326e+04 
4.294400e-02 1.668209e+04 
4.415000e-02 1.630093e+04 
4.542900e-02 1.590541e+04 
4.660900e-02 1.554862e+04 
4.782300e-02 1.517808e+04 
4.892900e-02 1.484148e+04 
5.031200e-02 1.441676e+04 
5.155900e-02 1.402706e+04 
5.238100e-02 1.376764e+04 
5.378200e-02 1.332220e+04 
5.513400e-02 1.288729e+04 
5.627600e-02 1.251812e+04 
5.735300e-02 1.217109e+04 
5.870100e-02 1.174073e+04 
5.988700e-02 1.136929e+04 
6.113500e-02 1.098757e+04 
6.225900e-02 1.065347e+04 
6.340100e-02 1.032567e+04 
6.480200e-02 9.941928e+03 
6.601100e-02 9.628475e+03 
6.725500e-02 9.324497e+03 
6.829100e-02 9.087308e+03 
6.958600e-02 8.809566e+03 
7.071100e-02 8.586484e+03 
7.192300e-02 8.363843e+03 
7.307400e-02 8.168894e+03 
7.412300e-02 8.004412e+03 
7.550400e-02 7.806944e+03 
7.663100e-02 7.658655e+03 
7.791200e-02 7.505676e+03 
7.912700e-02 7.372857e+03 
8.027600e-02 7.255698e+03 
8.138400e-02 7.148887e+03 
8.272200e-02 7.026492e+03 
8.406100e-02 6.909124e+03 
8.534100e-02 6.799382e+03 
8.653800e-02 6.696805e+03 
8.759800e-02 6.605797e+03 
8.900300e-02 6.483720e+03 
9.009000e-02 6.387032e+03 
9.113300e-02 6.291491e+03 
9.239600e-02 6.174501e+03 
9.358000e-02 6.062347e+03 
9.496100e-02 5.927740e+03 
9.608400e-02 5.817615e+03 
9.727500e-02 5.701073e+03 
9.852600e-02 5.576393e+03 
9.973800e-02 5.457501e+03 
1.009000e-01 5.345406e+03 
1.020900e-01 5.231855e+03 
1.034000e-01 5.110533e+03 
1.046000e-01 5.002688e+03 
1.057200e-01 4.905726e+03 
1.069100e-01 4.806145e+03 
1.082500e-01 4.699333e+03 
1.093900e-01 4.612837e+03 
1.105400e-01 4.528906e+03 
1.116900e-01 4.450218e+03 
1.129600e-01 4.366833e+03 
1.142000e-01 4.290781e+03 
1.153300e-01 4.224716e+03 
1.166400e-01 4.152360e+03 
1.177800e-01 4.093180e+03 
1.190000e-01 4.032413e+03 
1.201200e-01 3.980197e+03 
1.213400e-01 3.925067e+03 
1.227100e-01 3.867073e+03 
1.238900e-01 3.818688e+03 
1.250700e-01 3.772331e+03 
1.263200e-01 3.724468e+03 
1.275500e-01 3.678690e+03 
1.287500e-01 3.634838e+03 
1.299900e-01 3.590214e+03 
1.311300e-01 3.549511e+03 
1.323500e-01 3.506016e+03 
1.335900e-01 3.461907e+03 
1.347100e-01 3.421736e+03 
1.359800e-01 3.376303e+03 
1.372100e-01 3.331553e+03 
1.384300e-01 3.287426e+03 
1.395700e-01 3.245347e+03 
1.407700e-01 3.201782e+03 
1.420300e-01 3.155000e+03 
1.432800e-01 3.109627e+03 
1.444500e-01 3.066555e+03 
1.456300e-01 3.024021e+03 
1.468900e-01 2.979196e+03 
1.480500e-01 2.938689e+03 
1.491700e-01 2.900463e+03 
1.503800e-01 2.860131e+03 
1.516400e-01 2.819202e+03 
1.528200e-01 2.782463e+03 
1.540200e-01 2.745844e+03 
1.551900e-01 2.711917e+03 
1.564300e-01 2.676926e+03 
1.576600e-01 2.643556e+03 
1.588700e-01 2.612142e+03 
1.600900e-01 2.581140e+03 
1.612700e-01 2.552913e+03 
1.625400e-01 2.523106e+03 
1.637600e-01 2.495561e+03 
1.649500e-01 2.469501e+03 
1.662200e-01 2.442267e+03 
1.674000e-01 2.417800e+03 
1.685000e-01 2.395374e+03 
1.697500e-01 2.370331e+03 
1.710300e-01 2.345162e+03 
1.722200e-01 2.322177e+03 
1.734400e-01 2.298707e+03 
1.746400e-01 2.276006e+03 
1.758700e-01 2.252981e+03 
1.770900e-01 2.230220e+03 
1.782700e-01 2.208574e+03 
1.794600e-01 2.186812e+03 
1.807000e-01 2.164320e+03 
1.819100e-01 2.142740e+03 
1.830100e-01 2.123108e+03 
1.842200e-01 2.101797e+03 
1.855000e-01 2.079621e+03 
1.867000e-01 2.058930e+03 
1.879200e-01 2.038236e+03 
1.890900e-01 2.018692e+03 
1.902800e-01 1.999057e+03 
1.915200e-01 1.978923e+03 
1.926900e-01 1.960238e+03 
1.939000e-01 1.941255e+03 
1.951700e-01 1.921650e+03 
1.963100e-01 1.904365e+03 
1.975100e-01 1.886554e+03 
1.987800e-01 1.867998e+03 
2.000100e-01 1.850370e+03 
2.012500e-01 1.833018e+03 
2.023400e-01 1.817984e+03 
2.036100e-01 1.800770e+03 
2.048900e-01 1.783873e+03 
2.060400e-01 1.768916e+03 
2.072200e-01 1.753799e+03 
2.084200e-01 1.738821e+03 
2.096900e-01 1.723203e+03 
2.109200e-01 1.708300e+03 
2.121100e-01 1.694192e+03 
2.132700e-01 1.680633e+03 
2.145200e-01 1.666226e+03 
2.157200e-01 1.652644e+03 
2.168800e-01 1.639716e+03 
2.180700e-01 1.626631e+03 
2.193400e-01 1.612855e+03 
2.206000e-01 1.599370e+03 
2.217500e-01 1.587228e+03 
2.229500e-01 1.574725e+03 
2.241400e-01 1.562441e+03 
2.253500e-01 1.550115e+03 
2.264900e-01 1.538652e+03 
2.277100e-01 1.526496e+03 
2.289900e-01 1.513865e+03 
2.301500e-01 1.502570e+03 
2.313600e-01 1.490937e+03 
2.325600e-01 1.479450e+03 
2.337700e-01 1.468017e+03 
2.350000e-01 1.456546e+03 
2.362000e-01 1.445454e+03 
2.374100e-01 1.434360e+03 
2.386500e-01 1.423137e+03 
2.399100e-01 1.411881e+03 
2.410400e-01 1.401873e+03 
2.422500e-01 1.391281e+03 
2.435000e-01 1.380477e+03 
2.447300e-01 1.369980e+03 
2.458700e-01 1.360362e+03 
2.470600e-01 1.350441e+03 
2.483300e-01 1.339984e+03 
2.495600e-01 1.330001e+03 
2.507600e-01 1.320405e+03 
2.519600e-01 1.310923e+03 
2.532200e-01 1.301087e+03 
2.543700e-01 1.292264e+03 
2.555500e-01 1.283345e+03 
2.568000e-01 1.274009e+03 
2.580100e-01 1.265079e+03 
2.592400e-01 1.256180e+03 
2.604100e-01 1.247844e+03 
2.616100e-01 1.239391e+03 
2.628400e-01 1.230825e+03 
2.640600e-01 1.222504e+03 
2.652200e-01 1.214711e+03 
2.664300e-01 1.206672e+03 
2.676500e-01 1.198657e+03 
2.688400e-01 1.190986e+03 
2.700700e-01 1.183182e+03 
2.712400e-01 1.175840e+03 
2.724800e-01 1.168144e+03 
2.736700e-01 1.160873e+03 
2.748800e-01 1.153593e+03 
2.761000e-01 1.146332e+03 
2.773200e-01 1.139151e+03 
2.785400e-01 1.132063e+03 
2.797000e-01 1.125426e+03 
2.808900e-01 1.118687e+03 
2.821400e-01 1.111685e+03 
2.833900e-01 1.104759e+03 
2.845500e-01 1.098423e+03 
2.857800e-01 1.091773e+03 
2.870300e-01 1.085087e+03 
2.882100e-01 1.078841e+03 
2.893900e-01 1.072671e+03 
2.906300e-01 1.066260e+03 
2.918900e-01 1.059815e+03 
2.930500e-01 1.053941e+03 
2.942500e-01 1.047925e+03 
2.954200e-01 1.042117e+03 
2.966500e-01 1.036072e+03 
2.978900e-01 1.030040e+03 
2.990400e-01 1.024501e+03 
3.002700e-01 1.018638e+03 
3.015100e-01 1.012789e+03 
3.026800e-01 1.007324e+03 
3.038500e-01 1.001910e+03 
3.050300e-01 9.965031e+02 
3.062600e-01 9.909219e+02 
3.075000e-01 9.853511e+02 
3.087000e-01 9.800126e+02 
3.099100e-01 9.746813e+02 
3.111200e-01 9.694040e+02 
3.123100e-01 9.642679e+02 
3.135300e-01 9.590524e+02 
3.147300e-01 9.539710e+02 
3.159900e-01 9.486868e+02 
3.171800e-01 9.437475e+02 
3.183700e-01 9.388563e+02 
3.196300e-01 9.337263e+02 
3.208400e-01 9.288466e+02 
3.220300e-01 9.240918e+02 
3.232000e-01 9.194704e+02 
3.244300e-01 9.146609e+02 
3.256700e-01 9.098576e+02 
3.269200e-01 9.050610e+02 
3.280800e-01 9.006500e+02 
3.292500e-01 8.962530e+02 
3.304800e-01 8.916759e+02 
3.317100e-01 8.871406e+02 
3.328900e-01 8.828285e+02 
3.340700e-01 8.785539e+02 
3.353600e-01 8.739399e+02 
3.365300e-01 8.697990e+02 
3.377100e-01 8.656586e+02 
3.389200e-01 8.614497e+02 
3.401600e-01 8.571747e+02 
3.413700e-01 8.530529e+02 
3.425300e-01 8.491440e+02 
3.437700e-01 8.450014e+02 
3.449800e-01 8.409943e+02 
3.461800e-01 8.370544e+02 
3.473600e-01 8.332209e+02 
3.485800e-01 8.293110e+02 
3.498100e-01 8.254029e+02 
3.510200e-01 8.215911e+02 
3.522000e-01 8.179049e+02 
3.533900e-01 8.142181e+02 
3.546400e-01 8.103996e+02 
3.558400e-01 8.067661e+02 
3.570600e-01 8.031027e+02 
3.582700e-01 7.994997e+02 
3.595000e-01 7.958676e+02 
3.607100e-01 7.923368e+02 
3.618900e-01 7.889312e+02 
3.631200e-01 7.854103e+02 
3.643200e-01 7.820033e+02 
3.655500e-01 7.785397e+02 
3.667300e-01 7.752436e+02 
3.679500e-01 7.718828e+02 
3.691900e-01 7.684949e+02 
3.703600e-01 7.653237e+02 
3.715700e-01 7.620698e+02 
3.727700e-01 7.588685e+02 
3.739900e-01 7.556477e+02 
3.752000e-01 7.524934e+02 
3.763900e-01 7.494156e+02 
3.775800e-01 7.463615e+02 
3.788200e-01 7.432041e+02 
3.800300e-01 7.401474e+02 
3.812100e-01 7.371960e+02 
3.824200e-01 7.341972e+02 
3.836100e-01 7.312705e+02 
3.848600e-01 7.282202e+02 
3.860400e-01 7.253628e+02 
3.872400e-01 7.224790e+02 
3.884600e-01 7.195817e+02 
3.896500e-01 7.167818e+02 
3.908700e-01 7.139329e+02 
3.920600e-01 7.111750e+02 
3.933100e-01 7.083001e+02 
3.945300e-01 7.055157e+02 
3.957200e-01 7.028263e+02 
3.969300e-01 7.001139e+02 
3.981700e-01 6.973551e+02 
3.993500e-01 6.947493e+02 
4.094840e-01 6.731319e+02 
4.272360e-01 6.384100e+02 
4.454600e-01 6.061862e+02 
4.630560e-01 5.778822e+02 
4.804610e-01 5.522480e+02 
4.980690e-01 5.284074e+02 
5.159230e-01 5.061726e+02 
5.317440e-01 4.879297e+02 
5.489640e-01 4.695101e+02 
5.671990e-01 4.515043e+02 
5.838690e-01 4.362411e+02 
6.018840e-01 4.209360e+02 
6.202330e-01 4.064964e+02 
6.379250e-01 3.935354e+02 
6.545410e-01 3.821851e+02 
6.714560e-01 3.713206e+02 
6.892080e-01 3.606421e+02 
7.066010e-01 3.507956e+02 
7.240540e-01 3.414682e+02 
7.420450e-01 3.324005e+02 
7.593780e-01 3.241238e+02 
7.764720e-01 3.163572e+02 
7.942840e-01 3.086555e+02 
8.116170e-01 3.014972e+02 
8.288310e-01 2.946971e+02 
8.462240e-01 2.881075e+02 
8.631980e-01 2.819264e+02 
8.810700e-01 2.756688e+02 
8.989410e-01 2.696494e+02 
9.166330e-01 2.639014e+02 
9.345640e-01 2.582759e+02 
9.515980e-01 2.531063e+02 
9.688720e-01 2.480266e+02 
9.865640e-01 2.429795e+02 
1.031870e+00 2.307617e+02 
1.063490e+00 2.227321e+02 
1.097920e+00 2.144806e+02 
1.134370e+00 2.061705e+02 
1.167730e+00 1.989646e+02 
1.203830e+00 1.915402e+02 
1.240470e+00 1.844087e+02 
1.275790e+00 1.778418e+02 
1.309140e+00 1.719532e+02 
1.342970e+00 1.662099e+02 
1.378420e+00 1.604960e+02 
1.413200e+00 1.551387e+02 
1.448110e+00 1.499856e+02 
1.484090e+00 1.449351e+02 
1.518820e+00 1.402565e+02 
1.552880e+00 1.358769e+02 
1.588630e+00 1.314648e+02 
1.623230e+00 1.273912e+02 
1.657720e+00 1.234965e+02 
1.692450e+00 1.197576e+02 
1.726400e+00 1.162209e+02 
1.762200e+00 1.126433e+02 
1.797880e+00 1.092396e+02 
1.833270e+00 1.059880e+02 
1.869070e+00 1.028444e+02 
1.903200e+00 9.996357e+01 
1.937740e+00 9.715776e+01 
1.973190e+00 9.438598e+01 
2.007440e+00 9.181448e+01 
2.042160e+00 8.931215e+01 
2.077900e+00 8.681986e+01 
2.112390e+00 8.451697e+01 
2.146220e+00 8.232192e+01 
2.181600e+00 8.011981e+01 
2.216930e+00 7.800278e+01 
2.250760e+00 7.603881e+01 
2.286500e+00 7.403496e+01 
2.321770e+00 7.213796e+01 
2.355950e+00 7.037090e+01 
2.391280e+00 6.859354e+01 
2.426240e+00 6.689411e+01 
2.460670e+00 6.527641e+01 
2.495640e+00 6.368834e+01 
2.531080e+00 6.213984e+01 
2.566220e+00 6.064767e+01 
2.600830e+00 5.922731e+01 
2.635080e+00 5.787130e+01 
2.670340e+00 5.650918e+01 
2.705970e+00 5.518268e+01 
2.740040e+00 5.395701e+01 
2.774520e+00 5.275256e+01 
2.809730e+00 5.156029e+01 
2.844390e+00 5.042281e+01 
2.879960e+00 4.929023e+01 
2.914860e+00 4.821246e+01 
2.949410e+00 4.717745e+01 
2.984440e+00 4.615796e+01 
3.019760e+00 4.516394e+01 
3.054730e+00 4.421066e+01 
3.089030e+00 4.329629e+01 
3.124060e+00 4.239149e+01 
3.159560e+00 4.150388e+01 
3.194710e+00 4.064552e+01 
3.229010e+00 3.983063e+01 
3.263320e+00 3.904146e+01 
3.297930e+00 3.826718e+01 
3.332830e+00 3.750729e+01 
3.368040e+00 3.676139e+01 
3.403300e+00 3.603474e+01 
3.438450e+00 3.532942e+01 
3.473060e+00 3.465352e+01 
3.508440e+00 3.398412e+01 
3.543110e+00 3.334505e+01 
3.577470e+00 3.272461e+01 
3.613040e+00 3.209981e+01 
3.648120e+00 3.150168e+01 
3.682910e+00 3.092356e+01 
3.718050e+00 3.035420e+01 
3.753320e+00 2.979705e+01 
3.787980e+00 2.926293e+01 
3.822290e+00 2.874822e+01 
3.857020e+00 2.824149e+01 
3.891920e+00 2.774349e+01 
3.926650e+00 2.725777e+01 
3.961970e+00 2.677647e+01 
3.997360e+00 2.630766e+01 
4.031670e+00 2.586386e+01 
4.066330e+00 2.542576e+01 
4.101420e+00 2.499263e+01 
4.136200e+00 2.457500e+01 
4.170810e+00 2.416888e+01 
4.206250e+00 2.376227e+01 
4.241580e+00 2.336617e+01 
4.276300e+00 2.298611e+01 
4.310970e+00 2.261524e+01 
4.346120e+00 2.224783e+01 
4.380600e+00 2.189578e+01 
4.414730e+00 2.155478e+01 
4.450350e+00 2.120707e+01 
4.485320e+00 2.087311e+01 
4.519810e+00 2.055125e+01 
4.555430e+00 2.022614e+01 
4.590870e+00 1.990982e+01 
4.625480e+00 1.960783e+01 
4.659910e+00 1.931356e+01 
4.695230e+00 1.901853e+01 
4.729960e+00 1.873446e+01 
4.764450e+00 1.845832e+01 
4.799530e+00 1.818356e+01 
4.834910e+00 1.791204e+01 
4.869700e+00 1.765099e+01 
4.904370e+00 1.739606e+01 
4.939450e+00 1.714336e+01 
4.973940e+00 1.690025e+01 
5.008430e+00 1.666180e+01 
5.043810e+00 1.642239e+01 
5.078840e+00 1.619022e+01 
5.113500e+00 1.596484e+01 
5.148890e+00 1.573968e+01 
5.184210e+00 1.551926e+01 
5.219060e+00 1.530603e+01 
5.253660e+00 1.509875e+01 
5.288570e+00 1.489345e+01 
5.323420e+00 1.469256e+01 
5.358440e+00 1.449473e+01 
5.393590e+00 1.429976e+01 
5.428310e+00 1.411107e+01 
5.462800e+00 1.392719e+01 
5.497640e+00 1.374471e+01 
5.532670e+00 1.356497e+01 
5.567280e+00 1.339066e+01 
5.602000e+00 1.321881e+01 
5.637270e+00 1.304775e+01 
5.672410e+00 1.288038e+01 
5.707020e+00 1.271835e+01 
5.742040e+00 1.255773e+01 
5.777430e+00 1.239828e+01 
5.812210e+00 1.224423e+01 
5.846820e+00 1.209387e+01 
5.881610e+00 1.194531e+01 
5.916510e+00 1.179874e+01 
5.951600e+00 1.165427e+01 
5.986560e+00 1.151290e+01 
6.021830e+00 1.137260e+01 
6.056490e+00 1.123724e+01 
6.091160e+00 1.110425e+01 
6.125830e+00 1.097337e+01 
6.161090e+00 1.084253e+01 
6.195760e+00 1.071623e+01 
6.230420e+00 1.059194e+01 
6.265690e+00 1.046746e+01 
6.300950e+00 1.034555e+01 
6.335620e+00 1.022754e+01 
6.370880e+00 1.010936e+01 
6.405550e+00 9.995232e+00 
6.440220e+00 9.882949e+00 
6.475480e+00 9.770485e+00 
6.510150e+00 9.661723e+00 
6.544810e+00 9.554956e+00 
6.580080e+00 9.447928e+00 
6.614750e+00 9.344283e+00 
6.649410e+00 9.242541e+00 
6.684080e+00 9.142321e+00 
6.719340e+00 9.041885e+00 
6.754010e+00 8.944688e+00 
6.788680e+00 8.849172e+00 
6.823940e+00 8.753429e+00 
6.859800e+00 8.657474e+00 
6.894470e+00 8.566316e+00 
6.929140e+00 8.476542e+00 
6.963800e+00 8.388048e+00 
6.999070e+00 8.299288e+00 
7.033730e+00 8.213674e+00 
7.068400e+00 8.129216e+00 
7.103660e+00 8.044508e+00 
7.138330e+00 7.962480e+00 
7.173600e+00 7.880413e+00 
7.208260e+00 7.800866e+00 
7.243530e+00 7.721017e+00 
7.277600e+00 7.645096e+00 
7.312860e+00 7.567732e+00 
7.348120e+00 7.491413e+00 
7.382790e+00 7.417371e+00 
7.417460e+00 7.344526e+00 
7.452720e+00 7.271535e+00 
7.487390e+00 7.200708e+00 
7.522650e+00 7.129619e+00 
7.557320e+00 7.060860e+00 
7.591990e+00 6.993070e+00 
7.627250e+00 6.925017e+00 
7.662510e+00 6.857845e+00 
7.697180e+00 6.792860e+00 
7.731850e+00 6.728780e+00 
7.766510e+00 6.665523e+00 
7.801180e+00 6.603040e+00 
7.836440e+00 6.540455e+00 
7.871110e+00 6.479789e+00 
7.906380e+00 6.418842e+00 
7.941040e+00 6.359692e+00 
7.976310e+00 6.300366e+00 
8.011570e+00 6.241936e+00 
8.046240e+00 6.185187e+00 
8.080900e+00 6.129141e+00 
8.115570e+00 6.073815e+00 
8.150830e+00 6.018460e+00 
8.185500e+00 5.964687e+00 
8.220770e+00 5.910639e+00 
8.255430e+00 5.858161e+00 
8.290100e+00 5.806482e+00 
8.324770e+00 5.755432e+00 
8.359430e+00 5.704994e+00 
8.394700e+00 5.654272e+00 
8.429960e+00 5.604280e+00 
8.464630e+00 5.555817e+00 
8.499890e+00 5.507101e+00 
8.534560e+00 5.459754e+00 
8.569200e+00 5.412989e+00 
