# Parameters:
# omega_b = 0.022350, omega_m = 0.129370, n_s = 0.868898, h = 65.393701, w = -1.000000, sigma_8 = 0.701575
# z = 0.700000
#
# k[1/Mpc] # P(k):
8.694000e-04 1.231529e+04 
2.077466e-03 2.399424e+04 
3.285532e-03 3.222167e+04 
4.493598e-03 3.797655e+04 
5.701664e-03 4.183146e+04 
6.909730e-03 4.420351e+04 
8.117797e-03 4.548027e+04 
9.325863e-03 4.586471e+04 
1.053393e-02 4.554336e+04 
1.174199e-02 4.468077e+04 
1.295006e-02 4.337805e+04 
1.415813e-02 4.176284e+04 
1.536619e-02 3.994128e+04 
1.657426e-02 3.799211e+04 
1.778233e-02 3.602529e+04 
1.899039e-02 3.415634e+04 
2.019846e-02 3.233395e+04 
2.140652e-02 3.053679e+04 
2.261459e-02 2.880829e+04 
2.382266e-02 2.719185e+04 
2.503072e-02 2.570400e+04 
2.623879e-02 2.434656e+04 
2.744685e-02 2.311755e+04 
2.865492e-02 2.201269e+04 
2.986299e-02 2.102280e+04 
3.100100e-02 2.019063e+04 
3.220400e-02 1.940463e+04 
3.288100e-02 1.900294e+04 
3.424300e-02 1.827019e+04 
3.555100e-02 1.764629e+04 
3.686000e-02 1.708839e+04 
3.795000e-02 1.666410e+04 
3.929100e-02 1.618349e+04 
4.039800e-02 1.581073e+04 
4.164000e-02 1.541097e+04 
4.294400e-02 1.499978e+04 
4.415000e-02 1.462679e+04 
4.542900e-02 1.422524e+04 
4.660900e-02 1.385467e+04 
4.782300e-02 1.345868e+04 
4.892900e-02 1.309444e+04 
5.031200e-02 1.263010e+04 
5.155900e-02 1.220268e+04 
5.238100e-02 1.191902e+04 
5.378200e-02 1.143526e+04 
5.513400e-02 1.096993e+04 
5.627600e-02 1.058201e+04 
5.735300e-02 1.022408e+04 
5.870100e-02 9.790199e+03 
5.988700e-02 9.424980e+03 
6.113500e-02 9.059230e+03 
6.225900e-02 8.748019e+03 
6.340100e-02 8.451019e+03 
6.480200e-02 8.112575e+03 
6.601100e-02 7.845734e+03 
6.725500e-02 7.594634e+03 
6.829100e-02 7.404983e+03 
6.958600e-02 7.187908e+03 
7.071100e-02 7.018480e+03 
7.192300e-02 6.853103e+03 
7.307400e-02 6.711059e+03 
7.412300e-02 6.592827e+03 
7.550400e-02 6.452280e+03 
7.663100e-02 6.346803e+03 
7.791200e-02 6.236719e+03 
7.912700e-02 6.138319e+03 
8.027600e-02 6.048479e+03 
8.138400e-02 5.963458e+03 
8.272200e-02 5.861168e+03 
8.406100e-02 5.757635e+03 
8.534100e-02 5.654732e+03 
8.653800e-02 5.554162e+03 
8.759800e-02 5.462712e+03 
8.900300e-02 5.337237e+03 
9.009000e-02 5.236356e+03 
9.113300e-02 5.136313e+03 
9.239600e-02 5.014014e+03 
9.358000e-02 4.897559e+03 
9.496100e-02 4.760072e+03 
9.608400e-02 4.649418e+03 
9.727500e-02 4.533898e+03 
9.852600e-02 4.414494e+03 
9.973800e-02 4.302893e+03 
1.009000e-01 4.199530e+03 
1.020900e-01 4.099395e+03 
1.034000e-01 3.994656e+03 
1.046000e-01 3.903845e+03 
1.057200e-01 3.825902e+03 
1.069100e-01 3.747157e+03 
1.082500e-01 3.666285e+03 
1.093900e-01 3.602774e+03 
1.105400e-01 3.542293e+03 
1.116900e-01 3.487789e+03 
1.129600e-01 3.430620e+03 
1.142000e-01 3.379715e+03 
1.153300e-01 3.335547e+03 
1.166400e-01 3.287276e+03 
1.177800e-01 3.247071e+03 
1.190000e-01 3.205430e+03 
1.201200e-01 3.167745e+03 
1.213400e-01 3.127596e+03 
1.227100e-01 3.081688e+03 
1.238900e-01 3.042553e+03 
1.250700e-01 3.002340e+03 
1.263200e-01 2.959832e+03 
1.275500e-01 2.916967e+03 
1.287500e-01 2.875054e+03 
1.299900e-01 2.831060e+03 
1.311300e-01 2.790629e+03 
1.323500e-01 2.746970e+03 
1.335900e-01 2.702954e+03 
1.347100e-01 2.663187e+03 
1.359800e-01 2.618785e+03 
1.372100e-01 2.576119e+03 
1.384300e-01 2.534697e+03 
1.395700e-01 2.496635e+03 
1.407700e-01 2.457475e+03 
1.420300e-01 2.417539e+03 
1.432800e-01 2.378838e+03 
1.444500e-01 2.344043e+03 
1.456300e-01 2.309696e+03 
1.468900e-01 2.274646e+03 
1.480500e-01 2.243311e+03 
1.491700e-01 2.214142e+03 
1.503800e-01 2.183879e+03 
1.516400e-01 2.153247e+03 
1.528200e-01 2.126109e+03 
1.540200e-01 2.099055e+03 
1.551900e-01 2.073995e+03 
1.564300e-01 2.048148e+03 
1.576600e-01 2.023352e+03 
1.588700e-01 1.999834e+03 
1.600900e-01 1.976592e+03 
1.612700e-01 1.954902e+03 
1.625400e-01 1.931998e+03 
1.637600e-01 1.910426e+03 
1.649500e-01 1.889777e+03 
1.662200e-01 1.868102e+03 
1.674000e-01 1.848078e+03 
1.685000e-01 1.829727e+03 
1.697500e-01 1.808979e+03 
1.710300e-01 1.787870e+03 
1.722200e-01 1.768601e+03 
1.734400e-01 1.748598e+03 
1.746400e-01 1.729244e+03 
1.758700e-01 1.709591e+03 
1.770900e-01 1.690110e+03 
1.782700e-01 1.671592e+03 
1.794600e-01 1.653029e+03 
1.807000e-01 1.633884e+03 
1.819100e-01 1.615527e+03 
1.830100e-01 1.599022e+03 
1.842200e-01 1.581145e+03 
1.855000e-01 1.562566e+03 
1.867000e-01 1.545541e+03 
1.879200e-01 1.528519e+03 
1.890900e-01 1.512500e+03 
1.902800e-01 1.496673e+03 
1.915200e-01 1.480450e+03 
1.926900e-01 1.465465e+03 
1.939000e-01 1.450459e+03 
1.951700e-01 1.434965e+03 
1.963100e-01 1.421359e+03 
1.975100e-01 1.407476e+03 
1.987800e-01 1.393015e+03 
2.000100e-01 1.379306e+03 
2.012500e-01 1.365875e+03 
2.023400e-01 1.354240e+03 
2.036100e-01 1.340916e+03 
2.048900e-01 1.327827e+03 
2.060400e-01 1.316243e+03 
2.072200e-01 1.304529e+03 
2.084200e-01 1.292842e+03 
2.096900e-01 1.280656e+03 
2.109200e-01 1.269031e+03 
2.121100e-01 1.257898e+03 
2.132700e-01 1.247194e+03 
2.145200e-01 1.235823e+03 
2.157200e-01 1.225002e+03 
2.168800e-01 1.214657e+03 
2.180700e-01 1.204189e+03 
2.193400e-01 1.193122e+03 
2.206000e-01 1.182203e+03 
2.217500e-01 1.172374e+03 
2.229500e-01 1.162255e+03 
2.241400e-01 1.152207e+03 
2.253500e-01 1.142124e+03 
2.264900e-01 1.132750e+03 
2.277100e-01 1.122779e+03 
2.289900e-01 1.112383e+03 
2.301500e-01 1.103089e+03 
2.313600e-01 1.093520e+03 
2.325600e-01 1.084034e+03 
2.337700e-01 1.074596e+03 
2.350000e-01 1.065129e+03 
2.362000e-01 1.055975e+03 
2.374100e-01 1.046815e+03 
2.386500e-01 1.037553e+03 
2.399100e-01 1.028267e+03 
2.410400e-01 1.020026e+03 
2.422500e-01 1.011309e+03 
2.435000e-01 1.002421e+03 
2.447300e-01 9.937950e+02 
2.458700e-01 9.859202e+02 
2.470600e-01 9.778002e+02 
2.483300e-01 9.692452e+02 
2.495600e-01 9.611006e+02 
2.507600e-01 9.533001e+02 
2.519600e-01 9.455953e+02 
2.532200e-01 9.376066e+02 
2.543700e-01 9.304741e+02 
2.555500e-01 9.232884e+02 
2.568000e-01 9.157690e+02 
2.580100e-01 9.085793e+02 
2.592400e-01 9.014551e+02 
2.604100e-01 8.948005e+02 
2.616100e-01 8.880542e+02 
2.628400e-01 8.812208e+02 
2.640600e-01 8.746216e+02 
2.652200e-01 8.684574e+02 
2.664300e-01 8.621001e+02 
2.676500e-01 8.557642e+02 
2.688400e-01 8.497260e+02 
2.700700e-01 8.436004e+02 
2.712400e-01 8.378387e+02 
2.724800e-01 8.318006e+02 
2.736700e-01 8.261118e+02 
2.748800e-01 8.204331e+02 
2.761000e-01 8.147710e+02 
2.773200e-01 8.091716e+02 
2.785400e-01 8.036515e+02 
2.797000e-01 7.984959e+02 
2.808900e-01 7.932625e+02 
2.821400e-01 7.878250e+02 
2.833900e-01 7.824490e+02 
2.845500e-01 7.775395e+02 
2.857800e-01 7.723884e+02 
2.870300e-01 7.672104e+02 
2.882100e-01 7.623740e+02 
2.893900e-01 7.575983e+02 
2.906300e-01 7.526382e+02 
2.918900e-01 7.476522e+02 
2.930500e-01 7.431095e+02 
2.942500e-01 7.384581e+02 
2.954200e-01 7.339704e+02 
2.966500e-01 7.293005e+02 
2.978900e-01 7.246416e+02 
2.990400e-01 7.203642e+02 
3.002700e-01 7.158386e+02 
3.015100e-01 7.113249e+02 
3.026800e-01 7.071086e+02 
3.038500e-01 7.029331e+02 
3.050300e-01 6.987626e+02 
3.062600e-01 6.944609e+02 
3.075000e-01 6.901680e+02 
3.087000e-01 6.860547e+02 
3.099100e-01 6.819476e+02 
3.111200e-01 6.778845e+02 
3.123100e-01 6.739337e+02 
3.135300e-01 6.699222e+02 
3.147300e-01 6.660146e+02 
3.159900e-01 6.619517e+02 
3.171800e-01 6.581581e+02 
3.183700e-01 6.544043e+02 
3.196300e-01 6.504678e+02 
3.208400e-01 6.467240e+02 
3.220300e-01 6.430765e+02 
3.232000e-01 6.395363e+02 
3.244300e-01 6.358541e+02 
3.256700e-01 6.321772e+02 
3.269200e-01 6.285060e+02 
3.280800e-01 6.251305e+02 
3.292500e-01 6.217702e+02 
3.304800e-01 6.182742e+02 
3.317100e-01 6.148106e+02 
3.328900e-01 6.115179e+02 
3.340700e-01 6.082542e+02 
3.353600e-01 6.047372e+02 
3.365300e-01 6.015831e+02 
3.377100e-01 5.984298e+02 
3.389200e-01 5.952247e+02 
3.401600e-01 5.919698e+02 
3.413700e-01 5.888351e+02 
3.425300e-01 5.858650e+02 
3.437700e-01 5.827177e+02 
3.449800e-01 5.796737e+02 
3.461800e-01 5.766811e+02 
3.473600e-01 5.737710e+02 
3.485800e-01 5.708064e+02 
3.498100e-01 5.678436e+02 
3.510200e-01 5.649542e+02 
3.522000e-01 5.621603e+02 
3.533900e-01 5.593662e+02 
3.546400e-01 5.564779e+02 
3.558400e-01 5.537302e+02 
3.570600e-01 5.509601e+02 
3.582700e-01 5.482360e+02 
3.595000e-01 5.454902e+02 
3.607100e-01 5.428233e+02 
3.618900e-01 5.402528e+02 
3.631200e-01 5.375956e+02 
3.643200e-01 5.350246e+02 
3.655500e-01 5.324110e+02 
3.667300e-01 5.299242e+02 
3.679500e-01 5.273936e+02 
3.691900e-01 5.248427e+02 
3.703600e-01 5.224553e+02 
3.715700e-01 5.200059e+02 
3.727700e-01 5.175962e+02 
3.739900e-01 5.151730e+02 
3.752000e-01 5.128017e+02 
3.763900e-01 5.104880e+02 
3.775800e-01 5.081923e+02 
3.788200e-01 5.058193e+02 
3.800300e-01 5.035221e+02 
3.812100e-01 5.013064e+02 
3.824200e-01 4.990570e+02 
3.836100e-01 4.968618e+02 
3.848600e-01 4.945740e+02 
3.860400e-01 4.924311e+02 
3.872400e-01 4.902685e+02 
3.884600e-01 4.880979e+02 
3.896500e-01 4.860011e+02 
3.908700e-01 4.838677e+02 
3.920600e-01 4.818027e+02 
3.933100e-01 4.796501e+02 
3.945300e-01 4.775654e+02 
3.957200e-01 4.755563e+02 
3.969300e-01 4.735311e+02 
3.981700e-01 4.714715e+02 
3.993500e-01 4.695261e+02 
4.094840e-01 4.534079e+02 
4.272360e-01 4.276242e+02 
4.454600e-01 4.038322e+02 
4.630560e-01 3.830570e+02 
4.804610e-01 3.643349e+02 
4.980690e-01 3.470124e+02 
5.159230e-01 3.309198e+02 
5.317440e-01 3.177642e+02 
5.489640e-01 3.045194e+02 
5.671990e-01 2.916072e+02 
5.838690e-01 2.806879e+02 
6.018840e-01 2.697618e+02 
6.202330e-01 2.594872e+02 
6.379250e-01 2.502837e+02 
6.545410e-01 2.422507e+02 
6.714560e-01 2.345872e+02 
6.892080e-01 2.270773e+02 
7.066010e-01 2.201887e+02 
7.240540e-01 2.136916e+02 
7.420450e-01 2.074098e+02 
7.593780e-01 2.017064e+02 
7.764720e-01 1.963846e+02 
7.942840e-01 1.911395e+02 
8.116170e-01 1.863023e+02 
8.288310e-01 1.817367e+02 
8.462240e-01 1.773406e+02 
8.631980e-01 1.732453e+02 
8.810700e-01 1.691276e+02 
8.989410e-01 1.651935e+02 
9.166330e-01 1.614627e+02 
9.345640e-01 1.578382e+02 
9.515980e-01 1.545292e+02 
9.688720e-01 1.512982e+02 
9.865640e-01 1.481110e+02 
1.031870e+00 1.404615e+02 
1.063490e+00 1.354986e+02 
1.097920e+00 1.304429e+02 
1.134370e+00 1.253924e+02 
1.167730e+00 1.210478e+02 
1.203830e+00 1.166020e+02 
1.240470e+00 1.123546e+02 
1.275790e+00 1.084644e+02 
1.309140e+00 1.049875e+02 
1.342970e+00 1.016121e+02 
1.378420e+00 9.826029e+01 
1.413200e+00 9.512566e+01 
1.448110e+00 9.211733e+01 
1.484090e+00 8.917237e+01 
1.518820e+00 8.644619e+01 
1.552880e+00 8.389683e+01 
1.588630e+00 8.132752e+01 
1.623230e+00 7.895617e+01 
1.657720e+00 7.668853e+01 
1.692450e+00 7.451124e+01 
1.726400e+00 7.245059e+01 
1.762200e+00 7.036467e+01 
1.797880e+00 6.837774e+01 
1.833270e+00 6.647687e+01 
1.869070e+00 6.463817e+01 
1.903200e+00 6.295056e+01 
1.937740e+00 6.130439e+01 
1.973190e+00 5.967661e+01 
2.007440e+00 5.816312e+01 
2.042160e+00 5.668894e+01 
2.077900e+00 5.521738e+01 
2.112390e+00 5.385592e+01 
2.146220e+00 5.255480e+01 
2.181600e+00 5.124864e+01 
2.216930e+00 4.998977e+01 
2.250760e+00 4.881971e+01 
2.286500e+00 4.762376e+01 
2.321770e+00 4.648925e+01 
2.355950e+00 4.543080e+01 
2.391280e+00 4.436428e+01 
2.426240e+00 4.334197e+01 
2.460670e+00 4.236675e+01 
2.495640e+00 4.140771e+01 
2.531080e+00 4.047099e+01 
2.566220e+00 3.956571e+01 
2.600830e+00 3.870240e+01 
2.635080e+00 3.787706e+01 
2.670340e+00 3.704570e+01 
2.705970e+00 3.623442e+01 
2.740040e+00 3.548353e+01 
2.774520e+00 3.474456e+01 
2.809730e+00 3.401122e+01 
2.844390e+00 3.331027e+01 
2.879960e+00 3.261079e+01 
2.914860e+00 3.194360e+01 
2.949410e+00 3.130181e+01 
2.984440e+00 3.066813e+01 
3.019760e+00 3.004929e+01 
3.054730e+00 2.945499e+01 
3.089030e+00 2.888304e+01 
3.124060e+00 2.831632e+01 
3.159560e+00 2.775946e+01 
3.194710e+00 2.721951e+01 
3.229010e+00 2.670619e+01 
3.263320e+00 2.620790e+01 
3.297930e+00 2.571834e+01 
3.332830e+00 2.523684e+01 
3.368040e+00 2.476330e+01 
3.403300e+00 2.430124e+01 
3.438450e+00 2.385161e+01 
3.473060e+00 2.342026e+01 
3.508440e+00 2.299203e+01 
3.543110e+00 2.258278e+01 
3.577470e+00 2.218427e+01 
3.613040e+00 2.178255e+01 
3.648120e+00 2.139722e+01 
3.682910e+00 2.102429e+01 
3.718050e+00 2.065627e+01 
3.753320e+00 2.029558e+01 
3.787980e+00 1.994910e+01 
3.822290e+00 1.961478e+01 
3.857020e+00 1.928509e+01 
3.891920e+00 1.896062e+01 
3.926650e+00 1.864344e+01 
3.961970e+00 1.832880e+01 
3.997360e+00 1.802173e+01 
4.031670e+00 1.773077e+01 
4.066330e+00 1.744287e+01 
4.101420e+00 1.715809e+01 
4.136200e+00 1.688283e+01 
4.170810e+00 1.661505e+01 
4.206250e+00 1.634631e+01 
4.241580e+00 1.608432e+01 
4.276300e+00 1.583248e+01 
4.310970e+00 1.558644e+01 
4.346120e+00 1.534241e+01 
4.380600e+00 1.510817e+01 
4.414730e+00 1.488119e+01 
4.450350e+00 1.464915e+01 
4.485320e+00 1.442621e+01 
4.519810e+00 1.421095e+01 
4.555430e+00 1.399330e+01 
4.590870e+00 1.378133e+01 
4.625480e+00 1.357864e+01 
4.659910e+00 1.338108e+01 
4.695230e+00 1.318256e+01 
4.729960e+00 1.299132e+01 
4.764450e+00 1.280523e+01 
4.799530e+00 1.261979e+01 
4.834910e+00 1.243650e+01 
4.869700e+00 1.225992e+01 
4.904370e+00 1.208738e+01 
4.939450e+00 1.191623e+01 
4.973940e+00 1.175130e+01 
5.008430e+00 1.158948e+01 
5.043810e+00 1.142681e+01 
5.078840e+00 1.126890e+01 
5.113500e+00 1.111559e+01 
5.148890e+00 1.096214e+01 
5.184210e+00 1.081188e+01 
5.219060e+00 1.066643e+01 
5.253660e+00 1.052484e+01 
5.288570e+00 1.038456e+01 
5.323420e+00 1.024717e+01 
5.358440e+00 1.011172e+01 
5.393590e+00 9.978211e+00 
5.428310e+00 9.848856e+00 
5.462800e+00 9.722700e+00 
5.497640e+00 9.597488e+00 
5.532670e+00 9.474011e+00 
5.567280e+00 9.354198e+00 
5.602000e+00 9.236065e+00 
5.637270e+00 9.118321e+00 
5.672410e+00 9.003075e+00 
5.707020e+00 8.891491e+00 
5.742040e+00 8.780741e+00 
5.777430e+00 8.670767e+00 
5.812210e+00 8.564499e+00 
5.846820e+00 8.460662e+00 
5.881610e+00 8.358040e+00 
5.916510e+00 8.256779e+00 
5.951600e+00 8.156877e+00 
5.986560e+00 8.059074e+00 
6.021830e+00 7.962005e+00 
6.056490e+00 7.868300e+00 
6.091160e+00 7.776183e+00 
6.125830e+00 7.685517e+00 
6.161090e+00 7.594845e+00 
6.195760e+00 7.507259e+00 
6.230420e+00 7.421057e+00 
6.265690e+00 7.334716e+00 
6.300950e+00 7.250076e+00 
6.335620e+00 7.168132e+00 
6.370880e+00 7.086070e+00 
6.405550e+00 7.006787e+00 
6.440220e+00 6.928768e+00 
6.475480e+00 6.850617e+00 
6.510150e+00 6.775016e+00 
6.544810e+00 6.700758e+00 
6.580080e+00 6.626316e+00 
6.614750e+00 6.554221e+00 
6.649410e+00 6.483413e+00 
6.684080e+00 6.413655e+00 
6.719340e+00 6.343741e+00 
6.754010e+00 6.276073e+00 
6.788680e+00 6.209558e+00 
6.823940e+00 6.142880e+00 
6.859800e+00 6.076052e+00 
6.894470e+00 6.012544e+00 
6.929140e+00 5.949991e+00 
6.963800e+00 5.888327e+00 
6.999070e+00 5.826473e+00 
7.033730e+00 5.766802e+00 
7.068400e+00 5.707932e+00 
7.103660e+00 5.648887e+00 
7.138330e+00 5.591701e+00 
7.173600e+00 5.534478e+00 
7.208260e+00 5.479008e+00 
7.243530e+00 5.423325e+00 
7.277600e+00 5.370380e+00 
7.312860e+00 5.316427e+00 
7.348120e+00 5.263199e+00 
7.382790e+00 5.211557e+00 
7.417460e+00 5.160753e+00 
7.452720e+00 5.109846e+00 
7.487390e+00 5.060447e+00 
7.522650e+00 5.010862e+00 
7.557320e+00 4.962905e+00 
7.591990e+00 4.915623e+00 
7.627250e+00 4.868155e+00 
7.662510e+00 4.821300e+00 
7.697180e+00 4.775977e+00 
7.731850e+00 4.731285e+00 
7.766510e+00 4.687166e+00 
7.801180e+00 4.643584e+00 
7.836440e+00 4.599936e+00 
7.871110e+00 4.557627e+00 
7.906380e+00 4.515119e+00 
7.941040e+00 4.473864e+00 
7.976310e+00 4.432494e+00 
8.011570e+00 4.391760e+00 
8.046240e+00 4.352197e+00 
8.080900e+00 4.313120e+00 
8.115570e+00 4.274547e+00 
8.150830e+00 4.235959e+00 
8.185500e+00 4.198472e+00 
8.220770e+00 4.160791e+00 
8.255430e+00 4.124202e+00 
8.290100e+00 4.088194e+00 
8.324770e+00 4.052626e+00 
8.359430e+00 4.017481e+00 
8.394700e+00 3.982137e+00 
8.429960e+00 3.947307e+00 
8.464630e+00 3.913549e+00 
8.499890e+00 3.879613e+00 
8.534560e+00 3.846629e+00 
8.569200e+00 3.814047e+00 
