# Parameters:
# omega_b = 0.022870, omega_m = 0.137913, n_s = 0.990157, h = 62.322835, w = -1.000000, sigma_8 = 0.829134
# z = 0.700000
#
# k[1/Mpc] # P(k):
8.694000e-04 8.301931e+03 
2.077466e-03 1.809711e+04 
3.285532e-03 2.585525e+04 
4.493598e-03 3.188826e+04 
5.701664e-03 3.640425e+04 
6.909730e-03 3.963545e+04 
8.117797e-03 4.185458e+04 
9.325863e-03 4.320141e+04 
1.053393e-02 4.381580e+04 
1.174199e-02 4.382956e+04 
1.295006e-02 4.332635e+04 
1.415813e-02 4.242335e+04 
1.536619e-02 4.122227e+04 
1.657426e-02 3.979913e+04 
1.778233e-02 3.825444e+04 
1.899039e-02 3.671853e+04 
2.019846e-02 3.517561e+04 
2.140652e-02 3.361285e+04 
2.261459e-02 3.206714e+04 
2.382266e-02 3.058597e+04 
2.503072e-02 2.919438e+04 
2.623879e-02 2.790129e+04 
2.744685e-02 2.670917e+04 
2.865492e-02 2.562179e+04 
2.986299e-02 2.463477e+04 
3.100100e-02 2.379481e+04 
3.220400e-02 2.299336e+04 
3.288100e-02 2.258058e+04 
3.424300e-02 2.182241e+04 
3.555100e-02 2.117228e+04 
3.686000e-02 2.058774e+04 
3.795000e-02 2.014162e+04 
3.929100e-02 1.963539e+04 
4.039800e-02 1.924260e+04 
4.164000e-02 1.882149e+04 
4.294400e-02 1.838907e+04 
4.415000e-02 1.799714e+04 
4.542900e-02 1.757563e+04 
4.660900e-02 1.718649e+04 
4.782300e-02 1.677014e+04 
4.892900e-02 1.638624e+04 
5.031200e-02 1.589492e+04 
5.155900e-02 1.544001e+04 
5.238100e-02 1.513640e+04 
5.378200e-02 1.461513e+04 
5.513400e-02 1.410849e+04 
5.627600e-02 1.368161e+04 
5.735300e-02 1.328368e+04 
5.870100e-02 1.279544e+04 
5.988700e-02 1.237905e+04 
6.113500e-02 1.195642e+04 
6.225900e-02 1.159161e+04 
6.340100e-02 1.123850e+04 
6.480200e-02 1.083043e+04 
6.601100e-02 1.050289e+04 
6.725500e-02 1.018998e+04 
6.829100e-02 9.949925e+03 
6.958600e-02 9.672110e+03 
7.071100e-02 9.452452e+03 
7.192300e-02 9.236020e+03 
7.307400e-02 9.048775e+03 
7.412300e-02 8.892311e+03 
7.550400e-02 8.706227e+03 
7.663100e-02 8.567073e+03 
7.791200e-02 8.423522e+03 
7.912700e-02 8.297625e+03 
8.027600e-02 8.184806e+03 
8.138400e-02 8.079934e+03 
8.272200e-02 7.956333e+03 
8.406100e-02 7.833616e+03 
8.534100e-02 7.713700e+03 
8.653800e-02 7.597377e+03 
8.759800e-02 7.491761e+03 
8.900300e-02 7.346680e+03 
9.009000e-02 7.229440e+03 
9.113300e-02 7.112268e+03 
9.239600e-02 6.968053e+03 
9.358000e-02 6.829401e+03 
9.496100e-02 6.663632e+03 
9.608400e-02 6.528915e+03 
9.727500e-02 6.387192e+03 
9.852600e-02 6.238512e+03 
9.973800e-02 6.098433e+03 
1.009000e-01 5.967758e+03 
1.020900e-01 5.839256e+03 
1.034000e-01 5.703863e+03 
1.046000e-01 5.585489e+03 
1.057200e-01 5.482372e+03 
1.069100e-01 5.377593e+03 
1.082500e-01 5.268446e+03 
1.093900e-01 5.181794e+03 
1.105400e-01 5.098706e+03 
1.116900e-01 5.022751e+03 
1.129600e-01 4.942741e+03 
1.142000e-01 4.870773e+03 
1.153300e-01 4.808234e+03 
1.166400e-01 4.739743e+03 
1.177800e-01 4.682986e+03 
1.190000e-01 4.624341e+03 
1.201200e-01 4.572103e+03 
1.213400e-01 4.516600e+03 
1.227100e-01 4.454757e+03 
1.238900e-01 4.402389e+03 
1.250700e-01 4.349710e+03 
1.263200e-01 4.294414e+03 
1.275500e-01 4.239509e+03 
1.287500e-01 4.186161e+03 
1.299900e-01 4.130685e+03 
1.311300e-01 4.079840e+03 
1.323500e-01 4.025147e+03 
1.335900e-01 3.969957e+03 
1.347100e-01 3.920048e+03 
1.359800e-01 3.864150e+03 
1.372100e-01 3.810150e+03 
1.384300e-01 3.757494e+03 
1.395700e-01 3.708651e+03 
1.407700e-01 3.658279e+03 
1.420300e-01 3.606150e+03 
1.432800e-01 3.555584e+03 
1.444500e-01 3.509315e+03 
1.456300e-01 3.463605e+03 
1.468900e-01 3.416350e+03 
1.480500e-01 3.373901e+03 
1.491700e-01 3.334107e+03 
1.503800e-01 3.292465e+03 
1.516400e-01 3.250204e+03 
1.528200e-01 3.212357e+03 
1.540200e-01 3.174611e+03 
1.551900e-01 3.139401e+03 
1.564300e-01 3.103015e+03 
1.576600e-01 3.068046e+03 
1.588700e-01 3.034807e+03 
1.600900e-01 3.001954e+03 
1.612700e-01 2.971358e+03 
1.625400e-01 2.939040e+03 
1.637600e-01 2.908730e+03 
1.649500e-01 2.879787e+03 
1.662200e-01 2.849448e+03 
1.674000e-01 2.821697e+03 
1.685000e-01 2.796259e+03 
1.697500e-01 2.767651e+03 
1.710300e-01 2.738699e+03 
1.722200e-01 2.712259e+03 
1.734400e-01 2.685100e+03 
1.746400e-01 2.658824e+03 
1.758700e-01 2.632185e+03 
1.770900e-01 2.605876e+03 
1.782700e-01 2.580855e+03 
1.794600e-01 2.555810e+03 
1.807000e-01 2.529996e+03 
1.819100e-01 2.505229e+03 
1.830100e-01 2.482903e+03 
1.842200e-01 2.458701e+03 
1.855000e-01 2.433526e+03 
1.867000e-01 2.410314e+03 
1.879200e-01 2.387093e+03 
1.890900e-01 2.365202e+03 
1.902800e-01 2.343422e+03 
1.915200e-01 2.321085e+03 
1.926900e-01 2.300396e+03 
1.939000e-01 2.279516e+03 
1.951700e-01 2.257945e+03 
1.963100e-01 2.238953e+03 
1.975100e-01 2.219455e+03 
1.987800e-01 2.199137e+03 
2.000100e-01 2.179837e+03 
2.012500e-01 2.160847e+03 
2.023400e-01 2.144391e+03 
2.036100e-01 2.125530e+03 
2.048900e-01 2.106957e+03 
2.060400e-01 2.090513e+03 
2.072200e-01 2.073880e+03 
2.084200e-01 2.057275e+03 
2.096900e-01 2.039956e+03 
2.109200e-01 2.023428e+03 
2.121100e-01 2.007605e+03 
2.132700e-01 1.992388e+03 
2.145200e-01 1.976217e+03 
2.157200e-01 1.960830e+03 
2.168800e-01 1.946118e+03 
2.180700e-01 1.931227e+03 
2.193400e-01 1.915462e+03 
2.206000e-01 1.899872e+03 
2.217500e-01 1.885835e+03 
2.229500e-01 1.871378e+03 
2.241400e-01 1.856946e+03 
2.253500e-01 1.842458e+03 
2.264900e-01 1.828984e+03 
2.277100e-01 1.814579e+03 
2.289900e-01 1.799482e+03 
2.301500e-01 1.785981e+03 
2.313600e-01 1.772075e+03 
2.325600e-01 1.758127e+03 
2.337700e-01 1.744244e+03 
2.350000e-01 1.730315e+03 
2.362000e-01 1.716765e+03 
2.374100e-01 1.703113e+03 
2.386500e-01 1.689304e+03 
2.399100e-01 1.675456e+03 
2.410400e-01 1.663042e+03 
2.422500e-01 1.649892e+03 
2.435000e-01 1.636481e+03 
2.447300e-01 1.623442e+03 
2.458700e-01 1.611458e+03 
2.470600e-01 1.599099e+03 
2.483300e-01 1.586074e+03 
2.495600e-01 1.573654e+03 
2.507600e-01 1.561735e+03 
2.519600e-01 1.549958e+03 
2.532200e-01 1.537745e+03 
2.543700e-01 1.526849e+03 
2.555500e-01 1.515877e+03 
2.568000e-01 1.504392e+03 
2.580100e-01 1.493408e+03 
2.592400e-01 1.482568e+03 
2.604100e-01 1.472461e+03 
2.616100e-01 1.462213e+03 
2.628400e-01 1.451830e+03 
2.640600e-01 1.441866e+03 
2.652200e-01 1.432583e+03 
2.664300e-01 1.423007e+03 
2.676500e-01 1.413461e+03 
2.688400e-01 1.404425e+03 
2.700700e-01 1.395295e+03 
2.712400e-01 1.386707e+03 
2.724800e-01 1.377703e+03 
2.736700e-01 1.369265e+03 
2.748800e-01 1.360887e+03 
2.761000e-01 1.352531e+03 
2.773200e-01 1.344266e+03 
2.785400e-01 1.336140e+03 
2.797000e-01 1.328600e+03 
2.808900e-01 1.320944e+03 
2.821400e-01 1.312988e+03 
2.833900e-01 1.305123e+03 
2.845500e-01 1.297990e+03 
2.857800e-01 1.290505e+03 
2.870300e-01 1.282979e+03 
2.882100e-01 1.275948e+03 
2.893900e-01 1.269031e+03 
2.906300e-01 1.261860e+03 
2.918900e-01 1.254650e+03 
2.930500e-01 1.248080e+03 
2.942500e-01 1.241355e+03 
2.954200e-01 1.234879e+03 
2.966500e-01 1.228139e+03 
2.978900e-01 1.221413e+03 
2.990400e-01 1.215237e+03 
3.002700e-01 1.208708e+03 
3.015100e-01 1.202198e+03 
3.026800e-01 1.196116e+03 
3.038500e-01 1.190091e+03 
3.050300e-01 1.184073e+03 
3.062600e-01 1.177868e+03 
3.075000e-01 1.171674e+03 
3.087000e-01 1.165738e+03 
3.099100e-01 1.159810e+03 
3.111200e-01 1.153943e+03 
3.123100e-01 1.148234e+03 
3.135300e-01 1.142436e+03 
3.147300e-01 1.136787e+03 
3.159900e-01 1.130912e+03 
3.171800e-01 1.125421e+03 
3.183700e-01 1.119982e+03 
3.196300e-01 1.114277e+03 
3.208400e-01 1.108851e+03 
3.220300e-01 1.103562e+03 
3.232000e-01 1.098421e+03 
3.244300e-01 1.093070e+03 
3.256700e-01 1.087725e+03 
3.269200e-01 1.082388e+03 
3.280800e-01 1.077479e+03 
3.292500e-01 1.072584e+03 
3.304800e-01 1.067487e+03 
3.317100e-01 1.062437e+03 
3.328900e-01 1.057635e+03 
3.340700e-01 1.052874e+03 
3.353600e-01 1.047731e+03 
3.365300e-01 1.043114e+03 
3.377100e-01 1.038497e+03 
3.389200e-01 1.033803e+03 
3.401600e-01 1.029036e+03 
3.413700e-01 1.024435e+03 
3.425300e-01 1.020069e+03 
3.437700e-01 1.015442e+03 
3.449800e-01 1.010966e+03 
3.461800e-01 1.006565e+03 
3.473600e-01 1.002280e+03 
3.485800e-01 9.979057e+02 
3.498100e-01 9.935329e+02 
3.510200e-01 9.892679e+02 
3.522000e-01 9.851432e+02 
3.533900e-01 9.810177e+02 
3.546400e-01 9.767360e+02 
3.558400e-01 9.726611e+02 
3.570600e-01 9.685526e+02 
3.582700e-01 9.645117e+02 
3.595000e-01 9.604380e+02 
3.607100e-01 9.564736e+02 
3.618900e-01 9.526463e+02 
3.631200e-01 9.486893e+02 
3.643200e-01 9.448603e+02 
3.655500e-01 9.409675e+02 
3.667300e-01 9.372629e+02 
3.679500e-01 9.334758e+02 
3.691900e-01 9.296580e+02 
3.703600e-01 9.260844e+02 
3.715700e-01 9.224176e+02 
3.727700e-01 9.188099e+02 
3.739900e-01 9.151777e+02 
3.752000e-01 9.116159e+02 
3.763900e-01 9.081403e+02 
3.775800e-01 9.046916e+02 
3.788200e-01 9.011261e+02 
3.800300e-01 8.976744e+02 
3.812100e-01 8.943365e+02 
3.824200e-01 8.909414e+02 
3.836100e-01 8.876281e+02 
3.848600e-01 8.841747e+02 
3.860400e-01 8.809399e+02 
3.872400e-01 8.776749e+02 
3.884600e-01 8.743905e+02 
3.896500e-01 8.712146e+02 
3.908700e-01 8.679833e+02 
3.920600e-01 8.648551e+02 
3.933100e-01 8.615942e+02 
3.945300e-01 8.584360e+02 
3.957200e-01 8.553781e+02 
3.969300e-01 8.522918e+02 
3.981700e-01 8.491528e+02 
3.993500e-01 8.461878e+02 
4.094840e-01 8.215678e+02 
4.272360e-01 7.818985e+02 
4.454600e-01 7.449645e+02 
4.630560e-01 7.124324e+02 
4.804610e-01 6.829136e+02 
4.980690e-01 6.553928e+02 
5.159230e-01 6.296747e+02 
5.317440e-01 6.085201e+02 
5.489640e-01 5.871062e+02 
5.671990e-01 5.661066e+02 
5.838690e-01 5.482523e+02 
6.018840e-01 5.302923e+02 
6.202330e-01 5.132695e+02 
6.379250e-01 4.979506e+02 
6.545410e-01 4.844751e+02 
6.714560e-01 4.715344e+02 
6.892080e-01 4.587774e+02 
7.066010e-01 4.469630e+02 
7.240540e-01 4.357369e+02 
7.420450e-01 4.247842e+02 
7.593780e-01 4.147580e+02 
7.764720e-01 4.053226e+02 
7.942840e-01 3.959368e+02 
8.116170e-01 3.871817e+02 
8.288310e-01 3.788455e+02 
8.462240e-01 3.707487e+02 
8.631980e-01 3.631342e+02 
8.810700e-01 3.554079e+02 
8.989410e-01 3.479596e+02 
9.166330e-01 3.408320e+02 
9.345640e-01 3.338385e+02 
9.515980e-01 3.274005e+02 
9.688720e-01 3.210626e+02 
9.865640e-01 3.147524e+02 
1.031870e+00 2.994429e+02 
1.063490e+00 2.893416e+02 
1.097920e+00 2.789404e+02 
1.134370e+00 2.684364e+02 
1.167730e+00 2.593049e+02 
1.203830e+00 2.498784e+02 
1.240470e+00 2.408037e+02 
1.275790e+00 2.324324e+02 
1.309140e+00 2.249149e+02 
1.342970e+00 2.175657e+02 
1.378420e+00 2.102471e+02 
1.413200e+00 2.033754e+02 
1.448110e+00 1.967532e+02 
1.484090e+00 1.902559e+02 
1.518820e+00 1.842293e+02 
1.552880e+00 1.785822e+02 
1.588630e+00 1.728878e+02 
1.623230e+00 1.676243e+02 
1.657720e+00 1.625873e+02 
1.692450e+00 1.577480e+02 
1.726400e+00 1.531639e+02 
1.762200e+00 1.485220e+02 
1.797880e+00 1.441044e+02 
1.833270e+00 1.398811e+02 
1.869070e+00 1.357935e+02 
1.903200e+00 1.320454e+02 
1.937740e+00 1.283932e+02 
1.973190e+00 1.247810e+02 
2.007440e+00 1.214294e+02 
2.042160e+00 1.181652e+02 
2.077900e+00 1.149122e+02 
2.112390e+00 1.119055e+02 
2.146220e+00 1.090376e+02 
2.181600e+00 1.061579e+02 
2.216930e+00 1.033893e+02 
2.250760e+00 1.008191e+02 
2.286500e+00 9.819512e+01 
2.321770e+00 9.571113e+01 
2.355950e+00 9.339660e+01 
2.391280e+00 9.106553e+01 
2.426240e+00 8.883657e+01 
2.460670e+00 8.671438e+01 
2.495640e+00 8.463013e+01 
2.531080e+00 8.259674e+01 
2.566220e+00 8.063724e+01 
2.600830e+00 7.877153e+01 
2.635080e+00 7.698968e+01 
2.670340e+00 7.519863e+01 
2.705970e+00 7.345437e+01 
2.740040e+00 7.184236e+01 
2.774520e+00 7.025701e+01 
2.809730e+00 6.868757e+01 
2.844390e+00 6.719006e+01 
2.879960e+00 6.569862e+01 
2.914860e+00 6.427894e+01 
2.949410e+00 6.291530e+01 
2.984440e+00 6.157186e+01 
3.019760e+00 6.026165e+01 
3.054730e+00 5.900484e+01 
3.089030e+00 5.779906e+01 
3.124060e+00 5.660566e+01 
3.159560e+00 5.543470e+01 
3.194710e+00 5.430207e+01 
3.229010e+00 5.322664e+01 
3.263320e+00 5.218497e+01 
3.297930e+00 5.116282e+01 
3.332830e+00 5.015948e+01 
3.368040e+00 4.917442e+01 
3.403300e+00 4.821460e+01 
3.438450e+00 4.728290e+01 
3.473060e+00 4.638996e+01 
3.508440e+00 4.550544e+01 
3.543110e+00 4.466086e+01 
3.577470e+00 4.384077e+01 
3.613040e+00 4.301482e+01 
3.648120e+00 4.222404e+01 
3.682910e+00 4.145960e+01 
3.718050e+00 4.070661e+01 
3.753320e+00 3.996972e+01 
3.787980e+00 3.926325e+01 
3.822290e+00 3.858236e+01 
3.857020e+00 3.791192e+01 
3.891920e+00 3.725296e+01 
3.926650e+00 3.661017e+01 
3.961970e+00 3.597316e+01 
3.997360e+00 3.535265e+01 
4.031670e+00 3.476516e+01 
4.066330e+00 3.418520e+01 
4.101420e+00 3.361171e+01 
4.136200e+00 3.305872e+01 
4.170810e+00 3.252089e+01 
4.206250e+00 3.198236e+01 
4.241580e+00 3.145766e+01 
4.276300e+00 3.095418e+01 
4.310970e+00 3.046283e+01 
4.346120e+00 2.997600e+01 
4.380600e+00 2.950949e+01 
4.414730e+00 2.905754e+01 
4.450350e+00 2.859670e+01 
4.485320e+00 2.815402e+01 
4.519810e+00 2.772734e+01 
4.555430e+00 2.729631e+01 
4.590870e+00 2.687686e+01 
4.625480e+00 2.647640e+01 
4.659910e+00 2.608610e+01 
4.695230e+00 2.569477e+01 
4.729960e+00 2.531793e+01 
4.764450e+00 2.495155e+01 
4.799530e+00 2.458696e+01 
4.834910e+00 2.422661e+01 
4.869700e+00 2.388015e+01 
4.904370e+00 2.354175e+01 
4.939450e+00 2.320627e+01 
4.973940e+00 2.288351e+01 
5.008430e+00 2.256686e+01 
5.043810e+00 2.224891e+01 
5.078840e+00 2.194052e+01 
5.113500e+00 2.164112e+01 
5.148890e+00 2.134196e+01 
5.184210e+00 2.104903e+01 
5.219060e+00 2.076562e+01 
5.253660e+00 2.049008e+01 
5.288570e+00 2.021711e+01 
5.323420e+00 1.994998e+01 
5.358440e+00 1.968687e+01 
5.393590e+00 1.942753e+01 
5.428310e+00 1.917650e+01 
5.462800e+00 1.893182e+01 
5.497640e+00 1.868895e+01 
5.532670e+00 1.844969e+01 
5.567280e+00 1.821761e+01 
5.602000e+00 1.798877e+01 
5.637270e+00 1.776092e+01 
5.672410e+00 1.753795e+01 
5.707020e+00 1.732206e+01 
5.742040e+00 1.710799e+01 
5.777430e+00 1.689544e+01 
5.812210e+00 1.669005e+01 
5.846820e+00 1.648951e+01 
5.881610e+00 1.629135e+01 
5.916510e+00 1.609580e+01 
5.951600e+00 1.590298e+01 
5.986560e+00 1.571426e+01 
6.021830e+00 1.552694e+01 
6.056490e+00 1.534617e+01 
6.091160e+00 1.516850e+01 
6.125830e+00 1.499362e+01 
6.161090e+00 1.481875e+01 
6.195760e+00 1.464989e+01 
6.230420e+00 1.448368e+01 
6.265690e+00 1.431720e+01 
6.300950e+00 1.415407e+01 
6.335620e+00 1.399612e+01 
6.370880e+00 1.383793e+01 
6.405550e+00 1.368509e+01 
6.440220e+00 1.353467e+01 
6.475480e+00 1.338398e+01 
6.510150e+00 1.323821e+01 
6.544810e+00 1.309504e+01 
6.580080e+00 1.295151e+01 
6.614750e+00 1.281249e+01 
6.649410e+00 1.267594e+01 
6.684080e+00 1.254140e+01 
6.719340e+00 1.240655e+01 
6.754010e+00 1.227600e+01 
6.788680e+00 1.214763e+01 
6.823940e+00 1.201893e+01 
6.859800e+00 1.188993e+01 
6.894470e+00 1.176731e+01 
6.929140e+00 1.164650e+01 
6.963800e+00 1.152740e+01 
6.999070e+00 1.140792e+01 
7.033730e+00 1.129258e+01 
7.068400e+00 1.117877e+01 
7.103660e+00 1.106462e+01 
7.138330e+00 1.095403e+01 
7.173600e+00 1.084331e+01 
7.208260e+00 1.073598e+01 
7.243530e+00 1.062823e+01 
7.277600e+00 1.052571e+01 
7.312860e+00 1.042119e+01 
7.348120e+00 1.031807e+01 
7.382790e+00 1.021801e+01 
7.417460e+00 1.011949e+01 
7.452720e+00 1.002073e+01 
7.487390e+00 9.924890e+00 
7.522650e+00 9.828681e+00 
7.557320e+00 9.735541e+00 
7.591990e+00 9.643677e+00 
7.627250e+00 9.551444e+00 
7.662510e+00 9.460397e+00 
7.697180e+00 9.372236e+00 
7.731850e+00 9.285265e+00 
7.766510e+00 9.199404e+00 
7.801180e+00 9.114585e+00 
7.836440e+00 9.029559e+00 
7.871110e+00 8.947095e+00 
7.906380e+00 8.864240e+00 
7.941040e+00 8.783822e+00 
7.976310e+00 8.703107e+00 
8.011570e+00 8.623545e+00 
8.046240e+00 8.546265e+00 
8.080900e+00 8.469936e+00 
8.115570e+00 8.394563e+00 
8.150830e+00 8.319072e+00 
8.185500e+00 8.245733e+00 
8.220770e+00 8.172013e+00 
8.255430e+00 8.100428e+00 
8.290100e+00 8.029832e+00 
8.324770e+00 7.960079e+00 
8.359430e+00 7.891158e+00 
8.394700e+00 7.821843e+00 
8.429960e+00 7.753476e+00 
8.464630e+00 7.687148e+00 
8.499890e+00 7.620470e+00 
8.534560e+00 7.555662e+00 
8.569200e+00 7.491646e+00 
