# Parameters:
# omega_b = 0.023075, omega_m = 0.143425, n_s = 0.998031, h = 78.858268, w = -1.000000, sigma_8 = 0.722047
# z = 0.700000
#
# k[1/Mpc] # P(k):
8.694000e-04 4.462832e+03 
2.077466e-03 9.822969e+03 
3.285532e-03 1.415222e+04 
4.493598e-03 1.758037e+04 
5.701664e-03 2.019607e+04 
6.909730e-03 2.211527e+04 
8.117797e-03 2.348069e+04 
9.325863e-03 2.436496e+04 
1.053393e-02 2.484072e+04 
1.174199e-02 2.497636e+04 
1.295006e-02 2.481716e+04 
1.415813e-02 2.442677e+04 
1.536619e-02 2.385754e+04 
1.657426e-02 2.313947e+04 
1.778233e-02 2.225760e+04 
1.899039e-02 2.123105e+04 
2.019846e-02 2.018243e+04 
2.140652e-02 1.919806e+04 
2.261459e-02 1.826611e+04 
2.382266e-02 1.738294e+04 
2.503072e-02 1.655677e+04 
2.623879e-02 1.579254e+04 
2.744685e-02 1.509268e+04 
2.865492e-02 1.445920e+04 
2.986299e-02 1.388954e+04 
3.100100e-02 1.341131e+04 
3.220400e-02 1.296224e+04 
3.288100e-02 1.273521e+04 
3.424300e-02 1.232691e+04 
3.555100e-02 1.198728e+04 
3.686000e-02 1.169263e+04 
3.795000e-02 1.147492e+04 
3.929100e-02 1.123715e+04 
4.039800e-02 1.105724e+04 
4.164000e-02 1.086669e+04 
4.294400e-02 1.067041e+04 
4.415000e-02 1.048930e+04 
4.542900e-02 1.028619e+04 
4.660900e-02 1.009154e+04 
4.782300e-02 9.870202e+03 
4.892900e-02 9.657502e+03 
5.031200e-02 9.372164e+03 
5.155900e-02 9.095463e+03 
5.238100e-02 8.905417e+03 
5.378200e-02 8.571020e+03 
5.513400e-02 8.237898e+03 
5.627600e-02 7.953144e+03 
5.735300e-02 7.686141e+03 
5.870100e-02 7.358325e+03 
5.988700e-02 7.080243e+03 
6.113500e-02 6.800765e+03 
6.225900e-02 6.563154e+03 
6.340100e-02 6.337514e+03 
6.480200e-02 6.082324e+03 
6.601100e-02 5.884044e+03 
6.725500e-02 5.700484e+03 
6.829100e-02 5.564855e+03 
6.958600e-02 5.412386e+03 
7.071100e-02 5.296524e+03 
7.192300e-02 5.186213e+03 
7.307400e-02 5.093938e+03 
7.412300e-02 5.018975e+03 
7.550400e-02 4.932371e+03 
7.663100e-02 4.868658e+03 
7.791200e-02 4.803522e+03 
7.912700e-02 4.745665e+03 
8.027600e-02 4.692682e+03 
8.138400e-02 4.642120e+03 
8.272200e-02 4.580355e+03 
8.406100e-02 4.516571e+03 
8.534100e-02 4.451558e+03 
8.653800e-02 4.386574e+03 
8.759800e-02 4.326574e+03 
8.900300e-02 4.242802e+03 
9.009000e-02 4.174211e+03 
9.113300e-02 4.104981e+03 
9.239600e-02 4.019214e+03 
9.358000e-02 3.936092e+03 
9.496100e-02 3.835642e+03 
9.608400e-02 3.753346e+03 
9.727500e-02 3.666261e+03 
9.852600e-02 3.573367e+03 
9.973800e-02 3.485270e+03 
1.009000e-01 3.402633e+03 
1.020900e-01 3.320304e+03 
1.034000e-01 3.233371e+03 
1.046000e-01 3.157162e+03 
1.057200e-01 3.090884e+03 
1.069100e-01 3.023777e+03 
1.082500e-01 2.954664e+03 
1.093900e-01 2.900710e+03 
1.105400e-01 2.849530e+03 
1.116900e-01 2.804419e+03 
1.129600e-01 2.757586e+03 
1.142000e-01 2.717373e+03 
1.153300e-01 2.683246e+03 
1.166400e-01 2.647166e+03 
1.177800e-01 2.618338e+03 
1.190000e-01 2.589068e+03 
1.201200e-01 2.563725e+03 
1.213400e-01 2.536936e+03 
1.227100e-01 2.507215e+03 
1.238900e-01 2.481918e+03 
1.250700e-01 2.455969e+03 
1.263200e-01 2.428354e+03 
1.275500e-01 2.400099e+03 
1.287500e-01 2.372035e+03 
1.299900e-01 2.341904e+03 
1.311300e-01 2.313612e+03 
1.323500e-01 2.282184e+03 
1.335900e-01 2.249783e+03 
1.347100e-01 2.219592e+03 
1.359800e-01 2.185292e+03 
1.372100e-01 2.151183e+03 
1.384300e-01 2.117631e+03 
1.395700e-01 2.085783e+03 
1.407700e-01 2.052908e+03 
1.420300e-01 2.018273e+03 
1.432800e-01 1.984721e+03 
1.444500e-01 1.953890e+03 
1.456300e-01 1.923473e+03 
1.468900e-01 1.892355e+03 
1.480500e-01 1.864521e+03 
1.491700e-01 1.838783e+03 
1.503800e-01 1.812295e+03 
1.516400e-01 1.785640e+03 
1.528200e-01 1.762671e+03 
1.540200e-01 1.739775e+03 
1.551900e-01 1.719361e+03 
1.564300e-01 1.698503e+03 
1.576600e-01 1.678929e+03 
1.588700e-01 1.660896e+03 
1.600900e-01 1.643109e+03 
1.612700e-01 1.627229e+03 
1.625400e-01 1.610454e+03 
1.637600e-01 1.594867e+03 
1.649500e-01 1.580067e+03 
1.662200e-01 1.564520e+03 
1.674000e-01 1.550114e+03 
1.685000e-01 1.536908e+03 
1.697500e-01 1.521761e+03 
1.710300e-01 1.506139e+03 
1.722200e-01 1.491871e+03 
1.734400e-01 1.476462e+03 
1.746400e-01 1.461523e+03 
1.758700e-01 1.446142e+03 
1.770900e-01 1.430474e+03 
1.782700e-01 1.415577e+03 
1.794600e-01 1.400329e+03 
1.807000e-01 1.384394e+03 
1.819100e-01 1.369111e+03 
1.830100e-01 1.355088e+03 
1.842200e-01 1.339850e+03 
1.855000e-01 1.324007e+03 
1.867000e-01 1.309325e+03 
1.879200e-01 1.294647e+03 
1.890900e-01 1.280836e+03 
1.902800e-01 1.267190e+03 
1.915200e-01 1.253204e+03 
1.926900e-01 1.240309e+03 
1.939000e-01 1.227474e+03 
1.951700e-01 1.214222e+03 
1.963100e-01 1.202629e+03 
1.975100e-01 1.190919e+03 
1.987800e-01 1.178720e+03 
2.000100e-01 1.167210e+03 
2.012500e-01 1.156055e+03 
2.023400e-01 1.146391e+03 
2.036100e-01 1.135357e+03 
2.048900e-01 1.124642e+03 
2.060400e-01 1.115157e+03 
2.072200e-01 1.105574e+03 
2.084200e-01 1.096113e+03 
2.096900e-01 1.086247e+03 
2.109200e-01 1.076833e+03 
2.121100e-01 1.067899e+03 
2.132700e-01 1.059312e+03 
2.145200e-01 1.050188e+03 
2.157200e-01 1.041563e+03 
2.168800e-01 1.033344e+03 
2.180700e-01 1.025026e+03 
2.193400e-01 1.016272e+03 
2.206000e-01 1.007711e+03 
2.217500e-01 1.000002e+03 
2.229500e-01 9.920645e+02 
2.241400e-01 9.843425e+02 
2.253500e-01 9.765959e+02 
2.264900e-01 9.693916e+02 
2.277100e-01 9.618322e+02 
2.289900e-01 9.540651e+02 
2.301500e-01 9.471188e+02 
2.313600e-01 9.399665e+02 
2.325600e-01 9.331171e+02 
2.337700e-01 9.262986e+02 
2.350000e-01 9.194563e+02 
2.362000e-01 9.129453e+02 
2.374100e-01 9.065564e+02 
2.386500e-01 9.000918e+02 
2.399100e-01 8.936073e+02 
2.410400e-01 8.880041e+02 
2.422500e-01 8.820933e+02 
2.435000e-01 8.760628e+02 
2.447300e-01 8.702240e+02 
2.458700e-01 8.649616e+02 
2.470600e-01 8.595319e+02 
2.483300e-01 8.538075e+02 
2.495600e-01 8.483504e+02 
2.507600e-01 8.431156e+02 
2.519600e-01 8.379419e+02 
2.532200e-01 8.325741e+02 
2.543700e-01 8.277153e+02 
2.555500e-01 8.227743e+02 
2.568000e-01 8.176009e+02 
2.580100e-01 8.126516e+02 
2.592400e-01 8.076200e+02 
2.604100e-01 8.028623e+02 
2.616100e-01 7.980368e+02 
2.628400e-01 7.931468e+02 
2.640600e-01 7.882707e+02 
2.652200e-01 7.836534e+02 
2.664300e-01 7.788898e+02 
2.676500e-01 7.741403e+02 
2.688400e-01 7.694874e+02 
2.700700e-01 7.646866e+02 
2.712400e-01 7.601697e+02 
2.724800e-01 7.554348e+02 
2.736700e-01 7.508875e+02 
2.748800e-01 7.462592e+02 
2.761000e-01 7.416434e+02 
2.773200e-01 7.370777e+02 
2.785400e-01 7.325356e+02 
2.797000e-01 7.282085e+02 
2.808900e-01 7.238154e+02 
2.821400e-01 7.192502e+02 
2.833900e-01 7.147323e+02 
2.845500e-01 7.105268e+02 
2.857800e-01 7.061138e+02 
2.870300e-01 7.016770e+02 
2.882100e-01 6.975326e+02 
2.893900e-01 6.934072e+02 
2.906300e-01 6.891046e+02 
2.918900e-01 6.847792e+02 
2.930500e-01 6.808379e+02 
2.942500e-01 6.767951e+02 
2.954200e-01 6.728729e+02 
2.966500e-01 6.687911e+02 
2.978900e-01 6.647185e+02 
2.990400e-01 6.609790e+02 
3.002700e-01 6.570107e+02 
3.015100e-01 6.530470e+02 
3.026800e-01 6.493441e+02 
3.038500e-01 6.456766e+02 
3.050300e-01 6.420132e+02 
3.062600e-01 6.382269e+02 
3.075000e-01 6.344479e+02 
3.087000e-01 6.308269e+02 
3.099100e-01 6.272110e+02 
3.111200e-01 6.236308e+02 
3.123100e-01 6.201450e+02 
3.135300e-01 6.166054e+02 
3.147300e-01 6.131571e+02 
3.159900e-01 6.095715e+02 
3.171800e-01 6.062198e+02 
3.183700e-01 6.029006e+02 
3.196300e-01 5.994198e+02 
3.208400e-01 5.961090e+02 
3.220300e-01 5.928832e+02 
3.232000e-01 5.897493e+02 
3.244300e-01 5.864884e+02 
3.256700e-01 5.832321e+02 
3.269200e-01 5.799805e+02 
3.280800e-01 5.769906e+02 
3.292500e-01 5.740105e+02 
3.304800e-01 5.709086e+02 
3.317100e-01 5.678353e+02 
3.328900e-01 5.649134e+02 
3.340700e-01 5.620172e+02 
3.353600e-01 5.588924e+02 
3.365300e-01 5.560886e+02 
3.377100e-01 5.532853e+02 
3.389200e-01 5.504359e+02 
3.401600e-01 5.475419e+02 
3.413700e-01 5.447529e+02 
3.425300e-01 5.421089e+02 
3.437700e-01 5.393070e+02 
3.449800e-01 5.365970e+02 
3.461800e-01 5.339325e+02 
3.473600e-01 5.313406e+02 
3.485800e-01 5.286977e+02 
3.498100e-01 5.260564e+02 
3.510200e-01 5.234803e+02 
3.522000e-01 5.209892e+02 
3.533900e-01 5.184978e+02 
3.546400e-01 5.159200e+02 
3.558400e-01 5.134673e+02 
3.570600e-01 5.109947e+02 
3.582700e-01 5.085629e+02 
3.595000e-01 5.061116e+02 
3.607100e-01 5.037296e+02 
3.618900e-01 5.014330e+02 
3.631200e-01 4.990587e+02 
3.643200e-01 4.967613e+02 
3.655500e-01 4.944259e+02 
3.667300e-01 4.922035e+02 
3.679500e-01 4.899399e+02 
3.691900e-01 4.876581e+02 
3.703600e-01 4.855224e+02 
3.715700e-01 4.833311e+02 
3.727700e-01 4.811752e+02 
3.739900e-01 4.790072e+02 
3.752000e-01 4.768856e+02 
3.763900e-01 4.748153e+02 
3.775800e-01 4.727612e+02 
3.788200e-01 4.706377e+02 
3.800300e-01 4.685820e+02 
3.812100e-01 4.665988e+02 
3.824200e-01 4.645851e+02 
3.836100e-01 4.626198e+02 
3.848600e-01 4.605716e+02 
3.860400e-01 4.586531e+02 
3.872400e-01 4.567168e+02 
3.884600e-01 4.547726e+02 
3.896500e-01 4.528941e+02 
3.908700e-01 4.509828e+02 
3.920600e-01 4.491326e+02 
3.933100e-01 4.472040e+02 
3.945300e-01 4.453361e+02 
3.957200e-01 4.435365e+02 
3.969300e-01 4.417228e+02 
3.981700e-01 4.398782e+02 
3.993500e-01 4.381359e+02 
4.094840e-01 4.236947e+02 
4.272360e-01 4.005917e+02 
4.454600e-01 3.792590e+02 
4.630560e-01 3.606194e+02 
4.804610e-01 3.437898e+02 
4.980690e-01 3.281880e+02 
5.159230e-01 3.136475e+02 
5.317440e-01 3.017286e+02 
5.489640e-01 2.896869e+02 
5.671990e-01 2.779055e+02 
5.838690e-01 2.679107e+02 
6.018840e-01 2.578796e+02 
6.202330e-01 2.484251e+02 
6.379250e-01 2.399373e+02 
6.545410e-01 2.325167e+02 
6.714560e-01 2.254336e+02 
6.892080e-01 2.184871e+02 
7.066010e-01 2.121209e+02 
7.240540e-01 2.061172e+02 
7.420450e-01 2.003211e+02 
7.593780e-01 1.950663e+02 
7.764720e-01 1.901705e+02 
7.942840e-01 1.853544e+02 
8.116170e-01 1.809261e+02 
8.288310e-01 1.767552e+02 
8.462240e-01 1.727493e+02 
8.631980e-01 1.690274e+02 
8.810700e-01 1.652928e+02 
8.989410e-01 1.617332e+02 
9.166330e-01 1.583668e+02 
9.345640e-01 1.551044e+02 
9.515980e-01 1.521305e+02 
9.688720e-01 1.492339e+02 
9.865640e-01 1.463822e+02 
1.031870e+00 1.395498e+02 
1.063490e+00 1.351269e+02 
1.097920e+00 1.306313e+02 
1.134370e+00 1.261355e+02 
1.167730e+00 1.222717e+02 
1.203830e+00 1.183108e+02 
1.240470e+00 1.145224e+02 
1.275790e+00 1.110428e+02 
1.309140e+00 1.079263e+02 
1.342970e+00 1.048903e+02 
1.378420e+00 1.018672e+02 
1.413200e+00 9.903014e+01 
1.448110e+00 9.629561e+01 
1.484090e+00 9.361042e+01 
1.518820e+00 9.111120e+01 
1.552880e+00 8.876548e+01 
1.588630e+00 8.638916e+01 
1.623230e+00 8.418831e+01 
1.657720e+00 8.207406e+01 
1.692450e+00 8.003730e+01 
1.726400e+00 7.809793e+01 
1.762200e+00 7.612692e+01 
1.797880e+00 7.424086e+01 
1.833270e+00 7.242761e+01 
1.869070e+00 7.066683e+01 
1.903200e+00 6.904335e+01 
1.937740e+00 6.745290e+01 
1.973190e+00 6.587373e+01 
2.007440e+00 6.439887e+01 
2.042160e+00 6.295723e+01 
2.077900e+00 6.151111e+01 
2.112390e+00 6.016880e+01 
2.146220e+00 5.887887e+01 
2.181600e+00 5.758016e+01 
2.216930e+00 5.632329e+01 
2.250760e+00 5.515014e+01 
2.286500e+00 5.394636e+01 
2.321770e+00 5.280058e+01 
2.355950e+00 5.172874e+01 
2.391280e+00 5.064331e+01 
2.426240e+00 4.959895e+01 
2.460670e+00 4.859940e+01 
2.495640e+00 4.761346e+01 
2.531080e+00 4.664711e+01 
2.566220e+00 4.570919e+01 
2.600830e+00 4.481202e+01 
2.635080e+00 4.395213e+01 
2.670340e+00 4.308180e+01 
2.705970e+00 4.223027e+01 
2.740040e+00 4.144021e+01 
2.774520e+00 4.066018e+01 
2.809730e+00 3.988352e+01 
2.844390e+00 3.913921e+01 
2.879960e+00 3.839396e+01 
2.914860e+00 3.768080e+01 
2.949410e+00 3.699322e+01 
2.984440e+00 3.631214e+01 
3.019760e+00 3.564536e+01 
3.054730e+00 3.500378e+01 
3.089030e+00 3.438365e+01 
3.124060e+00 3.376801e+01 
3.159560e+00 3.316161e+01 
3.194710e+00 3.257166e+01 
3.229010e+00 3.200983e+01 
3.263320e+00 3.146270e+01 
3.297930e+00 3.092427e+01 
3.332830e+00 3.039328e+01 
3.368040e+00 2.986982e+01 
3.403300e+00 2.935806e+01 
3.438450e+00 2.885852e+01 
3.473060e+00 2.837868e+01 
3.508440e+00 2.790087e+01 
3.543110e+00 2.744369e+01 
3.577470e+00 2.699698e+01 
3.613040e+00 2.654609e+01 
3.648120e+00 2.611258e+01 
3.682910e+00 2.569234e+01 
3.718050e+00 2.527655e+01 
3.753320e+00 2.486840e+01 
3.787980e+00 2.447552e+01 
3.822290e+00 2.409584e+01 
3.857020e+00 2.372063e+01 
3.891920e+00 2.335077e+01 
3.926650e+00 2.298836e+01 
3.961970e+00 2.262841e+01 
3.997360e+00 2.227636e+01 
4.031670e+00 2.194244e+01 
4.066330e+00 2.161121e+01 
4.101420e+00 2.128333e+01 
4.136200e+00 2.096571e+01 
4.170810e+00 2.065652e+01 
4.206250e+00 2.034538e+01 
4.241580e+00 2.004174e+01 
4.276300e+00 1.974932e+01 
4.310970e+00 1.946326e+01 
4.346120e+00 1.917917e+01 
4.380600e+00 1.890599e+01 
4.414730e+00 1.864110e+01 
4.450350e+00 1.836970e+01 
4.485320e+00 1.810879e+01 
4.519810e+00 1.785638e+01 
4.555430e+00 1.760086e+01 
4.590870e+00 1.735174e+01 
4.625480e+00 1.711312e+01 
4.659910e+00 1.688041e+01 
4.695230e+00 1.664612e+01 
4.729960e+00 1.642023e+01 
4.764450e+00 1.620017e+01 
4.799530e+00 1.598053e+01 
4.834910e+00 1.576330e+01 
4.869700e+00 1.555367e+01 
4.904370e+00 1.534868e+01 
4.939450e+00 1.514515e+01 
4.973940e+00 1.494870e+01 
5.008430e+00 1.475588e+01 
5.043810e+00 1.456173e+01 
5.078840e+00 1.437307e+01 
5.113500e+00 1.418981e+01 
5.148890e+00 1.400602e+01 
5.184210e+00 1.382594e+01 
5.219060e+00 1.365149e+01 
5.253660e+00 1.348142e+01 
5.288570e+00 1.331285e+01 
5.323420e+00 1.314757e+01 
5.358440e+00 1.298444e+01 
5.393590e+00 1.282356e+01 
5.428310e+00 1.266748e+01 
5.462800e+00 1.251510e+01 
5.497640e+00 1.236379e+01 
5.532670e+00 1.221436e+01 
5.567280e+00 1.206925e+01 
5.602000e+00 1.192610e+01 
5.637270e+00 1.178322e+01 
5.672410e+00 1.164327e+01 
5.707020e+00 1.150770e+01 
5.742040e+00 1.137294e+01 
5.777430e+00 1.123904e+01 
5.812210e+00 1.110959e+01 
5.846820e+00 1.098292e+01 
5.881610e+00 1.085765e+01 
5.916510e+00 1.073399e+01 
5.951600e+00 1.061183e+01 
5.986560e+00 1.049215e+01 
6.021830e+00 1.037332e+01 
6.056490e+00 1.025846e+01 
6.091160e+00 1.014541e+01 
6.125830e+00 1.003409e+01 
6.161090e+00 9.922686e+00 
6.195760e+00 9.814957e+00 
6.230420e+00 9.708883e+00 
6.265690e+00 9.602587e+00 
6.300950e+00 9.498211e+00 
6.335620e+00 9.397117e+00 
6.370880e+00 9.295835e+00 
6.405550e+00 9.197832e+00 
6.440220e+00 9.101308e+00 
6.475480e+00 9.004581e+00 
6.510150e+00 8.910939e+00 
6.544810e+00 8.818850e+00 
6.580080e+00 8.726494e+00 
6.614750e+00 8.637015e+00 
6.649410e+00 8.548998e+00 
6.684080e+00 8.462230e+00 
6.719340e+00 8.375236e+00 
6.754010e+00 8.290966e+00 
6.788680e+00 8.208013e+00 
6.823940e+00 8.124826e+00 
6.859800e+00 8.041418e+00 
6.894470e+00 7.962035e+00 
6.929140e+00 7.883783e+00 
6.963800e+00 7.806615e+00 
6.999070e+00 7.729174e+00 
7.033730e+00 7.654323e+00 
7.068400e+00 7.580452e+00 
7.103660e+00 7.506333e+00 
7.138330e+00 7.434487e+00 
7.173600e+00 7.362490e+00 
7.208260e+00 7.292676e+00 
7.243530e+00 7.222569e+00 
7.277600e+00 7.155829e+00 
7.312860e+00 7.087746e+00 
7.348120e+00 7.020554e+00 
7.382790e+00 6.955343e+00 
7.417460e+00 6.891077e+00 
7.452720e+00 6.826614e+00 
7.487390e+00 6.764039e+00 
7.522650e+00 6.701208e+00 
7.557320e+00 6.640349e+00 
7.591990e+00 6.580300e+00 
7.627250e+00 6.519996e+00 
7.662510e+00 6.460451e+00 
7.697180e+00 6.402751e+00 
7.731850e+00 6.345805e+00 
7.766510e+00 6.289571e+00 
7.801180e+00 6.234006e+00 
7.836440e+00 6.178276e+00 
7.871110e+00 6.124200e+00 
7.906380e+00 6.069855e+00 
7.941040e+00 6.017095e+00 
7.976310e+00 5.964114e+00 
8.011570e+00 5.911860e+00 
8.046240e+00 5.861094e+00 
8.080900e+00 5.810939e+00 
8.115570e+00 5.761398e+00 
8.150830e+00 5.711754e+00 
8.185500e+00 5.663514e+00 
8.220770e+00 5.615011e+00 
8.255430e+00 5.567902e+00 
8.290100e+00 5.521415e+00 
8.324770e+00 5.475470e+00 
8.359430e+00 5.430063e+00 
8.394700e+00 5.384385e+00 
8.429960e+00 5.339318e+00 
8.464630e+00 5.295582e+00 
8.499890e+00 5.251605e+00 
8.534560e+00 5.208851e+00 
8.569200e+00 5.166610e+00 
