# Parameters:
# omega_b = 0.022272, omega_m = 0.138465, n_s = 0.859449, h = 67.755906, w = -1.000000, sigma_8 = 0.777165
# z = 0.700000
#
# k[1/Mpc] # P(k):
8.694000e-04 1.237412e+04 
2.077466e-03 2.407282e+04 
3.285532e-03 3.242931e+04 
4.493598e-03 3.840913e+04 
5.701664e-03 4.253091e+04 
6.909730e-03 4.518925e+04 
8.117797e-03 4.675707e+04 
9.325863e-03 4.742779e+04 
1.053393e-02 4.737872e+04 
1.174199e-02 4.676631e+04 
1.295006e-02 4.568812e+04 
1.415813e-02 4.426924e+04 
1.536619e-02 4.261259e+04 
1.657426e-02 4.078809e+04 
1.778233e-02 3.886053e+04 
1.899039e-02 3.691891e+04 
2.019846e-02 3.500008e+04 
2.140652e-02 3.313932e+04 
2.261459e-02 3.135728e+04 
2.382266e-02 2.968042e+04 
2.503072e-02 2.812475e+04 
2.623879e-02 2.669428e+04 
2.744685e-02 2.538809e+04 
2.865492e-02 2.420558e+04 
2.986299e-02 2.313934e+04 
3.100100e-02 2.223753e+04 
3.220400e-02 2.138194e+04 
3.288100e-02 2.094344e+04 
3.424300e-02 2.014245e+04 
3.555100e-02 1.946078e+04 
3.686000e-02 1.885301e+04 
3.795000e-02 1.839300e+04 
3.929100e-02 1.787631e+04 
4.039800e-02 1.747913e+04 
4.164000e-02 1.705654e+04 
4.294400e-02 1.662644e+04 
4.415000e-02 1.623833e+04 
4.542900e-02 1.582242e+04 
4.660900e-02 1.543883e+04 
4.782300e-02 1.502809e+04 
4.892900e-02 1.464892e+04 
5.031200e-02 1.416285e+04 
5.155900e-02 1.371207e+04 
5.238100e-02 1.341107e+04 
5.378200e-02 1.289444e+04 
5.513400e-02 1.239323e+04 
5.627600e-02 1.197225e+04 
5.735300e-02 1.158145e+04 
5.870100e-02 1.110475e+04 
5.988700e-02 1.070114e+04 
6.113500e-02 1.029475e+04 
6.225900e-02 9.947125e+03 
6.340100e-02 9.613780e+03 
6.480200e-02 9.232216e+03 
6.601100e-02 8.929644e+03 
6.725500e-02 8.643517e+03 
6.829100e-02 8.426220e+03 
6.958600e-02 8.176501e+03 
7.071100e-02 7.980567e+03 
7.192300e-02 7.788500e+03 
7.307400e-02 7.622906e+03 
7.412300e-02 7.484716e+03 
7.550400e-02 7.320210e+03 
7.663100e-02 7.196851e+03 
7.791200e-02 7.068725e+03 
7.912700e-02 6.955358e+03 
8.027600e-02 6.853033e+03 
8.138400e-02 6.757367e+03 
8.272200e-02 6.644026e+03 
8.406100e-02 6.531187e+03 
8.534100e-02 6.421018e+03 
8.653800e-02 6.314651e+03 
8.759800e-02 6.218521e+03 
8.900300e-02 6.087283e+03 
9.009000e-02 5.982000e+03 
9.113300e-02 5.877436e+03 
9.239600e-02 5.749275e+03 
9.358000e-02 5.626629e+03 
9.496100e-02 5.480520e+03 
9.608400e-02 5.361971e+03 
9.727500e-02 5.237398e+03 
9.852600e-02 5.106559e+03 
9.973800e-02 4.983222e+03 
1.009000e-01 4.868123e+03 
1.020900e-01 4.754581e+03 
1.034000e-01 4.634898e+03 
1.046000e-01 4.530180e+03 
1.057200e-01 4.438899e+03 
1.069100e-01 4.346224e+03 
1.082500e-01 4.249833e+03 
1.093900e-01 4.173579e+03 
1.105400e-01 4.100632e+03 
1.116900e-01 4.034439e+03 
1.129600e-01 3.964943e+03 
1.142000e-01 3.903053e+03 
1.153300e-01 3.849555e+03 
1.166400e-01 3.791404e+03 
1.177800e-01 3.743594e+03 
1.190000e-01 3.694374e+03 
1.201200e-01 3.650858e+03 
1.213400e-01 3.604680e+03 
1.227100e-01 3.553410e+03 
1.238900e-01 3.509983e+03 
1.250700e-01 3.466238e+03 
1.263200e-01 3.420244e+03 
1.275500e-01 3.374407e+03 
1.287500e-01 3.329725e+03 
1.299900e-01 3.283040e+03 
1.311300e-01 3.240090e+03 
1.323500e-01 3.193648e+03 
1.335900e-01 3.146620e+03 
1.347100e-01 3.103873e+03 
1.359800e-01 3.055882e+03 
1.372100e-01 3.009276e+03 
1.384300e-01 2.963773e+03 
1.395700e-01 2.921389e+03 
1.407700e-01 2.877691e+03 
1.420300e-01 2.832333e+03 
1.432800e-01 2.788367e+03 
1.444500e-01 2.748135e+03 
1.456300e-01 2.708418e+03 
1.468900e-01 2.667498e+03 
1.480500e-01 2.630797e+03 
1.491700e-01 2.596519e+03 
1.503800e-01 2.560806e+03 
1.516400e-01 2.524650e+03 
1.528200e-01 2.492581e+03 
1.540200e-01 2.460611e+03 
1.551900e-01 2.431108e+03 
1.564300e-01 2.400705e+03 
1.576600e-01 2.371652e+03 
1.588700e-01 2.344235e+03 
1.600900e-01 2.317155e+03 
1.612700e-01 2.292181e+03 
1.625400e-01 2.265805e+03 
1.637600e-01 2.241145e+03 
1.649500e-01 2.217643e+03 
1.662200e-01 2.193006e+03 
1.674000e-01 2.170443e+03 
1.685000e-01 2.149764e+03 
1.697500e-01 2.126447e+03 
1.710300e-01 2.102790e+03 
1.722200e-01 2.081189e+03 
1.734400e-01 2.058812e+03 
1.746400e-01 2.037159e+03 
1.758700e-01 2.015154e+03 
1.770900e-01 1.993311e+03 
1.782700e-01 1.972542e+03 
1.794600e-01 1.951672e+03 
1.807000e-01 1.930110e+03 
1.819100e-01 1.909430e+03 
1.830100e-01 1.890739e+03 
1.842200e-01 1.870476e+03 
1.855000e-01 1.849406e+03 
1.867000e-01 1.829975e+03 
1.879200e-01 1.810545e+03 
1.890900e-01 1.792240e+03 
1.902800e-01 1.774061e+03 
1.915200e-01 1.755424e+03 
1.926900e-01 1.738185e+03 
1.939000e-01 1.720851e+03 
1.951700e-01 1.702950e+03 
1.963100e-01 1.687214e+03 
1.975100e-01 1.671116e+03 
1.987800e-01 1.654346e+03 
2.000100e-01 1.638442e+03 
2.012500e-01 1.622845e+03 
2.023400e-01 1.609333e+03 
2.036100e-01 1.593862e+03 
2.048900e-01 1.578677e+03 
2.060400e-01 1.565237e+03 
2.072200e-01 1.551648e+03 
2.084200e-01 1.538135e+03 
2.096900e-01 1.524045e+03 
2.109200e-01 1.510600e+03 
2.121100e-01 1.497794e+03 
2.132700e-01 1.485482e+03 
2.145200e-01 1.472402e+03 
2.157200e-01 1.460018e+03 
2.168800e-01 1.448208e+03 
2.180700e-01 1.436255e+03 
2.193400e-01 1.423655e+03 
2.206000e-01 1.411292e+03 
2.217500e-01 1.400161e+03 
2.229500e-01 1.388700e+03 
2.241400e-01 1.377436e+03 
2.253500e-01 1.366134e+03 
2.264900e-01 1.355624e+03 
2.277100e-01 1.344500e+03 
2.289900e-01 1.332964e+03 
2.301500e-01 1.322649e+03 
2.313600e-01 1.312027e+03 
2.325600e-01 1.301610e+03 
2.337700e-01 1.291242e+03 
2.350000e-01 1.280841e+03 
2.362000e-01 1.270821e+03 
2.374100e-01 1.260845e+03 
2.386500e-01 1.250752e+03 
2.399100e-01 1.240631e+03 
2.410400e-01 1.231696e+03 
2.422500e-01 1.222248e+03 
2.435000e-01 1.212611e+03 
2.447300e-01 1.203259e+03 
2.458700e-01 1.194733e+03 
2.470600e-01 1.185939e+03 
2.483300e-01 1.176670e+03 
2.495600e-01 1.167834e+03 
2.507600e-01 1.159355e+03 
2.519600e-01 1.150977e+03 
2.532200e-01 1.142287e+03 
2.543700e-01 1.134493e+03 
2.555500e-01 1.126615e+03 
2.568000e-01 1.118368e+03 
2.580100e-01 1.110480e+03 
2.592400e-01 1.102607e+03 
2.604100e-01 1.095226e+03 
2.616100e-01 1.087741e+03 
2.628400e-01 1.080158e+03 
2.640600e-01 1.072769e+03 
2.652200e-01 1.065840e+03 
2.664300e-01 1.058692e+03 
2.676500e-01 1.051567e+03 
2.688400e-01 1.044725e+03 
2.700700e-01 1.037752e+03 
2.712400e-01 1.031193e+03 
2.724800e-01 1.024317e+03 
2.736700e-01 1.017805e+03 
2.748800e-01 1.011269e+03 
2.761000e-01 1.004752e+03 
2.773200e-01 9.983059e+02 
2.785400e-01 9.919349e+02 
2.797000e-01 9.859520e+02 
2.808900e-01 9.798782e+02 
2.821400e-01 9.735666e+02 
2.833900e-01 9.673243e+02 
2.845500e-01 9.615956e+02 
2.857800e-01 9.555842e+02 
2.870300e-01 9.495406e+02 
2.882100e-01 9.438952e+02 
2.893900e-01 9.383100e+02 
2.906300e-01 9.325030e+02 
2.918900e-01 9.266651e+02 
2.930500e-01 9.213457e+02 
2.942500e-01 9.158961e+02 
2.954200e-01 9.106311e+02 
2.966500e-01 9.051517e+02 
2.978900e-01 8.996846e+02 
2.990400e-01 8.946646e+02 
3.002700e-01 8.893505e+02 
3.015100e-01 8.840488e+02 
3.026800e-01 8.790957e+02 
3.038500e-01 8.741900e+02 
3.050300e-01 8.692898e+02 
3.062600e-01 8.642334e+02 
3.075000e-01 8.591868e+02 
3.087000e-01 8.543509e+02 
3.099100e-01 8.495217e+02 
3.111200e-01 8.447432e+02 
3.123100e-01 8.400954e+02 
3.135300e-01 8.353759e+02 
3.147300e-01 8.307781e+02 
3.159900e-01 8.259970e+02 
3.171800e-01 8.215312e+02 
3.183700e-01 8.171110e+02 
3.196300e-01 8.124752e+02 
3.208400e-01 8.080659e+02 
3.220300e-01 8.037695e+02 
3.232000e-01 7.995974e+02 
3.244300e-01 7.952569e+02 
3.256700e-01 7.909222e+02 
3.269200e-01 7.865937e+02 
3.280800e-01 7.826135e+02 
3.292500e-01 7.786492e+02 
3.304800e-01 7.745238e+02 
3.317100e-01 7.704362e+02 
3.328900e-01 7.665500e+02 
3.340700e-01 7.626977e+02 
3.353600e-01 7.585431e+02 
3.365300e-01 7.548159e+02 
3.377100e-01 7.510892e+02 
3.389200e-01 7.473011e+02 
3.401600e-01 7.434536e+02 
3.413700e-01 7.397457e+02 
3.425300e-01 7.362307e+02 
3.437700e-01 7.325056e+02 
3.449800e-01 7.289025e+02 
3.461800e-01 7.253600e+02 
3.473600e-01 7.219138e+02 
3.485800e-01 7.184004e+02 
3.498100e-01 7.148888e+02 
3.510200e-01 7.114639e+02 
3.522000e-01 7.081519e+02 
3.533900e-01 7.048395e+02 
3.546400e-01 7.014106e+02 
3.558400e-01 6.981481e+02 
3.570600e-01 6.948588e+02 
3.582700e-01 6.916238e+02 
3.595000e-01 6.883629e+02 
3.607100e-01 6.851933e+02 
3.618900e-01 6.821366e+02 
3.631200e-01 6.789764e+02 
3.643200e-01 6.759185e+02 
3.655500e-01 6.728099e+02 
3.667300e-01 6.698518e+02 
3.679500e-01 6.668367e+02 
3.691900e-01 6.637973e+02 
3.703600e-01 6.609524e+02 
3.715700e-01 6.580334e+02 
3.727700e-01 6.551616e+02 
3.739900e-01 6.522724e+02 
3.752000e-01 6.494427e+02 
3.763900e-01 6.466816e+02 
3.775800e-01 6.439419e+02 
3.788200e-01 6.411096e+02 
3.800300e-01 6.383677e+02 
3.812100e-01 6.357206e+02 
3.824200e-01 6.330312e+02 
3.836100e-01 6.304065e+02 
3.848600e-01 6.276710e+02 
3.860400e-01 6.251086e+02 
3.872400e-01 6.225225e+02 
3.884600e-01 6.199247e+02 
3.896500e-01 6.174142e+02 
3.908700e-01 6.148599e+02 
3.920600e-01 6.123872e+02 
3.933100e-01 6.098097e+02 
3.945300e-01 6.073133e+02 
3.957200e-01 6.049030e+02 
3.969300e-01 6.024723e+02 
3.981700e-01 6.000001e+02 
3.993500e-01 5.976650e+02 
4.094840e-01 5.783001e+02 
4.272360e-01 5.472321e+02 
4.454600e-01 5.184640e+02 
4.630560e-01 4.932596e+02 
4.804610e-01 4.704893e+02 
4.980690e-01 4.493628e+02 
5.159230e-01 4.296967e+02 
5.317440e-01 4.135843e+02 
5.489640e-01 3.973328e+02 
5.671990e-01 3.814565e+02 
5.838690e-01 3.680049e+02 
6.018840e-01 3.545193e+02 
6.202330e-01 3.417999e+02 
6.379250e-01 3.303869e+02 
6.545410e-01 3.203956e+02 
6.714560e-01 3.108394e+02 
6.892080e-01 3.014529e+02 
7.066010e-01 2.928101e+02 
7.240540e-01 2.846349e+02 
7.420450e-01 2.767019e+02 
7.593780e-01 2.694758e+02 
7.764720e-01 2.627104e+02 
7.942840e-01 2.560181e+02 
8.116170e-01 2.498182e+02 
8.288310e-01 2.439462e+02 
8.462240e-01 2.382727e+02 
8.631980e-01 2.329674e+02 
8.810700e-01 2.276142e+02 
8.989410e-01 2.224818e+02 
9.166330e-01 2.175970e+02 
9.345640e-01 2.128330e+02 
9.515980e-01 2.084697e+02 
9.688720e-01 2.041957e+02 
9.865640e-01 1.999643e+02 
1.031870e+00 1.897674e+02 
1.063490e+00 1.831092e+02 
1.097920e+00 1.762986e+02 
1.134370e+00 1.694685e+02 
1.167730e+00 1.635698e+02 
1.203830e+00 1.575152e+02 
1.240470e+00 1.517152e+02 
1.275790e+00 1.463904e+02 
1.309140e+00 1.416240e+02 
1.342970e+00 1.369860e+02 
1.378420e+00 1.323771e+02 
1.413200e+00 1.280618e+02 
1.448110e+00 1.239156e+02 
1.484090e+00 1.198545e+02 
1.518820e+00 1.160943e+02 
1.552880e+00 1.125766e+02 
1.588630e+00 1.090325e+02 
1.623230e+00 1.057606e+02 
1.657720e+00 1.026324e+02 
1.692450e+00 9.962907e+01 
1.726400e+00 9.678721e+01 
1.762200e+00 9.391121e+01 
1.797880e+00 9.117395e+01 
1.833270e+00 8.855717e+01 
1.869070e+00 8.602625e+01 
1.903200e+00 8.370518e+01 
1.937740e+00 8.144301e+01 
1.973190e+00 7.920667e+01 
2.007440e+00 7.712998e+01 
2.042160e+00 7.510792e+01 
2.077900e+00 7.309168e+01 
2.112390e+00 7.122759e+01 
2.146220e+00 6.944837e+01 
2.181600e+00 6.766249e+01 
2.216930e+00 6.594364e+01 
2.250760e+00 6.434736e+01 
2.286500e+00 6.271711e+01 
2.321770e+00 6.117239e+01 
2.355950e+00 5.973230e+01 
2.391280e+00 5.828208e+01 
2.426240e+00 5.689380e+01 
2.460670e+00 5.557089e+01 
2.495640e+00 5.427094e+01 
2.531080e+00 5.300220e+01 
2.566220e+00 5.177792e+01 
2.600830e+00 5.061145e+01 
2.635080e+00 4.949698e+01 
2.670340e+00 4.837577e+01 
2.705970e+00 4.728277e+01 
2.740040e+00 4.627196e+01 
2.774520e+00 4.527770e+01 
2.809730e+00 4.429228e+01 
2.844390e+00 4.335124e+01 
2.879960e+00 4.241319e+01 
2.914860e+00 4.151941e+01 
2.949410e+00 4.066032e+01 
2.984440e+00 3.981307e+01 
3.019760e+00 3.898628e+01 
3.054730e+00 3.819277e+01 
3.089030e+00 3.743032e+01 
3.124060e+00 3.667531e+01 
3.159560e+00 3.593401e+01 
3.194710e+00 3.521613e+01 
3.229010e+00 3.453408e+01 
3.263320e+00 3.387276e+01 
3.297930e+00 3.322345e+01 
3.332830e+00 3.258546e+01 
3.368040e+00 3.195857e+01 
3.403300e+00 3.134732e+01 
3.438450e+00 3.075325e+01 
3.473060e+00 3.018363e+01 
3.508440e+00 2.961876e+01 
3.543110e+00 2.907917e+01 
3.577470e+00 2.855447e+01 
3.613040e+00 2.802580e+01 
3.648120e+00 2.751917e+01 
3.682910e+00 2.702915e+01 
3.718050e+00 2.654602e+01 
3.753320e+00 2.607287e+01 
3.787980e+00 2.561878e+01 
3.822290e+00 2.518089e+01 
3.857020e+00 2.474940e+01 
3.891920e+00 2.432502e+01 
3.926650e+00 2.391060e+01 
3.961970e+00 2.349970e+01 
3.997360e+00 2.309906e+01 
4.031670e+00 2.271960e+01 
4.066330e+00 2.234454e+01 
4.101420e+00 2.197362e+01 
4.136200e+00 2.161550e+01 
4.170810e+00 2.126716e+01 
4.206250e+00 2.091797e+01 
4.241580e+00 2.057766e+01 
4.276300e+00 2.025081e+01 
4.310970e+00 1.993166e+01 
4.346120e+00 1.961528e+01 
4.380600e+00 1.931184e+01 
4.414730e+00 1.901785e+01 
4.450350e+00 1.871765e+01 
4.485320e+00 1.842927e+01 
4.519810e+00 1.815106e+01 
4.555430e+00 1.786989e+01 
4.590870e+00 1.759617e+01 
4.625480e+00 1.733462e+01 
4.659910e+00 1.707971e+01 
4.695230e+00 1.682383e+01 
4.729960e+00 1.657739e+01 
4.764450e+00 1.633767e+01 
4.799530e+00 1.609897e+01 
4.834910e+00 1.586304e+01 
4.869700e+00 1.563596e+01 
4.904370e+00 1.541413e+01 
4.939450e+00 1.519414e+01 
4.973940e+00 1.498231e+01 
5.008430e+00 1.477450e+01 
5.043810e+00 1.456571e+01 
5.078840e+00 1.436311e+01 
5.113500e+00 1.416643e+01 
5.148890e+00 1.396973e+01 
5.184210e+00 1.377713e+01 
5.219060e+00 1.359075e+01 
5.253660e+00 1.340942e+01 
5.288570e+00 1.322978e+01 
5.323420e+00 1.305391e+01 
5.358440e+00 1.288061e+01 
5.393590e+00 1.270979e+01 
5.428310e+00 1.254437e+01 
5.462800e+00 1.238309e+01 
5.497640e+00 1.222302e+01 
5.532670e+00 1.206525e+01 
5.567280e+00 1.191219e+01 
5.602000e+00 1.176128e+01 
5.637270e+00 1.161094e+01 
5.672410e+00 1.146382e+01 
5.707020e+00 1.132137e+01 
5.742040e+00 1.118005e+01 
5.777430e+00 1.103975e+01 
5.812210e+00 1.090417e+01 
5.846820e+00 1.077175e+01 
5.881610e+00 1.064089e+01 
5.916510e+00 1.051177e+01 
5.951600e+00 1.038442e+01 
5.986560e+00 1.025976e+01 
6.021830e+00 1.013604e+01 
6.056490e+00 1.001664e+01 
6.091160e+00 9.899282e+00 
6.125830e+00 9.783774e+00 
6.161090e+00 9.668269e+00 
6.195760e+00 9.556721e+00 
6.230420e+00 9.446935e+00 
6.265690e+00 9.336973e+00 
6.300950e+00 9.229211e+00 
6.335620e+00 9.124882e+00 
6.370880e+00 9.020403e+00 
6.405550e+00 8.919472e+00 
6.440220e+00 8.820153e+00 
6.475480e+00 8.720666e+00 
6.510150e+00 8.624432e+00 
6.544810e+00 8.529921e+00 
6.580080e+00 8.435174e+00 
6.614750e+00 8.343416e+00 
6.649410e+00 8.253303e+00 
6.684080e+00 8.164526e+00 
6.719340e+00 8.075552e+00 
6.754010e+00 7.989434e+00 
6.788680e+00 7.904781e+00 
6.823940e+00 7.819921e+00 
6.859800e+00 7.734869e+00 
6.894470e+00 7.654043e+00 
6.929140e+00 7.574431e+00 
6.963800e+00 7.495952e+00 
6.999070e+00 7.417231e+00 
7.033730e+00 7.341277e+00 
7.068400e+00 7.266345e+00 
7.103660e+00 7.191188e+00 
7.138330e+00 7.118396e+00 
7.173600e+00 7.045549e+00 
7.208260e+00 6.974935e+00 
7.243530e+00 6.904050e+00 
7.277600e+00 6.836642e+00 
7.312860e+00 6.767942e+00 
7.348120e+00 6.700166e+00 
7.382790e+00 6.634409e+00 
7.417460e+00 6.569708e+00 
7.452720e+00 6.504870e+00 
7.487390e+00 6.441953e+00 
7.522650e+00 6.378799e+00 
7.557320e+00 6.317703e+00 
7.591990e+00 6.257462e+00 
7.627250e+00 6.196983e+00 
7.662510e+00 6.137286e+00 
7.697180e+00 6.079525e+00 
7.731850e+00 6.022565e+00 
7.766510e+00 5.966334e+00 
7.801180e+00 5.910789e+00 
7.836440e+00 5.855146e+00 
7.871110e+00 5.801202e+00 
7.906380e+00 5.747006e+00 
7.941040e+00 5.694407e+00 
7.976310e+00 5.641649e+00 
8.011570e+00 5.589687e+00 
8.046240e+00 5.539219e+00 
8.080900e+00 5.489374e+00 
8.115570e+00 5.440165e+00 
8.150830e+00 5.390922e+00 
8.185500e+00 5.343084e+00 
8.220770e+00 5.295000e+00 
8.255430e+00 5.248310e+00 
8.290100e+00 5.202334e+00 
8.324770e+00 5.156917e+00 
8.359430e+00 5.112043e+00 
8.394700e+00 5.066913e+00 
8.429960e+00 5.022430e+00 
8.464630e+00 4.979303e+00 
8.499890e+00 4.935950e+00 
8.534560e+00 4.893813e+00 
8.569200e+00 4.852192e+00 
