# Parameters:
# omega_b = 0.021705, omega_m = 0.125512, n_s = 1.020079, h = 58.070866, w = -1.000000, sigma_8 = 0.814961
# z = 0.700000
#
# k[1/Mpc] # P(k):
8.694000e-04 9.891637e+03 
2.077466e-03 2.189371e+04 
3.285532e-03 3.142775e+04 
4.493598e-03 3.875249e+04 
5.701664e-03 4.416803e+04 
6.909730e-03 4.795780e+04 
8.117797e-03 5.045913e+04 
9.325863e-03 5.185193e+04 
1.053393e-02 5.232489e+04 
1.174199e-02 5.206038e+04 
1.295006e-02 5.116925e+04 
1.415813e-02 4.980357e+04 
1.536619e-02 4.809989e+04 
1.657426e-02 4.617335e+04 
1.778233e-02 4.424493e+04 
1.899039e-02 4.251777e+04 
2.019846e-02 4.078781e+04 
2.140652e-02 3.894047e+04 
2.261459e-02 3.707795e+04 
2.382266e-02 3.529828e+04 
2.503072e-02 3.363753e+04 
2.623879e-02 3.210508e+04 
2.744685e-02 3.070309e+04 
2.865492e-02 2.943241e+04 
2.986299e-02 2.828569e+04 
3.100100e-02 2.731500e+04 
3.220400e-02 2.639230e+04 
3.288100e-02 2.591808e+04 
3.424300e-02 2.504726e+04 
3.555100e-02 2.429905e+04 
3.686000e-02 2.362303e+04 
3.795000e-02 2.310374e+04 
3.929100e-02 2.250825e+04 
4.039800e-02 2.204140e+04 
4.164000e-02 2.153659e+04 
4.294400e-02 2.101261e+04 
4.415000e-02 2.053552e+04 
4.542900e-02 2.002097e+04 
4.660900e-02 1.954641e+04 
4.782300e-02 1.904116e+04 
4.892900e-02 1.857798e+04 
5.031200e-02 1.799008e+04 
5.155900e-02 1.745148e+04 
5.238100e-02 1.709499e+04 
5.378200e-02 1.648802e+04 
5.513400e-02 1.590446e+04 
5.627600e-02 1.541718e+04 
5.735300e-02 1.496602e+04 
5.870100e-02 1.441598e+04 
5.988700e-02 1.394929e+04 
6.113500e-02 1.347750e+04 
6.225900e-02 1.307154e+04 
6.340100e-02 1.267928e+04 
6.480200e-02 1.222640e+04 
6.601100e-02 1.186297e+04 
6.725500e-02 1.151558e+04 
6.829100e-02 1.124875e+04 
6.958600e-02 1.093957e+04 
7.071100e-02 1.069467e+04 
7.192300e-02 1.045295e+04 
7.307400e-02 1.024342e+04 
7.412300e-02 1.006802e+04 
7.550400e-02 9.858882e+03 
7.663100e-02 9.702128e+03 
7.791200e-02 9.539781e+03 
7.912700e-02 9.396708e+03 
8.027600e-02 9.267849e+03 
8.138400e-02 9.147445e+03 
8.272200e-02 9.004599e+03 
8.406100e-02 8.861731e+03 
8.534100e-02 8.720925e+03 
8.653800e-02 8.583481e+03 
8.759800e-02 8.458274e+03 
8.900300e-02 8.285800e+03 
9.009000e-02 8.146233e+03 
9.113300e-02 8.006894e+03 
9.239600e-02 7.835705e+03 
9.358000e-02 7.671692e+03 
9.496100e-02 7.476944e+03 
9.608400e-02 7.319675e+03 
9.727500e-02 7.155066e+03 
9.852600e-02 6.984754e+03 
9.973800e-02 6.825473e+03 
1.009000e-01 6.677851e+03 
1.020900e-01 6.535096e+03 
1.034000e-01 6.385727e+03 
1.046000e-01 6.256222e+03 
1.057200e-01 6.144971e+03 
1.069100e-01 6.032390e+03 
1.082500e-01 5.916345e+03 
1.093900e-01 5.824663e+03 
1.105400e-01 5.737013e+03 
1.116900e-01 5.657060e+03 
1.129600e-01 5.572769e+03 
1.142000e-01 5.496530e+03 
1.153300e-01 5.429859e+03 
1.166400e-01 5.356187e+03 
1.177800e-01 5.294167e+03 
1.190000e-01 5.229619e+03 
1.201200e-01 5.170730e+03 
1.213400e-01 5.107907e+03 
1.227100e-01 5.036002e+03 
1.238900e-01 4.974795e+03 
1.250700e-01 4.912235e+03 
1.263200e-01 4.846339e+03 
1.275500e-01 4.780404e+03 
1.287500e-01 4.716314e+03 
1.299900e-01 4.649630e+03 
1.311300e-01 4.588757e+03 
1.323500e-01 4.523633e+03 
1.335900e-01 4.458391e+03 
1.347100e-01 4.399999e+03 
1.359800e-01 4.335090e+03 
1.372100e-01 4.273344e+03 
1.384300e-01 4.213557e+03 
1.395700e-01 4.159091e+03 
1.407700e-01 4.103041e+03 
1.420300e-01 4.046279e+03 
1.432800e-01 3.991209e+03 
1.444500e-01 3.941756e+03 
1.456300e-01 3.892890e+03 
1.468900e-01 3.842715e+03 
1.480500e-01 3.797738e+03 
1.491700e-01 3.755564e+03 
1.503800e-01 3.711423e+03 
1.516400e-01 3.666534e+03 
1.528200e-01 3.625976e+03 
1.540200e-01 3.585518e+03 
1.551900e-01 3.547221e+03 
1.564300e-01 3.507502e+03 
1.576600e-01 3.468973e+03 
1.588700e-01 3.431919e+03 
1.600900e-01 3.395257e+03 
1.612700e-01 3.360440e+03 
1.625400e-01 3.323664e+03 
1.637600e-01 3.288883e+03 
1.649500e-01 3.255502e+03 
1.662200e-01 3.220484e+03 
1.674000e-01 3.188295e+03 
1.685000e-01 3.158790e+03 
1.697500e-01 3.125658e+03 
1.710300e-01 3.092174e+03 
1.722200e-01 3.061598e+03 
1.734400e-01 3.030474e+03 
1.746400e-01 3.000373e+03 
1.758700e-01 2.969980e+03 
1.770900e-01 2.940211e+03 
1.782700e-01 2.911900e+03 
1.794600e-01 2.883778e+03 
1.807000e-01 2.854939e+03 
1.819100e-01 2.827267e+03 
1.830100e-01 2.802555e+03 
1.842200e-01 2.775803e+03 
1.855000e-01 2.747983e+03 
1.867000e-01 2.722515e+03 
1.879200e-01 2.697037e+03 
1.890900e-01 2.673029e+03 
1.902800e-01 2.649212e+03 
1.915200e-01 2.624784e+03 
1.926900e-01 2.602155e+03 
1.939000e-01 2.579314e+03 
1.951700e-01 2.555716e+03 
1.963100e-01 2.534919e+03 
1.975100e-01 2.513521e+03 
1.987800e-01 2.491221e+03 
2.000100e-01 2.470006e+03 
2.012500e-01 2.449059e+03 
2.023400e-01 2.430907e+03 
2.036100e-01 2.410076e+03 
2.048900e-01 2.389464e+03 
2.060400e-01 2.371214e+03 
2.072200e-01 2.352745e+03 
2.084200e-01 2.334198e+03 
2.096900e-01 2.314854e+03 
2.109200e-01 2.296392e+03 
2.121100e-01 2.278603e+03 
2.132700e-01 2.261489e+03 
2.145200e-01 2.243301e+03 
2.157200e-01 2.225906e+03 
2.168800e-01 2.209232e+03 
2.180700e-01 2.192355e+03 
2.193400e-01 2.174430e+03 
2.206000e-01 2.156595e+03 
2.217500e-01 2.140536e+03 
2.229500e-01 2.123998e+03 
2.241400e-01 2.107301e+03 
2.253500e-01 2.090536e+03 
2.264900e-01 2.074944e+03 
2.277100e-01 2.058166e+03 
2.289900e-01 2.040463e+03 
2.301500e-01 2.024632e+03 
2.313600e-01 2.008326e+03 
2.325600e-01 1.991742e+03 
2.337700e-01 1.975237e+03 
2.350000e-01 1.958681e+03 
2.362000e-01 1.942480e+03 
2.374100e-01 1.926047e+03 
2.386500e-01 1.909429e+03 
2.399100e-01 1.892768e+03 
2.410400e-01 1.877706e+03 
2.422500e-01 1.861739e+03 
2.435000e-01 1.845459e+03 
2.447300e-01 1.829621e+03 
2.458700e-01 1.815014e+03 
2.470600e-01 1.799953e+03 
2.483300e-01 1.784085e+03 
2.495600e-01 1.768967e+03 
2.507600e-01 1.754469e+03 
2.519600e-01 1.740151e+03 
2.532200e-01 1.725305e+03 
2.543700e-01 1.712120e+03 
2.555500e-01 1.698885e+03 
2.568000e-01 1.685036e+03 
2.580100e-01 1.671793e+03 
2.592400e-01 1.658835e+03 
2.604100e-01 1.646803e+03 
2.616100e-01 1.634605e+03 
2.628400e-01 1.622248e+03 
2.640600e-01 1.610522e+03 
2.652200e-01 1.599651e+03 
2.664300e-01 1.588438e+03 
2.676500e-01 1.577261e+03 
2.688400e-01 1.566790e+03 
2.700700e-01 1.556281e+03 
2.712400e-01 1.546394e+03 
2.724800e-01 1.536031e+03 
2.736700e-01 1.526392e+03 
2.748800e-01 1.516900e+03 
2.761000e-01 1.507433e+03 
2.773200e-01 1.498070e+03 
2.785400e-01 1.488900e+03 
2.797000e-01 1.480466e+03 
2.808900e-01 1.471904e+03 
2.821400e-01 1.463005e+03 
2.833900e-01 1.454211e+03 
2.845500e-01 1.446308e+03 
2.857800e-01 1.438015e+03 
2.870300e-01 1.429676e+03 
2.882100e-01 1.421886e+03 
2.893900e-01 1.414252e+03 
2.906300e-01 1.406356e+03 
2.918900e-01 1.398416e+03 
2.930500e-01 1.391180e+03 
2.942500e-01 1.383780e+03 
2.954200e-01 1.376675e+03 
2.966500e-01 1.369279e+03 
2.978900e-01 1.361898e+03 
2.990400e-01 1.355121e+03 
3.002700e-01 1.347967e+03 
3.015100e-01 1.340839e+03 
3.026800e-01 1.334180e+03 
3.038500e-01 1.327583e+03 
3.050300e-01 1.320993e+03 
3.062600e-01 1.314206e+03 
3.075000e-01 1.307431e+03 
3.087000e-01 1.300938e+03 
3.099100e-01 1.294453e+03 
3.111200e-01 1.288037e+03 
3.123100e-01 1.281797e+03 
3.135300e-01 1.275459e+03 
3.147300e-01 1.269285e+03 
3.159900e-01 1.262863e+03 
3.171800e-01 1.256862e+03 
3.183700e-01 1.250919e+03 
3.196300e-01 1.244685e+03 
3.208400e-01 1.238756e+03 
3.220300e-01 1.232978e+03 
3.232000e-01 1.227360e+03 
3.244300e-01 1.221514e+03 
3.256700e-01 1.215674e+03 
3.269200e-01 1.209843e+03 
3.280800e-01 1.204479e+03 
3.292500e-01 1.199131e+03 
3.304800e-01 1.193563e+03 
3.317100e-01 1.188046e+03 
3.328900e-01 1.182800e+03 
3.340700e-01 1.177599e+03 
3.353600e-01 1.171980e+03 
3.365300e-01 1.166935e+03 
3.377100e-01 1.161890e+03 
3.389200e-01 1.156762e+03 
3.401600e-01 1.151552e+03 
3.413700e-01 1.146524e+03 
3.425300e-01 1.141752e+03 
3.437700e-01 1.136694e+03 
3.449800e-01 1.131802e+03 
3.461800e-01 1.126991e+03 
3.473600e-01 1.122308e+03 
3.485800e-01 1.117524e+03 
3.498100e-01 1.112742e+03 
3.510200e-01 1.108079e+03 
3.522000e-01 1.103568e+03 
3.533900e-01 1.099057e+03 
3.546400e-01 1.094372e+03 
3.558400e-01 1.089913e+03 
3.570600e-01 1.085417e+03 
3.582700e-01 1.080996e+03 
3.595000e-01 1.076538e+03 
3.607100e-01 1.072198e+03 
3.618900e-01 1.068007e+03 
3.631200e-01 1.063674e+03 
3.643200e-01 1.059482e+03 
3.655500e-01 1.055219e+03 
3.667300e-01 1.051163e+03 
3.679500e-01 1.047012e+03 
3.691900e-01 1.042828e+03 
3.703600e-01 1.038912e+03 
3.715700e-01 1.034893e+03 
3.727700e-01 1.030939e+03 
3.739900e-01 1.026957e+03 
3.752000e-01 1.023050e+03 
3.763900e-01 1.019238e+03 
3.775800e-01 1.015455e+03 
3.788200e-01 1.011544e+03 
3.800300e-01 1.007758e+03 
3.812100e-01 1.004095e+03 
3.824200e-01 1.000367e+03 
3.836100e-01 9.967289e+02 
3.848600e-01 9.929371e+02 
3.860400e-01 9.893852e+02 
3.872400e-01 9.858004e+02 
3.884600e-01 9.821924e+02 
3.896500e-01 9.787031e+02 
3.908700e-01 9.751529e+02 
3.920600e-01 9.717160e+02 
3.933100e-01 9.681334e+02 
3.945300e-01 9.646635e+02 
3.957200e-01 9.612997e+02 
3.969300e-01 9.579035e+02 
3.981700e-01 9.544494e+02 
3.993500e-01 9.511867e+02 
4.094840e-01 9.240852e+02 
4.272360e-01 8.803522e+02 
4.454600e-01 8.395750e+02 
4.630560e-01 8.036105e+02 
4.804610e-01 7.709606e+02 
4.980690e-01 7.404983e+02 
5.159230e-01 7.120288e+02 
5.317440e-01 6.886007e+02 
5.489640e-01 6.648818e+02 
5.671990e-01 6.416133e+02 
5.838690e-01 6.218223e+02 
6.018840e-01 6.019046e+02 
6.202330e-01 5.830002e+02 
6.379250e-01 5.659798e+02 
6.545410e-01 5.509851e+02 
6.714560e-01 5.365659e+02 
6.892080e-01 5.223349e+02 
7.066010e-01 5.091244e+02 
7.240540e-01 4.965523e+02 
7.420450e-01 4.842589e+02 
7.593780e-01 4.729838e+02 
7.764720e-01 4.623524e+02 
7.942840e-01 4.517541e+02 
8.116170e-01 4.418408e+02 
8.288310e-01 4.323839e+02 
8.462240e-01 4.231805e+02 
8.631980e-01 4.145070e+02 
8.810700e-01 4.056902e+02 
8.989410e-01 3.971750e+02 
9.166330e-01 3.890110e+02 
9.345640e-01 3.809850e+02 
9.515980e-01 3.735862e+02 
9.688720e-01 3.662909e+02 
9.865640e-01 3.590160e+02 
1.031870e+00 3.413383e+02 
1.063490e+00 3.296458e+02 
1.097920e+00 3.175882e+02 
1.134370e+00 3.054000e+02 
1.167730e+00 2.947912e+02 
1.203830e+00 2.838357e+02 
1.240470e+00 2.732835e+02 
1.275790e+00 2.635494e+02 
1.309140e+00 2.548086e+02 
1.342970e+00 2.462636e+02 
1.378420e+00 2.377578e+02 
1.413200e+00 2.297748e+02 
1.448110e+00 2.220850e+02 
1.484090e+00 2.145440e+02 
1.518820e+00 2.075560e+02 
1.552880e+00 2.010122e+02 
1.588630e+00 1.944205e+02 
1.623230e+00 1.883310e+02 
1.657720e+00 1.825089e+02 
1.692450e+00 1.769191e+02 
1.726400e+00 1.716295e+02 
1.762200e+00 1.662774e+02 
1.797880e+00 1.611897e+02 
1.833270e+00 1.563309e+02 
1.869070e+00 1.516314e+02 
1.903200e+00 1.473267e+02 
1.937740e+00 1.431364e+02 
1.973190e+00 1.389950e+02 
2.007440e+00 1.351569e+02 
2.042160e+00 1.314214e+02 
2.077900e+00 1.277030e+02 
2.112390e+00 1.242689e+02 
2.146220e+00 1.209974e+02 
2.181600e+00 1.177141e+02 
2.216930e+00 1.145610e+02 
2.250760e+00 1.116365e+02 
2.286500e+00 1.086534e+02 
2.321770e+00 1.058323e+02 
2.355950e+00 1.032054e+02 
2.391280e+00 1.005620e+02 
2.426240e+00 9.803698e+01 
2.460670e+00 9.563503e+01 
2.495640e+00 9.327772e+01 
2.531080e+00 9.097971e+01 
2.566220e+00 8.876778e+01 
2.600830e+00 8.666335e+01 
2.635080e+00 8.465473e+01 
2.670340e+00 8.263786e+01 
2.705970e+00 8.067520e+01 
2.740040e+00 7.886252e+01 
2.774520e+00 7.708091e+01 
2.809730e+00 7.531879e+01 
2.844390e+00 7.363862e+01 
2.879960e+00 7.196670e+01 
2.914860e+00 7.037652e+01 
2.949410e+00 6.885002e+01 
2.984440e+00 6.734741e+01 
3.019760e+00 6.588288e+01 
3.054730e+00 6.447876e+01 
3.089030e+00 6.313311e+01 
3.124060e+00 6.180197e+01 
3.159560e+00 6.049668e+01 
3.194710e+00 5.923520e+01 
3.229010e+00 5.803800e+01 
3.263320e+00 5.687935e+01 
3.297930e+00 5.574294e+01 
3.332830e+00 5.462823e+01 
3.368040e+00 5.353452e+01 
3.403300e+00 5.246937e+01 
3.438450e+00 5.143631e+01 
3.473060e+00 5.044658e+01 
3.508440e+00 4.946697e+01 
3.543110e+00 4.853190e+01 
3.577470e+00 4.762477e+01 
3.613040e+00 4.671148e+01 
3.648120e+00 4.583764e+01 
3.682910e+00 4.499329e+01 
3.718050e+00 4.416214e+01 
3.753320e+00 4.334913e+01 
3.787980e+00 4.257016e+01 
3.822290e+00 4.181970e+01 
3.857020e+00 4.108117e+01 
3.891920e+00 4.035560e+01 
3.926650e+00 3.964830e+01 
3.961970e+00 3.894760e+01 
3.997360e+00 3.826548e+01 
4.031670e+00 3.761983e+01 
4.066330e+00 3.698290e+01 
4.101420e+00 3.635319e+01 
4.136200e+00 3.574639e+01 
4.170810e+00 3.515631e+01 
4.206250e+00 3.456591e+01 
4.241580e+00 3.399082e+01 
4.276300e+00 3.343928e+01 
4.310970e+00 3.290121e+01 
4.346120e+00 3.236829e+01 
4.380600e+00 3.185787e+01 
4.414730e+00 3.136346e+01 
4.450350e+00 3.085966e+01 
4.485320e+00 3.037577e+01 
4.519810e+00 2.990964e+01 
4.555430e+00 2.943890e+01 
4.590870e+00 2.898094e+01 
4.625480e+00 2.854390e+01 
4.659910e+00 2.811802e+01 
4.695230e+00 2.769126e+01 
4.729960e+00 2.728038e+01 
4.764450e+00 2.688101e+01 
4.799530e+00 2.648377e+01 
4.834910e+00 2.609120e+01 
4.869700e+00 2.571396e+01 
4.904370e+00 2.534556e+01 
4.939450e+00 2.498042e+01 
4.973940e+00 2.462928e+01 
5.008430e+00 2.428482e+01 
5.043810e+00 2.393910e+01 
5.078840e+00 2.360385e+01 
5.113500e+00 2.327841e+01 
5.148890e+00 2.295340e+01 
5.184210e+00 2.263520e+01 
5.219060e+00 2.232739e+01 
5.253660e+00 2.202824e+01 
5.288570e+00 2.173191e+01 
5.323420e+00 2.144200e+01 
5.358440e+00 2.115654e+01 
5.393590e+00 2.087518e+01 
5.428310e+00 2.060295e+01 
5.462800e+00 2.033764e+01 
5.497640e+00 2.007433e+01 
5.532670e+00 1.981503e+01 
5.567280e+00 1.956354e+01 
5.602000e+00 1.931558e+01 
5.637270e+00 1.906879e+01 
5.672410e+00 1.882731e+01 
5.707020e+00 1.859352e+01 
5.742040e+00 1.836177e+01 
5.777430e+00 1.813171e+01 
5.812210e+00 1.790941e+01 
5.846820e+00 1.769242e+01 
5.881610e+00 1.747803e+01 
5.916510e+00 1.726648e+01 
5.951600e+00 1.705794e+01 
5.986560e+00 1.685386e+01 
6.021830e+00 1.665130e+01 
6.056490e+00 1.645587e+01 
6.091160e+00 1.626384e+01 
6.125830e+00 1.607484e+01 
6.161090e+00 1.588586e+01 
6.195760e+00 1.570341e+01 
6.230420e+00 1.552385e+01 
6.265690e+00 1.534399e+01 
6.300950e+00 1.516781e+01 
6.335620e+00 1.499723e+01 
6.370880e+00 1.482641e+01 
6.405550e+00 1.466139e+01 
6.440220e+00 1.449901e+01 
6.475480e+00 1.433635e+01 
6.510150e+00 1.417901e+01 
6.544810e+00 1.402452e+01 
6.580080e+00 1.386964e+01 
6.614750e+00 1.371963e+01 
6.649410e+00 1.357232e+01 
6.684080e+00 1.342718e+01 
6.719340e+00 1.328172e+01 
6.754010e+00 1.314092e+01 
6.788680e+00 1.300248e+01 
6.823940e+00 1.286370e+01 
6.859800e+00 1.272459e+01 
6.894470e+00 1.259239e+01 
6.929140e+00 1.246216e+01 
6.963800e+00 1.233377e+01 
6.999070e+00 1.220498e+01 
7.033730e+00 1.208067e+01 
7.068400e+00 1.195803e+01 
7.103660e+00 1.183501e+01 
7.138330e+00 1.171585e+01 
7.173600e+00 1.159656e+01 
7.208260e+00 1.148093e+01 
7.243530e+00 1.136485e+01 
7.277600e+00 1.125442e+01 
7.312860e+00 1.114184e+01 
7.348120e+00 1.103077e+01 
7.382790e+00 1.092300e+01 
7.417460e+00 1.081691e+01 
7.452720e+00 1.071057e+01 
7.487390e+00 1.060738e+01 
7.522650e+00 1.050380e+01 
7.557320e+00 1.040352e+01 
7.591990e+00 1.030463e+01 
7.627250e+00 1.020534e+01 
7.662510e+00 1.010733e+01 
7.697180e+00 1.001244e+01 
7.731850e+00 9.918844e+00 
7.766510e+00 9.826441e+00 
7.801180e+00 9.735164e+00 
7.836440e+00 9.643672e+00 
7.871110e+00 9.554940e+00 
7.906380e+00 9.465794e+00 
7.941040e+00 9.379272e+00 
7.976310e+00 9.292439e+00 
8.011570e+00 9.206855e+00 
8.046240e+00 9.123730e+00 
8.080900e+00 9.041631e+00 
8.115570e+00 8.960564e+00 
8.150830e+00 8.879375e+00 
8.185500e+00 8.800502e+00 
8.220770e+00 8.721224e+00 
8.255430e+00 8.644245e+00 
8.290100e+00 8.568339e+00 
8.324770e+00 8.493343e+00 
8.359430e+00 8.419245e+00 
8.394700e+00 8.344727e+00 
8.429960e+00 8.271230e+00 
8.464630e+00 8.199928e+00 
8.499890e+00 8.128252e+00 
8.534560e+00 8.058590e+00 
8.569200e+00 7.989782e+00 
