# Parameters:
# omega_b = 0.022713, omega_m = 0.155000, n_s = 0.850000, h = 70.118110, w = -1.000000, sigma_8 = 0.811811
# z = 0.700000
#
# k[1/Mpc] # P(k):
8.694000e-04 9.743495e+03 
2.077466e-03 1.899290e+04 
3.285532e-03 2.574286e+04 
4.493598e-03 3.073371e+04 
5.701664e-03 3.431996e+04 
6.909730e-03 3.678236e+04 
8.117797e-03 3.839383e+04 
9.325863e-03 3.929510e+04 
1.053393e-02 3.961571e+04 
1.174199e-02 3.947038e+04 
1.295006e-02 3.893147e+04 
1.415813e-02 3.809325e+04 
1.536619e-02 3.703193e+04 
1.657426e-02 3.579208e+04 
1.778233e-02 3.437412e+04 
1.899039e-02 3.281496e+04 
2.019846e-02 3.123728e+04 
2.140652e-02 2.973264e+04 
2.261459e-02 2.829367e+04 
2.382266e-02 2.692323e+04 
2.503072e-02 2.563394e+04 
2.623879e-02 2.443200e+04 
2.744685e-02 2.331805e+04 
2.865492e-02 2.229681e+04 
2.986299e-02 2.136512e+04 
3.100100e-02 2.056802e+04 
3.220400e-02 1.980456e+04 
3.288100e-02 1.941042e+04 
3.424300e-02 1.868673e+04 
3.555100e-02 1.806836e+04 
3.686000e-02 1.751649e+04 
3.795000e-02 1.709964e+04 
3.929100e-02 1.663455e+04 
4.039800e-02 1.628025e+04 
4.164000e-02 1.590671e+04 
4.294400e-02 1.553210e+04 
4.415000e-02 1.519703e+04 
4.542900e-02 1.484155e+04 
4.660900e-02 1.451506e+04 
4.782300e-02 1.416630e+04 
4.892900e-02 1.384377e+04 
5.031200e-02 1.342858e+04 
5.155900e-02 1.304066e+04 
5.238100e-02 1.277984e+04 
5.378200e-02 1.232868e+04 
5.513400e-02 1.188598e+04 
5.627600e-02 1.151018e+04 
5.735300e-02 1.115809e+04 
5.870100e-02 1.072431e+04 
5.988700e-02 1.035343e+04 
6.113500e-02 9.976503e+03 
6.225900e-02 9.651058e+03 
6.340100e-02 9.336320e+03 
6.480200e-02 8.973216e+03 
6.601100e-02 8.682464e+03 
6.725500e-02 8.405340e+03 
6.829100e-02 8.193150e+03 
6.958600e-02 7.947948e+03 
7.071100e-02 7.754259e+03 
7.192300e-02 7.563447e+03 
7.307400e-02 7.398272e+03 
7.412300e-02 7.260099e+03 
7.550400e-02 7.095463e+03 
7.663100e-02 6.972187e+03 
7.791200e-02 6.844903e+03 
7.912700e-02 6.733507e+03 
8.027600e-02 6.634185e+03 
8.138400e-02 6.542517e+03 
8.272200e-02 6.435693e+03 
8.406100e-02 6.331248e+03 
8.534100e-02 6.231329e+03 
8.653800e-02 6.136246e+03 
8.759800e-02 6.050979e+03 
8.900300e-02 5.935357e+03 
9.009000e-02 5.842959e+03 
9.113300e-02 5.751141e+03 
9.239600e-02 5.638360e+03 
9.358000e-02 5.529930e+03 
9.496100e-02 5.399550e+03 
9.608400e-02 5.292842e+03 
9.727500e-02 5.179925e+03 
9.852600e-02 5.059204e+03 
9.973800e-02 4.944292e+03 
1.009000e-01 4.836131e+03 
1.020900e-01 4.727164e+03 
1.034000e-01 4.611221e+03 
1.046000e-01 4.508658e+03 
1.057200e-01 4.417517e+03 
1.069100e-01 4.324391e+03 
1.082500e-01 4.225906e+03 
1.093900e-01 4.147162e+03 
1.105400e-01 4.071343e+03 
1.116900e-01 4.001704e+03 
1.129600e-01 3.928402e+03 
1.142000e-01 3.862811e+03 
1.153300e-01 3.806245e+03 
1.166400e-01 3.744950e+03 
1.177800e-01 3.695175e+03 
1.190000e-01 3.644231e+03 
1.201200e-01 3.600398e+03 
1.213400e-01 3.554105e+03 
1.227100e-01 3.504705e+03 
1.238900e-01 3.463255e+03 
1.250700e-01 3.422748e+03 
1.263200e-01 3.380540e+03 
1.275500e-01 3.339312e+03 
1.287500e-01 3.299354e+03 
1.299900e-01 3.257961e+03 
1.311300e-01 3.219832e+03 
1.323500e-01 3.178532e+03 
1.335900e-01 3.136407e+03 
1.347100e-01 3.097729e+03 
1.359800e-01 3.053917e+03 
1.372100e-01 3.010618e+03 
1.384300e-01 2.967964e+03 
1.395700e-01 2.927370e+03 
1.407700e-01 2.885388e+03 
1.420300e-01 2.840636e+03 
1.432800e-01 2.797252e+03 
1.444500e-01 2.756562e+03 
1.456300e-01 2.716394e+03 
1.468900e-01 2.674517e+03 
1.480500e-01 2.636815e+03 
1.491700e-01 2.601490e+03 
1.503800e-01 2.564541e+03 
1.516400e-01 2.527155e+03 
1.528200e-01 2.494056e+03 
1.540200e-01 2.461067e+03 
1.551900e-01 2.430886e+03 
1.564300e-01 2.399853e+03 
1.576600e-01 2.370410e+03 
1.588700e-01 2.342882e+03 
1.600900e-01 2.315720e+03 
1.612700e-01 2.291145e+03 
1.625400e-01 2.265190e+03 
1.637600e-01 2.241174e+03 
1.649500e-01 2.218432e+03 
1.662200e-01 2.194630e+03 
1.674000e-01 2.173053e+03 
1.685000e-01 2.153275e+03 
1.697500e-01 2.131012e+03 
1.710300e-01 2.108460e+03 
1.722200e-01 2.087866e+03 
1.734400e-01 2.066466e+03 
1.746400e-01 2.045752e+03 
1.758700e-01 2.024642e+03 
1.770900e-01 2.003572e+03 
1.782700e-01 1.983535e+03 
1.794600e-01 1.963276e+03 
1.807000e-01 1.942261e+03 
1.819100e-01 1.922103e+03 
1.830100e-01 1.903717e+03 
1.842200e-01 1.883755e+03 
1.855000e-01 1.862988e+03 
1.867000e-01 1.843668e+03 
1.879200e-01 1.824348e+03 
1.890900e-01 1.806125e+03 
1.902800e-01 1.787927e+03 
1.915200e-01 1.769270e+03 
1.926900e-01 1.751996e+03 
1.939000e-01 1.734571e+03 
1.951700e-01 1.716576e+03 
1.963100e-01 1.700752e+03 
1.975100e-01 1.684552e+03 
1.987800e-01 1.667675e+03 
2.000100e-01 1.651678e+03 
2.012500e-01 1.636008e+03 
2.023400e-01 1.622432e+03 
2.036100e-01 1.606900e+03 
2.048900e-01 1.591705e+03 
2.060400e-01 1.578253e+03 
2.072200e-01 1.564660e+03 
2.084200e-01 1.551210e+03 
2.096900e-01 1.537184e+03 
2.109200e-01 1.523802e+03 
2.121100e-01 1.511133e+03 
2.132700e-01 1.498958e+03 
2.145200e-01 1.486022e+03 
2.157200e-01 1.473834e+03 
2.168800e-01 1.462238e+03 
2.180700e-01 1.450501e+03 
2.193400e-01 1.438162e+03 
2.206000e-01 1.426119e+03 
2.217500e-01 1.415275e+03 
2.229500e-01 1.404108e+03 
2.241400e-01 1.393233e+03 
2.253500e-01 1.382323e+03 
2.264900e-01 1.372177e+03 
2.277100e-01 1.361491e+03 
2.289900e-01 1.350468e+03 
2.301500e-01 1.340610e+03 
2.313600e-01 1.330459e+03 
2.325600e-01 1.320614e+03 
2.337700e-01 1.310813e+03 
2.350000e-01 1.300979e+03 
2.362000e-01 1.291551e+03 
2.374100e-01 1.282217e+03 
2.386500e-01 1.272772e+03 
2.399100e-01 1.263298e+03 
2.410400e-01 1.254994e+03 
2.422500e-01 1.246219e+03 
2.435000e-01 1.237267e+03 
2.447300e-01 1.228583e+03 
2.458700e-01 1.220688e+03 
2.470600e-01 1.212542e+03 
2.483300e-01 1.203955e+03 
2.495600e-01 1.195760e+03 
2.507600e-01 1.187885e+03 
2.519600e-01 1.180102e+03 
2.532200e-01 1.172029e+03 
2.543700e-01 1.164749e+03 
2.555500e-01 1.157366e+03 
2.568000e-01 1.149636e+03 
2.580100e-01 1.142241e+03 
2.592400e-01 1.134795e+03 
2.604100e-01 1.127785e+03 
2.616100e-01 1.120676e+03 
2.628400e-01 1.113472e+03 
2.640600e-01 1.106377e+03 
2.652200e-01 1.099695e+03 
2.664300e-01 1.092800e+03 
2.676500e-01 1.085926e+03 
2.688400e-01 1.079267e+03 
2.700700e-01 1.072442e+03 
2.712400e-01 1.066021e+03 
2.724800e-01 1.059290e+03 
2.736700e-01 1.052875e+03 
2.748800e-01 1.046397e+03 
2.761000e-01 1.039935e+03 
2.773200e-01 1.033545e+03 
2.785400e-01 1.027210e+03 
2.797000e-01 1.021223e+03 
2.808900e-01 1.015145e+03 
2.821400e-01 1.008829e+03 
2.833900e-01 1.002580e+03 
2.845500e-01 9.968106e+02 
2.857800e-01 9.907562e+02 
2.870300e-01 9.846690e+02 
2.882100e-01 9.789826e+02 
2.893900e-01 9.733429e+02 
2.906300e-01 9.674717e+02 
2.918900e-01 9.615689e+02 
2.930500e-01 9.561901e+02 
2.942500e-01 9.506766e+02 
2.954200e-01 9.453404e+02 
2.966500e-01 9.397867e+02 
2.978900e-01 9.342452e+02 
2.990400e-01 9.291567e+02 
3.002700e-01 9.237648e+02 
3.015100e-01 9.183829e+02 
3.026800e-01 9.133547e+02 
3.038500e-01 9.083745e+02 
3.050300e-01 9.033995e+02 
3.062600e-01 8.982621e+02 
3.075000e-01 8.931343e+02 
3.087000e-01 8.882205e+02 
3.099100e-01 8.833133e+02 
3.111200e-01 8.784561e+02 
3.123100e-01 8.737291e+02 
3.135300e-01 8.689290e+02 
3.147300e-01 8.642525e+02 
3.159900e-01 8.593894e+02 
3.171800e-01 8.548448e+02 
3.183700e-01 8.503450e+02 
3.196300e-01 8.456256e+02 
3.208400e-01 8.411366e+02 
3.220300e-01 8.367625e+02 
3.232000e-01 8.325126e+02 
3.244300e-01 8.280904e+02 
3.256700e-01 8.236739e+02 
3.269200e-01 8.192637e+02 
3.280800e-01 8.152082e+02 
3.292500e-01 8.111666e+02 
3.304800e-01 8.069600e+02 
3.317100e-01 8.027919e+02 
3.328900e-01 7.988290e+02 
3.340700e-01 7.949005e+02 
3.353600e-01 7.906615e+02 
3.365300e-01 7.868577e+02 
3.377100e-01 7.830543e+02 
3.389200e-01 7.791882e+02 
3.401600e-01 7.752613e+02 
3.413700e-01 7.714758e+02 
3.425300e-01 7.678863e+02 
3.437700e-01 7.640822e+02 
3.449800e-01 7.604026e+02 
3.461800e-01 7.567848e+02 
3.473600e-01 7.532648e+02 
3.485800e-01 7.496751e+02 
3.498100e-01 7.460870e+02 
3.510200e-01 7.425876e+02 
3.522000e-01 7.392033e+02 
3.533900e-01 7.358186e+02 
3.546400e-01 7.323136e+02 
3.558400e-01 7.289784e+02 
3.570600e-01 7.256158e+02 
3.582700e-01 7.223087e+02 
3.595000e-01 7.189749e+02 
3.607100e-01 7.157342e+02 
3.618900e-01 7.126084e+02 
3.631200e-01 7.093767e+02 
3.643200e-01 7.062497e+02 
3.655500e-01 7.030707e+02 
3.667300e-01 7.000456e+02 
3.679500e-01 6.969612e+02 
3.691900e-01 6.938518e+02 
3.703600e-01 6.909415e+02 
3.715700e-01 6.879553e+02 
3.727700e-01 6.850173e+02 
3.739900e-01 6.820614e+02 
3.752000e-01 6.791665e+02 
3.763900e-01 6.763417e+02 
3.775800e-01 6.735388e+02 
3.788200e-01 6.706411e+02 
3.800300e-01 6.678358e+02 
3.812100e-01 6.651272e+02 
3.824200e-01 6.623752e+02 
3.836100e-01 6.596894e+02 
3.848600e-01 6.568902e+02 
3.860400e-01 6.542681e+02 
3.872400e-01 6.516216e+02 
3.884600e-01 6.489629e+02 
3.896500e-01 6.463934e+02 
3.908700e-01 6.437791e+02 
3.920600e-01 6.412482e+02 
3.933100e-01 6.386100e+02 
3.945300e-01 6.360548e+02 
3.957200e-01 6.335876e+02 
3.969300e-01 6.310994e+02 
3.981700e-01 6.285687e+02 
3.993500e-01 6.261783e+02 
4.094840e-01 6.063511e+02 
4.272360e-01 5.745269e+02 
4.454600e-01 5.450296e+02 
4.630560e-01 5.191582e+02 
4.804610e-01 4.957553e+02 
4.980690e-01 4.740144e+02 
5.159230e-01 4.537503e+02 
5.317440e-01 4.371309e+02 
5.489640e-01 4.203509e+02 
5.671990e-01 4.039439e+02 
5.838690e-01 3.900321e+02 
6.018840e-01 3.760764e+02 
6.202330e-01 3.629068e+02 
6.379250e-01 3.510835e+02 
6.545410e-01 3.407285e+02 
6.714560e-01 3.308204e+02 
6.892080e-01 3.210844e+02 
7.066010e-01 3.121163e+02 
7.240540e-01 3.036286e+02 
7.420450e-01 2.953888e+02 
7.593780e-01 2.878791e+02 
7.764720e-01 2.808438e+02 
7.942840e-01 2.738802e+02 
8.116170e-01 2.674240e+02 
8.288310e-01 2.613044e+02 
8.462240e-01 2.553873e+02 
8.631980e-01 2.498500e+02 
8.810700e-01 2.442572e+02 
8.989410e-01 2.388901e+02 
9.166330e-01 2.337777e+02 
9.345640e-01 2.287865e+02 
9.515980e-01 2.242103e+02 
9.688720e-01 2.197237e+02 
9.865640e-01 2.152768e+02 
1.031870e+00 2.045434e+02 
1.063490e+00 1.975185e+02 
1.097920e+00 1.903211e+02 
1.134370e+00 1.830889e+02 
1.167730e+00 1.768327e+02 
1.203830e+00 1.703988e+02 
1.240470e+00 1.642267e+02 
1.275790e+00 1.585502e+02 
1.309140e+00 1.534629e+02 
1.342970e+00 1.485048e+02 
1.378420e+00 1.435726e+02 
1.413200e+00 1.389491e+02 
1.448110e+00 1.345011e+02 
1.484090e+00 1.301407e+02 
1.518820e+00 1.260988e+02 
1.552880e+00 1.223140e+02 
1.588630e+00 1.184975e+02 
1.623230e+00 1.149718e+02 
1.657720e+00 1.115981e+02 
1.692450e+00 1.083573e+02 
1.726400e+00 1.052879e+02 
1.762200e+00 1.021801e+02 
1.797880e+00 9.922030e+01 
1.833270e+00 9.638924e+01 
1.869070e+00 9.364963e+01 
1.903200e+00 9.113596e+01 
1.937740e+00 8.868494e+01 
1.973190e+00 8.626088e+01 
2.007440e+00 8.400903e+01 
2.042160e+00 8.181558e+01 
2.077900e+00 7.962768e+01 
2.112390e+00 7.760419e+01 
2.146220e+00 7.567214e+01 
2.181600e+00 7.373225e+01 
2.216930e+00 7.186474e+01 
2.250760e+00 7.012992e+01 
2.286500e+00 6.835770e+01 
2.321770e+00 6.667810e+01 
2.355950e+00 6.511204e+01 
2.391280e+00 6.353442e+01 
2.426240e+00 6.202396e+01 
2.460670e+00 6.058444e+01 
2.495640e+00 5.916971e+01 
2.531080e+00 5.778865e+01 
2.566220e+00 5.645581e+01 
2.600830e+00 5.518573e+01 
2.635080e+00 5.397210e+01 
2.670340e+00 5.275093e+01 
2.705970e+00 5.156044e+01 
2.740040e+00 5.045940e+01 
2.774520e+00 4.937621e+01 
2.809730e+00 4.830260e+01 
2.844390e+00 4.727728e+01 
2.879960e+00 4.625510e+01 
2.914860e+00 4.528115e+01 
2.949410e+00 4.434496e+01 
2.984440e+00 4.342164e+01 
3.019760e+00 4.252054e+01 
3.054730e+00 4.165569e+01 
3.089030e+00 4.082469e+01 
3.124060e+00 4.000177e+01 
3.159560e+00 3.919374e+01 
3.194710e+00 3.841124e+01 
3.229010e+00 3.766781e+01 
3.263320e+00 3.694694e+01 
3.297930e+00 3.623916e+01 
3.332830e+00 3.554374e+01 
3.368040e+00 3.486043e+01 
3.403300e+00 3.419418e+01 
3.438450e+00 3.354667e+01 
3.473060e+00 3.292580e+01 
3.508440e+00 3.231012e+01 
3.543110e+00 3.172201e+01 
3.577470e+00 3.115018e+01 
3.613040e+00 3.057402e+01 
3.648120e+00 3.002189e+01 
3.682910e+00 2.948785e+01 
3.718050e+00 2.896134e+01 
3.753320e+00 2.844573e+01 
3.787980e+00 2.795094e+01 
3.822290e+00 2.747380e+01 
3.857020e+00 2.700364e+01 
3.891920e+00 2.654125e+01 
3.926650e+00 2.608975e+01 
3.961970e+00 2.564210e+01 
3.997360e+00 2.520565e+01 
4.031670e+00 2.479227e+01 
4.066330e+00 2.438374e+01 
4.101420e+00 2.397970e+01 
4.136200e+00 2.358968e+01 
4.170810e+00 2.321030e+01 
4.206250e+00 2.283002e+01 
4.241580e+00 2.245939e+01 
4.276300e+00 2.210346e+01 
4.310970e+00 2.175592e+01 
4.346120e+00 2.141141e+01 
4.380600e+00 2.108102e+01 
4.414730e+00 2.076091e+01 
4.450350e+00 2.043412e+01 
4.485320e+00 2.012017e+01 
4.519810e+00 1.981731e+01 
4.555430e+00 1.951124e+01 
4.590870e+00 1.921329e+01 
4.625480e+00 1.892860e+01 
4.659910e+00 1.865114e+01 
4.695230e+00 1.837267e+01 
4.729960e+00 1.810445e+01 
4.764450e+00 1.784357e+01 
4.799530e+00 1.758380e+01 
4.834910e+00 1.732705e+01 
4.869700e+00 1.707997e+01 
4.904370e+00 1.683858e+01 
4.939450e+00 1.659922e+01 
4.973940e+00 1.636875e+01 
5.008430e+00 1.614265e+01 
5.043810e+00 1.591549e+01 
5.078840e+00 1.569508e+01 
5.113500e+00 1.548109e+01 
5.148890e+00 1.526711e+01 
5.184210e+00 1.505757e+01 
5.219060e+00 1.485480e+01 
5.253660e+00 1.465755e+01 
5.288570e+00 1.446213e+01 
5.323420e+00 1.427082e+01 
5.358440e+00 1.408231e+01 
5.393590e+00 1.389650e+01 
5.428310e+00 1.371657e+01 
5.462800e+00 1.354114e+01 
5.497640e+00 1.336701e+01 
5.532670e+00 1.319540e+01 
5.567280e+00 1.302891e+01 
5.602000e+00 1.286475e+01 
5.637270e+00 1.270122e+01 
5.672410e+00 1.254118e+01 
5.707020e+00 1.238622e+01 
5.742040e+00 1.223250e+01 
5.777430e+00 1.207987e+01 
5.812210e+00 1.193239e+01 
5.846820e+00 1.178833e+01 
5.881610e+00 1.164598e+01 
5.916510e+00 1.150551e+01 
5.951600e+00 1.136697e+01 
5.986560e+00 1.123136e+01 
6.021830e+00 1.109677e+01 
6.056490e+00 1.096685e+01 
6.091160e+00 1.083916e+01 
6.125830e+00 1.071348e+01 
6.161090e+00 1.058779e+01 
6.195760e+00 1.046642e+01 
6.230420e+00 1.034695e+01 
6.265690e+00 1.022729e+01 
6.300950e+00 1.011002e+01 
6.335620e+00 9.996478e+00 
6.370880e+00 9.882769e+00 
6.405550e+00 9.772909e+00 
6.440220e+00 9.664794e+00 
6.475480e+00 9.556493e+00 
6.510150e+00 9.451728e+00 
6.544810e+00 9.348836e+00 
6.580080e+00 9.245682e+00 
6.614750e+00 9.145776e+00 
6.649410e+00 9.047655e+00 
6.684080e+00 8.950982e+00 
6.719340e+00 8.854091e+00 
6.754010e+00 8.760302e+00 
6.788680e+00 8.668097e+00 
6.823940e+00 8.575663e+00 
6.859800e+00 8.483015e+00 
6.894470e+00 8.394959e+00 
6.929140e+00 8.308219e+00 
6.963800e+00 8.222709e+00 
6.999070e+00 8.136931e+00 
7.033730e+00 8.054153e+00 
7.068400e+00 7.972483e+00 
7.103660e+00 7.890565e+00 
7.138330e+00 7.811219e+00 
7.173600e+00 7.731802e+00 
7.208260e+00 7.654816e+00 
7.243530e+00 7.577532e+00 
7.277600e+00 7.504027e+00 
7.312860e+00 7.429105e+00 
7.348120e+00 7.355187e+00 
7.382790e+00 7.283469e+00 
7.417460e+00 7.212884e+00 
7.452720e+00 7.142141e+00 
7.487390e+00 7.073490e+00 
7.522650e+00 7.004579e+00 
7.557320e+00 6.937901e+00 
7.591990e+00 6.872149e+00 
7.627250e+00 6.806137e+00 
7.662510e+00 6.740975e+00 
7.697180e+00 6.677910e+00 
7.731850e+00 6.615712e+00 
7.766510e+00 6.554308e+00 
7.801180e+00 6.493650e+00 
7.836440e+00 6.432874e+00 
7.871110e+00 6.373946e+00 
7.906380e+00 6.314741e+00 
7.941040e+00 6.257278e+00 
7.976310e+00 6.199629e+00 
8.011570e+00 6.142834e+00 
8.046240e+00 6.087669e+00 
8.080900e+00 6.033183e+00 
8.115570e+00 5.979389e+00 
8.150830e+00 5.925546e+00 
8.185500e+00 5.873237e+00 
8.220770e+00 5.820658e+00 
8.255430e+00 5.769601e+00 
8.290100e+00 5.719301e+00 
8.324770e+00 5.669609e+00 
8.359430e+00 5.620509e+00 
8.394700e+00 5.571128e+00 
8.429960e+00 5.522446e+00 
8.464630e+00 5.475240e+00 
8.499890e+00 5.427785e+00 
8.534560e+00 5.381660e+00 
8.569200e+00 5.336098e+00 
