# Parameters:
# omega_b = 0.022697, omega_m = 0.134331, n_s = 0.977559, h = 57.362205, w = -1.000000, sigma_8 = 0.714173
# z = 0.700000
#
# k[1/Mpc] # P(k):
8.694000e-04 7.682703e+03 
2.077466e-03 1.652528e+04 
3.285532e-03 2.342604e+04 
4.493598e-03 2.869820e+04 
5.701664e-03 3.258678e+04 
6.909730e-03 3.531122e+04 
8.117797e-03 3.712016e+04 
9.325863e-03 3.814520e+04 
1.053393e-02 3.852056e+04 
1.174199e-02 3.837391e+04 
1.295006e-02 3.778311e+04 
1.415813e-02 3.685387e+04 
1.536619e-02 3.567994e+04 
1.657426e-02 3.433915e+04 
1.778233e-02 3.297677e+04 
1.899039e-02 3.173668e+04 
2.019846e-02 3.049328e+04 
2.140652e-02 2.917014e+04 
2.261459e-02 2.783115e+04 
2.382266e-02 2.654217e+04 
2.503072e-02 2.532917e+04 
2.623879e-02 2.419983e+04 
2.744685e-02 2.315551e+04 
2.865492e-02 2.219963e+04 
2.986299e-02 2.132849e+04 
3.100100e-02 2.058338e+04 
3.220400e-02 1.986857e+04 
3.288100e-02 1.949834e+04 
3.424300e-02 1.881492e+04 
3.555100e-02 1.822520e+04 
3.686000e-02 1.769193e+04 
3.795000e-02 1.728337e+04 
3.929100e-02 1.681857e+04 
4.039800e-02 1.645817e+04 
4.164000e-02 1.607287e+04 
4.294400e-02 1.568030e+04 
4.415000e-02 1.532706e+04 
4.542900e-02 1.495164e+04 
4.660900e-02 1.460806e+04 
4.782300e-02 1.424509e+04 
4.892900e-02 1.391290e+04 
5.031200e-02 1.349124e+04 
5.155900e-02 1.310358e+04 
5.238100e-02 1.284587e+04 
5.378200e-02 1.240468e+04 
5.513400e-02 1.197677e+04 
5.627600e-02 1.161637e+04 
5.735300e-02 1.128017e+04 
5.870100e-02 1.086700e+04 
5.988700e-02 1.051379e+04 
6.113500e-02 1.015428e+04 
6.225900e-02 9.842889e+03 
6.340100e-02 9.540443e+03 
6.480200e-02 9.189783e+03 
6.601100e-02 8.907065e+03 
6.725500e-02 8.635978e+03 
6.829100e-02 8.427161e+03 
6.958600e-02 8.184872e+03 
7.071100e-02 7.992639e+03 
7.192300e-02 7.802717e+03 
7.307400e-02 7.637995e+03 
7.412300e-02 7.500061e+03 
7.550400e-02 7.335632e+03 
7.663100e-02 7.212498e+03 
7.791200e-02 7.085311e+03 
7.912700e-02 6.973745e+03 
8.027600e-02 6.873861e+03 
8.138400e-02 6.781156e+03 
8.272200e-02 6.672182e+03 
8.406100e-02 6.564392e+03 
8.534100e-02 6.459640e+03 
8.653800e-02 6.358588e+03 
8.759800e-02 6.267202e+03 
8.900300e-02 6.142251e+03 
9.009000e-02 6.041783e+03 
9.113300e-02 5.941796e+03 
9.239600e-02 5.819084e+03 
9.358000e-02 5.701506e+03 
9.496100e-02 5.561410e+03 
9.608400e-02 5.447780e+03 
9.727500e-02 5.328405e+03 
9.852600e-02 5.203382e+03 
9.973800e-02 5.085620e+03 
1.009000e-01 4.975785e+03 
1.020900e-01 4.867648e+03 
1.034000e-01 4.753586e+03 
1.046000e-01 4.653718e+03 
1.057200e-01 4.566370e+03 
1.069100e-01 4.477473e+03 
1.082500e-01 4.384395e+03 
1.093900e-01 4.310182e+03 
1.105400e-01 4.238833e+03 
1.116900e-01 4.173142e+03 
1.129600e-01 4.103800e+03 
1.142000e-01 4.041069e+03 
1.153300e-01 3.986470e+03 
1.166400e-01 3.926529e+03 
1.177800e-01 3.876846e+03 
1.190000e-01 3.825505e+03 
1.201200e-01 3.779970e+03 
1.213400e-01 3.731624e+03 
1.227100e-01 3.678234e+03 
1.238900e-01 3.633137e+03 
1.250700e-01 3.588135e+03 
1.263200e-01 3.541040e+03 
1.275500e-01 3.494585e+03 
1.287500e-01 3.449566e+03 
1.299900e-01 3.402936e+03 
1.311300e-01 3.360251e+03 
1.323500e-01 3.314409e+03 
1.335900e-01 3.268136e+03 
1.347100e-01 3.226268e+03 
1.359800e-01 3.179321e+03 
1.372100e-01 3.133857e+03 
1.384300e-01 3.089460e+03 
1.395700e-01 3.048120e+03 
1.407700e-01 3.005469e+03 
1.420300e-01 2.961096e+03 
1.432800e-01 2.918062e+03 
1.444500e-01 2.878482e+03 
1.456300e-01 2.839389e+03 
1.468900e-01 2.798887e+03 
1.480500e-01 2.762485e+03 
1.491700e-01 2.728347e+03 
1.503800e-01 2.692605e+03 
1.516400e-01 2.656349e+03 
1.528200e-01 2.623922e+03 
1.540200e-01 2.591588e+03 
1.551900e-01 2.561511e+03 
1.564300e-01 2.530453e+03 
1.576600e-01 2.500667e+03 
1.588700e-01 2.472428e+03 
1.600900e-01 2.444528e+03 
1.612700e-01 2.418663e+03 
1.625400e-01 2.391345e+03 
1.637600e-01 2.365783e+03 
1.649500e-01 2.341409e+03 
1.662200e-01 2.315867e+03 
1.674000e-01 2.292537e+03 
1.685000e-01 2.271153e+03 
1.697500e-01 2.247107e+03 
1.710300e-01 2.222776e+03 
1.722200e-01 2.200557e+03 
1.734400e-01 2.177696e+03 
1.746400e-01 2.155577e+03 
1.758700e-01 2.133140e+03 
1.770900e-01 2.110953e+03 
1.782700e-01 2.089854e+03 
1.794600e-01 2.068702e+03 
1.807000e-01 2.046880e+03 
1.819100e-01 2.025947e+03 
1.830100e-01 2.007049e+03 
1.842200e-01 1.986561e+03 
1.855000e-01 1.965252e+03 
1.867000e-01 1.945583e+03 
1.879200e-01 1.925910e+03 
1.890900e-01 1.907365e+03 
1.902800e-01 1.888908e+03 
1.915200e-01 1.869983e+03 
1.926900e-01 1.852459e+03 
1.939000e-01 1.834787e+03 
1.951700e-01 1.816533e+03 
1.963100e-01 1.800469e+03 
1.975100e-01 1.783995e+03 
1.987800e-01 1.766830e+03 
2.000100e-01 1.750535e+03 
2.012500e-01 1.734522e+03 
2.023400e-01 1.720648e+03 
2.036100e-01 1.704753e+03 
2.048900e-01 1.689123e+03 
2.060400e-01 1.675287e+03 
2.072200e-01 1.661294e+03 
2.084200e-01 1.647342e+03 
2.096900e-01 1.632792e+03 
2.109200e-01 1.618908e+03 
2.121100e-01 1.605626e+03 
2.132700e-01 1.592853e+03 
2.145200e-01 1.579282e+03 
2.157200e-01 1.566362e+03 
2.168800e-01 1.554007e+03 
2.180700e-01 1.541503e+03 
2.193400e-01 1.528261e+03 
2.206000e-01 1.515155e+03 
2.217500e-01 1.503356e+03 
2.229500e-01 1.491205e+03 
2.241400e-01 1.479043e+03 
2.253500e-01 1.466835e+03 
2.264900e-01 1.455483e+03 
2.277100e-01 1.443331e+03 
2.289900e-01 1.430579e+03 
2.301500e-01 1.419177e+03 
2.313600e-01 1.407435e+03 
2.325600e-01 1.395620e+03 
2.337700e-01 1.383863e+03 
2.350000e-01 1.372069e+03 
2.362000e-01 1.360585e+03 
2.374100e-01 1.349002e+03 
2.386500e-01 1.337288e+03 
2.399100e-01 1.325544e+03 
2.410400e-01 1.315003e+03 
2.422500e-01 1.303839e+03 
2.435000e-01 1.292456e+03 
2.447300e-01 1.281391e+03 
2.458700e-01 1.271220e+03 
2.470600e-01 1.260733e+03 
2.483300e-01 1.249684e+03 
2.495600e-01 1.239154e+03 
2.507600e-01 1.229056e+03 
2.519600e-01 1.219081e+03 
2.532200e-01 1.208739e+03 
2.543700e-01 1.199524e+03 
2.555500e-01 1.190254e+03 
2.568000e-01 1.180554e+03 
2.580100e-01 1.171278e+03 
2.592400e-01 1.162141e+03 
2.604100e-01 1.153629e+03 
2.616100e-01 1.145000e+03 
2.628400e-01 1.136260e+03 
2.640600e-01 1.127891e+03 
2.652200e-01 1.120102e+03 
2.664300e-01 1.112068e+03 
2.676500e-01 1.104061e+03 
2.688400e-01 1.096494e+03 
2.700700e-01 1.088858e+03 
2.712400e-01 1.081674e+03 
2.724800e-01 1.074146e+03 
2.736700e-01 1.067097e+03 
2.748800e-01 1.060108e+03 
2.761000e-01 1.053138e+03 
2.773200e-01 1.046244e+03 
2.785400e-01 1.039471e+03 
2.797000e-01 1.033193e+03 
2.808900e-01 1.026819e+03 
2.821400e-01 1.020196e+03 
2.833900e-01 1.013649e+03 
2.845500e-01 1.007716e+03 
2.857800e-01 1.001491e+03 
2.870300e-01 9.952315e+02 
2.882100e-01 9.893847e+02 
2.893900e-01 9.836323e+02 
2.906300e-01 9.776686e+02 
2.918900e-01 9.716730e+02 
2.930500e-01 9.662095e+02 
2.942500e-01 9.606182e+02 
2.954200e-01 9.552349e+02 
2.966500e-01 9.496321e+02 
2.978900e-01 9.440416e+02 
2.990400e-01 9.389082e+02 
3.002700e-01 9.334805e+02 
3.015100e-01 9.280686e+02 
3.026800e-01 9.230124e+02 
3.038500e-01 9.180043e+02 
3.050300e-01 9.130016e+02 
3.062600e-01 9.078425e+02 
3.075000e-01 9.026932e+02 
3.087000e-01 8.977586e+02 
3.099100e-01 8.928307e+02 
3.111200e-01 8.879533e+02 
3.123100e-01 8.832075e+02 
3.135300e-01 8.783883e+02 
3.147300e-01 8.736931e+02 
3.159900e-01 8.688106e+02 
3.171800e-01 8.642472e+02 
3.183700e-01 8.597285e+02 
3.196300e-01 8.549893e+02 
3.208400e-01 8.504814e+02 
3.220300e-01 8.460888e+02 
3.232000e-01 8.418201e+02 
3.244300e-01 8.373779e+02 
3.256700e-01 8.329415e+02 
3.269200e-01 8.285113e+02 
3.280800e-01 8.244373e+02 
3.292500e-01 8.203763e+02 
3.304800e-01 8.161491e+02 
3.317100e-01 8.119605e+02 
3.328900e-01 8.079781e+02 
3.340700e-01 8.040304e+02 
3.353600e-01 7.997695e+02 
3.365300e-01 7.959457e+02 
3.377100e-01 7.921222e+02 
3.389200e-01 7.882356e+02 
3.401600e-01 7.842880e+02 
3.413700e-01 7.804821e+02 
3.425300e-01 7.768729e+02 
3.437700e-01 7.730480e+02 
3.449800e-01 7.693483e+02 
3.461800e-01 7.657106e+02 
3.473600e-01 7.621712e+02 
3.485800e-01 7.585612e+02 
3.498100e-01 7.549530e+02 
3.510200e-01 7.514338e+02 
3.522000e-01 7.480305e+02 
3.533900e-01 7.446267e+02 
3.546400e-01 7.411017e+02 
3.558400e-01 7.377475e+02 
3.570600e-01 7.343658e+02 
3.582700e-01 7.310397e+02 
3.595000e-01 7.276869e+02 
3.607100e-01 7.244277e+02 
3.618900e-01 7.212842e+02 
3.631200e-01 7.180342e+02 
3.643200e-01 7.148894e+02 
3.655500e-01 7.116923e+02 
3.667300e-01 7.086499e+02 
3.679500e-01 7.055481e+02 
3.691900e-01 7.024212e+02 
3.703600e-01 6.994943e+02 
3.715700e-01 6.964912e+02 
3.727700e-01 6.935366e+02 
3.739900e-01 6.905641e+02 
3.752000e-01 6.876534e+02 
3.763900e-01 6.848131e+02 
3.775800e-01 6.819948e+02 
3.788200e-01 6.790811e+02 
3.800300e-01 6.762605e+02 
3.812100e-01 6.735372e+02 
3.824200e-01 6.707704e+02 
3.836100e-01 6.680703e+02 
3.848600e-01 6.652560e+02 
3.860400e-01 6.626198e+02 
3.872400e-01 6.599592e+02 
3.884600e-01 6.572863e+02 
3.896500e-01 6.547032e+02 
3.908700e-01 6.520750e+02 
3.920600e-01 6.495307e+02 
3.933100e-01 6.468785e+02 
3.945300e-01 6.443097e+02 
3.957200e-01 6.418298e+02 
3.969300e-01 6.393288e+02 
3.981700e-01 6.367852e+02 
3.993500e-01 6.343825e+02 
4.094840e-01 6.144536e+02 
4.272360e-01 5.824663e+02 
4.454600e-01 5.528090e+02 
4.630560e-01 5.267863e+02 
4.804610e-01 5.032324e+02 
4.980690e-01 4.813396e+02 
5.159230e-01 4.609225e+02 
5.317440e-01 4.441718e+02 
5.489640e-01 4.272538e+02 
5.671990e-01 4.107089e+02 
5.838690e-01 3.966787e+02 
6.018840e-01 3.826039e+02 
6.202330e-01 3.693240e+02 
6.379250e-01 3.574012e+02 
6.545410e-01 3.469609e+02 
6.714560e-01 3.369718e+02 
6.892080e-01 3.271568e+02 
7.066010e-01 3.181169e+02 
7.240540e-01 3.095607e+02 
7.420450e-01 3.012544e+02 
7.593780e-01 2.936831e+02 
7.764720e-01 2.865890e+02 
7.942840e-01 2.795659e+02 
8.116170e-01 2.730530e+02 
8.288310e-01 2.668773e+02 
8.462240e-01 2.609041e+02 
8.631980e-01 2.553123e+02 
8.810700e-01 2.496620e+02 
8.989410e-01 2.442371e+02 
9.166330e-01 2.390674e+02 
9.345640e-01 2.340179e+02 
9.515980e-01 2.293854e+02 
9.688720e-01 2.248416e+02 
9.865640e-01 2.203353e+02 
1.031870e+00 2.094491e+02 
1.063490e+00 2.023154e+02 
1.097920e+00 1.950003e+02 
1.134370e+00 1.876422e+02 
1.167730e+00 1.812720e+02 
1.203830e+00 1.747142e+02 
1.240470e+00 1.684190e+02 
1.275790e+00 1.626239e+02 
1.309140e+00 1.574276e+02 
1.342970e+00 1.523593e+02 
1.378420e+00 1.473152e+02 
1.413200e+00 1.425841e+02 
1.448110e+00 1.380302e+02 
1.484090e+00 1.335643e+02 
1.518820e+00 1.294226e+02 
1.552880e+00 1.255429e+02 
1.588630e+00 1.216292e+02 
1.623230e+00 1.180129e+02 
1.657720e+00 1.145514e+02 
1.692450e+00 1.112255e+02 
1.726400e+00 1.080747e+02 
1.762200e+00 1.048840e+02 
1.797880e+00 1.018444e+02 
1.833270e+00 9.893646e+01 
1.869070e+00 9.612215e+01 
1.903200e+00 9.353955e+01 
1.937740e+00 9.102096e+01 
1.973190e+00 8.852990e+01 
2.007440e+00 8.621554e+01 
2.042160e+00 8.396104e+01 
2.077900e+00 8.171210e+01 
2.112390e+00 7.963193e+01 
2.146220e+00 7.764570e+01 
2.181600e+00 7.565132e+01 
2.216930e+00 7.373128e+01 
2.250760e+00 7.194763e+01 
2.286500e+00 7.012548e+01 
2.321770e+00 6.839846e+01 
2.355950e+00 6.678819e+01 
2.391280e+00 6.516608e+01 
2.426240e+00 6.361301e+01 
2.460670e+00 6.213289e+01 
2.495640e+00 6.067832e+01 
2.531080e+00 5.925837e+01 
2.566220e+00 5.788800e+01 
2.600830e+00 5.658217e+01 
2.635080e+00 5.533440e+01 
2.670340e+00 5.407897e+01 
2.705970e+00 5.285513e+01 
2.740040e+00 5.172328e+01 
2.774520e+00 5.060984e+01 
2.809730e+00 4.950629e+01 
2.844390e+00 4.845242e+01 
2.879960e+00 4.740183e+01 
2.914860e+00 4.640088e+01 
2.949410e+00 4.543879e+01 
2.984440e+00 4.449000e+01 
3.019760e+00 4.356408e+01 
3.054730e+00 4.267542e+01 
3.089030e+00 4.182168e+01 
3.124060e+00 4.097626e+01 
3.159560e+00 4.014616e+01 
3.194710e+00 3.934238e+01 
3.229010e+00 3.857878e+01 
3.263320e+00 3.783840e+01 
3.297930e+00 3.711150e+01 
3.332830e+00 3.639736e+01 
3.368040e+00 3.569573e+01 
3.403300e+00 3.501165e+01 
3.438450e+00 3.434688e+01 
3.473060e+00 3.370949e+01 
3.508440e+00 3.307750e+01 
3.543110e+00 3.247382e+01 
3.577470e+00 3.188695e+01 
3.613040e+00 3.129566e+01 
3.648120e+00 3.072907e+01 
3.682910e+00 3.018109e+01 
3.718050e+00 2.964087e+01 
3.753320e+00 2.911187e+01 
3.787980e+00 2.860430e+01 
3.822290e+00 2.811486e+01 
3.857020e+00 2.763262e+01 
3.891920e+00 2.715837e+01 
3.926650e+00 2.669536e+01 
3.961970e+00 2.623632e+01 
3.997360e+00 2.578880e+01 
4.031670e+00 2.536497e+01 
4.066330e+00 2.494615e+01 
4.101420e+00 2.453196e+01 
4.136200e+00 2.413219e+01 
4.170810e+00 2.374334e+01 
4.206250e+00 2.335361e+01 
4.241580e+00 2.297378e+01 
4.276300e+00 2.260906e+01 
4.310970e+00 2.225295e+01 
4.346120e+00 2.189997e+01 
4.380600e+00 2.156150e+01 
4.414730e+00 2.123356e+01 
4.450350e+00 2.089883e+01 
4.485320e+00 2.057727e+01 
4.519810e+00 2.026710e+01 
4.555430e+00 1.995365e+01 
4.590870e+00 1.964852e+01 
4.625480e+00 1.935702e+01 
4.659910e+00 1.907292e+01 
4.695230e+00 1.878782e+01 
4.729960e+00 1.851323e+01 
4.764450e+00 1.824617e+01 
4.799530e+00 1.798027e+01 
4.834910e+00 1.771746e+01 
4.869700e+00 1.746458e+01 
4.904370e+00 1.721754e+01 
4.939450e+00 1.697258e+01 
4.973940e+00 1.673675e+01 
5.008430e+00 1.650539e+01 
5.043810e+00 1.627297e+01 
5.078840e+00 1.604747e+01 
5.113500e+00 1.582853e+01 
5.148890e+00 1.560962e+01 
5.184210e+00 1.539527e+01 
5.219060e+00 1.518785e+01 
5.253660e+00 1.498609e+01 
5.288570e+00 1.478621e+01 
5.323420e+00 1.459055e+01 
5.358440e+00 1.439777e+01 
5.393590e+00 1.420775e+01 
5.428310e+00 1.402375e+01 
5.462800e+00 1.384436e+01 
5.497640e+00 1.366631e+01 
5.532670e+00 1.349084e+01 
5.567280e+00 1.332062e+01 
5.602000e+00 1.315277e+01 
5.637270e+00 1.298559e+01 
5.672410e+00 1.282198e+01 
5.707020e+00 1.266356e+01 
5.742040e+00 1.250643e+01 
5.777430e+00 1.235041e+01 
5.812210e+00 1.219964e+01 
5.846820e+00 1.205241e+01 
5.881610e+00 1.190690e+01 
5.916510e+00 1.176333e+01 
5.951600e+00 1.162174e+01 
5.986560e+00 1.148315e+01 
6.021830e+00 1.134559e+01 
6.056490e+00 1.121282e+01 
6.091160e+00 1.108233e+01 
6.125830e+00 1.095388e+01 
6.161090e+00 1.082544e+01 
6.195760e+00 1.070141e+01 
6.230420e+00 1.057934e+01 
6.265690e+00 1.045706e+01 
6.300950e+00 1.033723e+01 
6.335620e+00 1.022122e+01 
6.370880e+00 1.010503e+01 
6.405550e+00 9.992781e+00 
6.440220e+00 9.882312e+00 
6.475480e+00 9.771651e+00 
6.510150e+00 9.664607e+00 
6.544810e+00 9.559481e+00 
6.580080e+00 9.454088e+00 
6.614750e+00 9.352012e+00 
6.649410e+00 9.251764e+00 
6.684080e+00 9.152996e+00 
6.719340e+00 9.054004e+00 
6.754010e+00 8.958182e+00 
6.788680e+00 8.863980e+00 
6.823940e+00 8.769543e+00 
6.859800e+00 8.674886e+00 
6.894470e+00 8.584924e+00 
6.929140e+00 8.496305e+00 
6.963800e+00 8.408942e+00 
6.999070e+00 8.321305e+00 
7.033730e+00 8.236733e+00 
7.068400e+00 8.153293e+00 
7.103660e+00 8.069598e+00 
7.138330e+00 7.988532e+00 
7.173600e+00 7.907395e+00 
7.208260e+00 7.828740e+00 
7.243530e+00 7.749781e+00 
7.277600e+00 7.674682e+00 
7.312860e+00 7.598136e+00 
7.348120e+00 7.522615e+00 
7.382790e+00 7.449341e+00 
7.417460e+00 7.377222e+00 
7.452720e+00 7.304940e+00 
7.487390e+00 7.234794e+00 
7.522650e+00 7.164382e+00 
7.557320e+00 7.096253e+00 
7.591990e+00 7.029071e+00 
7.627250e+00 6.961621e+00 
7.662510e+00 6.895040e+00 
7.697180e+00 6.830600e+00 
7.731850e+00 6.767043e+00 
7.766510e+00 6.704298e+00 
7.801180e+00 6.642316e+00 
7.836440e+00 6.580211e+00 
7.871110e+00 6.519995e+00 
7.906380e+00 6.459495e+00 
7.941040e+00 6.400774e+00 
7.976310e+00 6.341861e+00 
8.011570e+00 6.283817e+00 
8.046240e+00 6.227438e+00 
8.080900e+00 6.171754e+00 
8.115570e+00 6.116776e+00 
8.150830e+00 6.061748e+00 
8.185500e+00 6.008288e+00 
8.220770e+00 5.954551e+00 
8.255430e+00 5.902370e+00 
8.290100e+00 5.850956e+00 
8.324770e+00 5.800163e+00 
8.359430e+00 5.749975e+00 
8.394700e+00 5.699499e+00 
8.429960e+00 5.649738e+00 
8.464630e+00 5.601484e+00 
8.499890e+00 5.552975e+00 
8.534560e+00 5.505826e+00 
8.569200e+00 5.459253e+00 
