# Parameters:
# omega_b = 0.023138, omega_m = 0.154173, n_s = 0.960236, h = 58.779528, w = -1.000000, sigma_8 = 0.863780
# z = 0.700000
#
# k[1/Mpc] # P(k):
8.694000e-04 7.677127e+03 
2.077466e-03 1.645173e+04 
3.285532e-03 2.346581e+04 
4.493598e-03 2.902973e+04 
5.701664e-03 3.330648e+04 
6.909730e-03 3.647953e+04 
8.117797e-03 3.877164e+04 
9.325863e-03 4.029548e+04 
1.053393e-02 4.116576e+04 
1.174199e-02 4.149215e+04 
1.295006e-02 4.134255e+04 
1.415813e-02 4.081513e+04 
1.536619e-02 3.999585e+04 
1.657426e-02 3.894791e+04 
1.778233e-02 3.775574e+04 
1.899039e-02 3.653337e+04 
2.019846e-02 3.526871e+04 
2.140652e-02 3.395249e+04 
2.261459e-02 3.261558e+04 
2.382266e-02 3.130228e+04 
2.503072e-02 3.003945e+04 
2.623879e-02 2.883887e+04 
2.744685e-02 2.770320e+04 
2.865492e-02 2.664403e+04 
2.986299e-02 2.566192e+04 
3.100100e-02 2.480747e+04 
3.220400e-02 2.397646e+04 
3.288100e-02 2.354158e+04 
3.424300e-02 2.273291e+04 
3.555100e-02 2.203144e+04 
3.686000e-02 2.139656e+04 
3.795000e-02 2.091186e+04 
3.929100e-02 2.036598e+04 
4.039800e-02 1.994840e+04 
4.164000e-02 1.950811e+04 
4.294400e-02 1.906956e+04 
4.415000e-02 1.868074e+04 
4.542900e-02 1.827509e+04 
4.660900e-02 1.790749e+04 
4.782300e-02 1.752285e+04 
4.892900e-02 1.717154e+04 
5.031200e-02 1.672524e+04 
5.155900e-02 1.631267e+04 
5.238100e-02 1.603653e+04 
5.378200e-02 1.555974e+04 
5.513400e-02 1.509085e+04 
5.627600e-02 1.469031e+04 
5.735300e-02 1.431180e+04 
5.870100e-02 1.383965e+04 
5.988700e-02 1.342982e+04 
6.113500e-02 1.300626e+04 
6.225900e-02 1.263347e+04 
6.340100e-02 1.226577e+04 
6.480200e-02 1.183311e+04 
6.601100e-02 1.147752e+04 
6.725500e-02 1.113097e+04 
6.829100e-02 1.085929e+04 
6.958600e-02 1.054014e+04 
7.071100e-02 1.028294e+04 
7.192300e-02 1.002573e+04 
7.307400e-02 9.800259e+03 
7.412300e-02 9.610046e+03 
7.550400e-02 9.382093e+03 
7.663100e-02 9.211384e+03 
7.791200e-02 9.036396e+03 
7.912700e-02 8.885820e+03 
8.027600e-02 8.754119e+03 
8.138400e-02 8.635030e+03 
8.272200e-02 8.499881e+03 
8.406100e-02 8.371483e+03 
8.534100e-02 8.252397e+03 
8.653800e-02 8.141360e+03 
8.759800e-02 8.042773e+03 
8.900300e-02 7.910120e+03 
9.009000e-02 7.804385e+03 
9.113300e-02 7.699023e+03 
9.239600e-02 7.569150e+03 
9.358000e-02 7.443481e+03 
9.496100e-02 7.290877e+03 
9.608400e-02 7.165005e+03 
9.727500e-02 7.030987e+03 
9.852600e-02 6.885910e+03 
9.973800e-02 6.746856e+03 
1.009000e-01 6.615165e+03 
1.020900e-01 6.480647e+03 
1.034000e-01 6.336476e+03 
1.046000e-01 6.207879e+03 
1.057200e-01 6.091737e+03 
1.069100e-01 5.972283e+03 
1.082500e-01 5.843818e+03 
1.093900e-01 5.739662e+03 
1.105400e-01 5.638513e+03 
1.116900e-01 5.543705e+03 
1.129600e-01 5.443256e+03 
1.142000e-01 5.351793e+03 
1.153300e-01 5.272464e+03 
1.166400e-01 5.185790e+03 
1.177800e-01 5.115211e+03 
1.190000e-01 5.042884e+03 
1.201200e-01 4.981163e+03 
1.213400e-01 4.916074e+03 
1.227100e-01 4.848237e+03 
1.238900e-01 4.791759e+03 
1.250700e-01 4.738039e+03 
1.263200e-01 4.682686e+03 
1.275500e-01 4.629994e+03 
1.287500e-01 4.579588e+03 
1.299900e-01 4.528399e+03 
1.311300e-01 4.481674e+03 
1.323500e-01 4.431689e+03 
1.335900e-01 4.380870e+03 
1.347100e-01 4.334420e+03 
1.359800e-01 4.281727e+03 
1.372100e-01 4.229518e+03 
1.384300e-01 4.177878e+03 
1.395700e-01 4.128282e+03 
1.407700e-01 4.076874e+03 
1.420300e-01 4.021190e+03 
1.432800e-01 3.967162e+03 
1.444500e-01 3.915462e+03 
1.456300e-01 3.864388e+03 
1.468900e-01 3.810316e+03 
1.480500e-01 3.761368e+03 
1.491700e-01 3.715091e+03 
1.503800e-01 3.666161e+03 
1.516400e-01 3.616477e+03 
1.528200e-01 3.571805e+03 
1.540200e-01 3.527267e+03 
1.551900e-01 3.486004e+03 
1.564300e-01 3.443441e+03 
1.576600e-01 3.402868e+03 
1.588700e-01 3.364703e+03 
1.600900e-01 3.327034e+03 
1.612700e-01 3.292831e+03 
1.625400e-01 3.256703e+03 
1.637600e-01 3.223373e+03 
1.649500e-01 3.191869e+03 
1.662200e-01 3.158957e+03 
1.674000e-01 3.129472e+03 
1.685000e-01 3.102442e+03 
1.697500e-01 3.072278e+03 
1.710300e-01 3.041980e+03 
1.722200e-01 3.014308e+03 
1.734400e-01 2.986083e+03 
1.746400e-01 2.958778e+03 
1.758700e-01 2.931072e+03 
1.770900e-01 2.903668e+03 
1.782700e-01 2.877601e+03 
1.794600e-01 2.851378e+03 
1.807000e-01 2.824263e+03 
1.819100e-01 2.798242e+03 
1.830100e-01 2.774526e+03 
1.842200e-01 2.748769e+03 
1.855000e-01 2.721958e+03 
1.867000e-01 2.696896e+03 
1.879200e-01 2.671823e+03 
1.890900e-01 2.648132e+03 
1.902800e-01 2.624298e+03 
1.915200e-01 2.599852e+03 
1.926900e-01 2.577149e+03 
1.939000e-01 2.554042e+03 
1.951700e-01 2.530172e+03 
1.963100e-01 2.509114e+03 
1.975100e-01 2.487386e+03 
1.987800e-01 2.464745e+03 
2.000100e-01 2.443224e+03 
2.012500e-01 2.422015e+03 
2.023400e-01 2.403637e+03 
2.036100e-01 2.382582e+03 
2.048900e-01 2.361889e+03 
2.060400e-01 2.343567e+03 
2.072200e-01 2.325044e+03 
2.084200e-01 2.306657e+03 
2.096900e-01 2.287480e+03 
2.109200e-01 2.269177e+03 
2.121100e-01 2.251800e+03 
2.132700e-01 2.235095e+03 
2.145200e-01 2.217343e+03 
2.157200e-01 2.200560e+03 
2.168800e-01 2.184564e+03 
2.180700e-01 2.168371e+03 
2.193400e-01 2.151282e+03 
2.206000e-01 2.134482e+03 
2.217500e-01 2.119353e+03 
2.229500e-01 2.103771e+03 
2.241400e-01 2.088345e+03 
2.253500e-01 2.072860e+03 
2.264900e-01 2.058458e+03 
2.277100e-01 2.043108e+03 
2.289900e-01 2.027073e+03 
2.301500e-01 2.012731e+03 
2.313600e-01 1.997957e+03 
2.325600e-01 1.983212e+03 
2.337700e-01 1.968533e+03 
2.350000e-01 1.953804e+03 
2.362000e-01 1.939491e+03 
2.374100e-01 1.925093e+03 
2.386500e-01 1.910526e+03 
2.399100e-01 1.895916e+03 
2.410400e-01 1.882824e+03 
2.422500e-01 1.868954e+03 
2.435000e-01 1.854807e+03 
2.447300e-01 1.841044e+03 
2.458700e-01 1.828377e+03 
2.470600e-01 1.815309e+03 
2.483300e-01 1.801535e+03 
2.495600e-01 1.788378e+03 
2.507600e-01 1.775720e+03 
2.519600e-01 1.763211e+03 
2.532200e-01 1.750237e+03 
2.543700e-01 1.738619e+03 
2.555500e-01 1.726890e+03 
2.568000e-01 1.714611e+03 
2.580100e-01 1.702867e+03 
2.592400e-01 1.691221e+03 
2.604100e-01 1.680336e+03 
2.616100e-01 1.669298e+03 
2.628400e-01 1.658114e+03 
2.640600e-01 1.647325e+03 
2.652200e-01 1.637252e+03 
2.664300e-01 1.626859e+03 
2.676500e-01 1.616499e+03 
2.688400e-01 1.606652e+03 
2.700700e-01 1.596680e+03 
2.712400e-01 1.587297e+03 
2.724800e-01 1.577461e+03 
2.736700e-01 1.568218e+03 
2.748800e-01 1.559016e+03 
2.761000e-01 1.549839e+03 
2.773200e-01 1.540760e+03 
2.785400e-01 1.531825e+03 
2.797000e-01 1.523514e+03 
2.808900e-01 1.515075e+03 
2.821400e-01 1.506305e+03 
2.833900e-01 1.497633e+03 
2.845500e-01 1.489754e+03 
2.857800e-01 1.481484e+03 
2.870300e-01 1.473169e+03 
2.882100e-01 1.465401e+03 
2.893900e-01 1.457754e+03 
2.906300e-01 1.449823e+03 
2.918900e-01 1.441848e+03 
2.930500e-01 1.434581e+03 
2.942500e-01 1.427141e+03 
2.954200e-01 1.419974e+03 
2.966500e-01 1.412513e+03 
2.978900e-01 1.405067e+03 
2.990400e-01 1.398230e+03 
3.002700e-01 1.391000e+03 
3.015100e-01 1.383791e+03 
3.026800e-01 1.377054e+03 
3.038500e-01 1.370381e+03 
3.050300e-01 1.363715e+03 
3.062600e-01 1.356839e+03 
3.075000e-01 1.349976e+03 
3.087000e-01 1.343398e+03 
3.099100e-01 1.336828e+03 
3.111200e-01 1.330324e+03 
3.123100e-01 1.323993e+03 
3.135300e-01 1.317563e+03 
3.147300e-01 1.311298e+03 
3.159900e-01 1.304782e+03 
3.171800e-01 1.298688e+03 
3.183700e-01 1.292650e+03 
3.196300e-01 1.286318e+03 
3.208400e-01 1.280294e+03 
3.220300e-01 1.274423e+03 
3.232000e-01 1.268712e+03 
3.244300e-01 1.262766e+03 
3.256700e-01 1.256827e+03 
3.269200e-01 1.250896e+03 
3.280800e-01 1.245441e+03 
3.292500e-01 1.239998e+03 
3.304800e-01 1.234329e+03 
3.317100e-01 1.228712e+03 
3.328900e-01 1.223371e+03 
3.340700e-01 1.218076e+03 
3.353600e-01 1.212352e+03 
3.365300e-01 1.207211e+03 
3.377100e-01 1.202070e+03 
3.389200e-01 1.196844e+03 
3.401600e-01 1.191535e+03 
3.413700e-01 1.186410e+03 
3.425300e-01 1.181545e+03 
3.437700e-01 1.176389e+03 
3.449800e-01 1.171401e+03 
3.461800e-01 1.166497e+03 
3.473600e-01 1.161721e+03 
3.485800e-01 1.156843e+03 
3.498100e-01 1.151967e+03 
3.510200e-01 1.147211e+03 
3.522000e-01 1.142612e+03 
3.533900e-01 1.138011e+03 
3.546400e-01 1.133233e+03 
3.558400e-01 1.128686e+03 
3.570600e-01 1.124101e+03 
3.582700e-01 1.119591e+03 
3.595000e-01 1.115045e+03 
3.607100e-01 1.110619e+03 
3.618900e-01 1.106346e+03 
3.631200e-01 1.101928e+03 
3.643200e-01 1.097653e+03 
3.655500e-01 1.093307e+03 
3.667300e-01 1.089171e+03 
3.679500e-01 1.084939e+03 
3.691900e-01 1.080674e+03 
3.703600e-01 1.076681e+03 
3.715700e-01 1.072585e+03 
3.727700e-01 1.068554e+03 
3.739900e-01 1.064496e+03 
3.752000e-01 1.060515e+03 
3.763900e-01 1.056631e+03 
3.775800e-01 1.052777e+03 
3.788200e-01 1.048792e+03 
3.800300e-01 1.044935e+03 
3.812100e-01 1.041204e+03 
3.824200e-01 1.037407e+03 
3.836100e-01 1.033703e+03 
3.848600e-01 1.029841e+03 
3.860400e-01 1.026224e+03 
3.872400e-01 1.022574e+03 
3.884600e-01 1.018900e+03 
3.896500e-01 1.015348e+03 
3.908700e-01 1.011734e+03 
3.920600e-01 1.008235e+03 
3.933100e-01 1.004588e+03 
3.945300e-01 1.001055e+03 
3.957200e-01 9.976322e+02 
3.969300e-01 9.941766e+02 
3.981700e-01 9.906621e+02 
3.993500e-01 9.873426e+02 
4.094840e-01 9.597689e+02 
4.272360e-01 9.152806e+02 
4.454600e-01 8.737690e+02 
4.630560e-01 8.371173e+02 
4.804610e-01 8.037926e+02 
4.980690e-01 7.726593e+02 
5.159230e-01 7.435248e+02 
5.317440e-01 7.195318e+02 
5.489640e-01 6.952269e+02 
5.671990e-01 6.713804e+02 
5.838690e-01 6.510985e+02 
6.018840e-01 6.306927e+02 
6.202330e-01 6.113393e+02 
6.379250e-01 5.939184e+02 
6.545410e-01 5.785819e+02 
6.714560e-01 5.638388e+02 
6.892080e-01 5.492924e+02 
7.066010e-01 5.357930e+02 
7.240540e-01 5.229436e+02 
7.420450e-01 5.103776e+02 
7.593780e-01 4.988470e+02 
7.764720e-01 4.879677e+02 
7.942840e-01 4.771144e+02 
8.116170e-01 4.669522e+02 
8.288310e-01 4.572455e+02 
8.462240e-01 4.477879e+02 
8.631980e-01 4.388637e+02 
8.810700e-01 4.297778e+02 
8.989410e-01 4.209893e+02 
9.166330e-01 4.125507e+02 
9.345640e-01 4.042413e+02 
9.515980e-01 3.965674e+02 
9.688720e-01 3.889898e+02 
9.865640e-01 3.814191e+02 
1.031870e+00 3.629763e+02 
1.063490e+00 3.507351e+02 
1.097920e+00 3.380789e+02 
1.134370e+00 3.252524e+02 
1.167730e+00 3.140630e+02 
1.203830e+00 3.024782e+02 
1.240470e+00 2.913014e+02 
1.275790e+00 2.809687e+02 
1.309140e+00 2.716782e+02 
1.342970e+00 2.625810e+02 
1.378420e+00 2.535159e+02 
1.413200e+00 2.449976e+02 
1.448110e+00 2.367838e+02 
1.484090e+00 2.287231e+02 
1.518820e+00 2.212469e+02 
1.552880e+00 2.142404e+02 
1.588630e+00 2.071788e+02 
1.623230e+00 2.006530e+02 
1.657720e+00 1.944103e+02 
1.692450e+00 1.884150e+02 
1.726400e+00 1.827396e+02 
1.762200e+00 1.769966e+02 
1.797880e+00 1.715352e+02 
1.833270e+00 1.663189e+02 
1.869070e+00 1.612733e+02 
1.903200e+00 1.566512e+02 
1.937740e+00 1.521515e+02 
1.973190e+00 1.477048e+02 
2.007440e+00 1.435836e+02 
2.042160e+00 1.395728e+02 
2.077900e+00 1.355809e+02 
2.112390e+00 1.318940e+02 
2.146220e+00 1.283826e+02 
2.181600e+00 1.248588e+02 
2.216930e+00 1.214752e+02 
2.250760e+00 1.183376e+02 
2.286500e+00 1.151378e+02 
2.321770e+00 1.121118e+02 
2.355950e+00 1.092947e+02 
2.391280e+00 1.064610e+02 
2.426240e+00 1.037548e+02 
2.460670e+00 1.011810e+02 
2.495640e+00 9.865577e+01 
2.531080e+00 9.619459e+01 
2.566220e+00 9.382624e+01 
2.600830e+00 9.157347e+01 
2.635080e+00 8.942369e+01 
2.670340e+00 8.726607e+01 
2.705970e+00 8.516696e+01 
2.740040e+00 8.322876e+01 
2.774520e+00 8.132440e+01 
2.809730e+00 7.944148e+01 
2.844390e+00 7.764660e+01 
2.879960e+00 7.586103e+01 
2.914860e+00 7.416345e+01 
2.949410e+00 7.253432e+01 
2.984440e+00 7.093125e+01 
3.019760e+00 6.936918e+01 
3.054730e+00 6.787190e+01 
3.089030e+00 6.643780e+01 
3.124060e+00 6.501943e+01 
3.159560e+00 6.362895e+01 
3.194710e+00 6.228577e+01 
3.229010e+00 6.101136e+01 
3.263320e+00 5.977843e+01 
3.297930e+00 5.856945e+01 
3.332830e+00 5.738402e+01 
3.368040e+00 5.622134e+01 
3.403300e+00 5.508938e+01 
3.438450e+00 5.399196e+01 
3.473060e+00 5.294078e+01 
3.508440e+00 5.190079e+01 
3.543110e+00 5.090831e+01 
3.577470e+00 4.994601e+01 
3.613040e+00 4.897737e+01 
3.648120e+00 4.805088e+01 
3.682910e+00 4.715588e+01 
3.718050e+00 4.627519e+01 
3.753320e+00 4.541398e+01 
3.787980e+00 4.458916e+01 
3.822290e+00 4.379473e+01 
3.857020e+00 4.301315e+01 
3.891920e+00 4.224552e+01 
3.926650e+00 4.149756e+01 
3.961970e+00 4.075673e+01 
3.997360e+00 4.003580e+01 
4.031670e+00 3.935357e+01 
4.066330e+00 3.868085e+01 
4.101420e+00 3.801584e+01 
4.136200e+00 3.737537e+01 
4.170810e+00 3.675260e+01 
4.206250e+00 3.612976e+01 
4.241580e+00 3.552317e+01 
4.276300e+00 3.494163e+01 
4.310970e+00 3.437443e+01 
4.346120e+00 3.381280e+01 
4.380600e+00 3.327508e+01 
4.414730e+00 3.275428e+01 
4.450350e+00 3.222389e+01 
4.485320e+00 3.171450e+01 
4.519810e+00 3.122399e+01 
4.555430e+00 3.072872e+01 
4.590870e+00 3.024701e+01 
4.625480e+00 2.978746e+01 
4.659910e+00 2.933968e+01 
4.695230e+00 2.889119e+01 
4.729960e+00 2.845944e+01 
4.764450e+00 2.803989e+01 
4.799530e+00 2.762271e+01 
4.834910e+00 2.721046e+01 
4.869700e+00 2.681449e+01 
4.904370e+00 2.642784e+01 
4.939450e+00 2.604469e+01 
4.973940e+00 2.567637e+01 
5.008430e+00 2.531508e+01 
5.043810e+00 2.495257e+01 
5.078840e+00 2.460112e+01 
5.113500e+00 2.425996e+01 
5.148890e+00 2.391939e+01 
5.184210e+00 2.358599e+01 
5.219060e+00 2.326352e+01 
5.253660e+00 2.295025e+01 
5.288570e+00 2.263994e+01 
5.323420e+00 2.233643e+01 
5.358440e+00 2.203766e+01 
5.393590e+00 2.174320e+01 
5.428310e+00 2.145837e+01 
5.462800e+00 2.118083e+01 
5.497640e+00 2.090539e+01 
5.532670e+00 2.063422e+01 
5.567280e+00 2.037126e+01 
5.602000e+00 2.011200e+01 
5.637270e+00 1.985404e+01 
5.672410e+00 1.960167e+01 
5.707020e+00 1.935733e+01 
5.742040e+00 1.911521e+01 
5.777430e+00 1.887487e+01 
5.812210e+00 1.864265e+01 
5.846820e+00 1.841605e+01 
5.881610e+00 1.819218e+01 
5.916510e+00 1.797129e+01 
5.951600e+00 1.775359e+01 
5.986560e+00 1.754058e+01 
6.021830e+00 1.732916e+01 
6.056490e+00 1.712522e+01 
6.091160e+00 1.692485e+01 
6.125830e+00 1.672763e+01 
6.161090e+00 1.653048e+01 
6.195760e+00 1.634018e+01 
6.230420e+00 1.615289e+01 
6.265690e+00 1.596531e+01 
6.300950e+00 1.578162e+01 
6.335620e+00 1.560377e+01 
6.370880e+00 1.542567e+01 
6.405550e+00 1.525364e+01 
6.440220e+00 1.508437e+01 
6.475480e+00 1.491481e+01 
6.510150e+00 1.475082e+01 
6.544810e+00 1.458983e+01 
6.580080e+00 1.442843e+01 
6.614750e+00 1.427212e+01 
6.649410e+00 1.411864e+01 
6.684080e+00 1.396745e+01 
6.719340e+00 1.381591e+01 
6.754010e+00 1.366924e+01 
6.788680e+00 1.352505e+01 
6.823940e+00 1.338050e+01 
6.859800e+00 1.323562e+01 
6.894470e+00 1.309794e+01 
6.929140e+00 1.296232e+01 
6.963800e+00 1.282863e+01 
6.999070e+00 1.269453e+01 
7.033730e+00 1.256510e+01 
7.068400e+00 1.243740e+01 
7.103660e+00 1.230932e+01 
7.138330e+00 1.218526e+01 
7.173600e+00 1.206109e+01 
7.208260e+00 1.194072e+01 
7.243530e+00 1.181988e+01 
7.277600e+00 1.170494e+01 
7.312860e+00 1.158777e+01 
7.348120e+00 1.147217e+01 
7.382790e+00 1.136001e+01 
7.417460e+00 1.124959e+01 
7.452720e+00 1.113892e+01 
7.487390e+00 1.103152e+01 
7.522650e+00 1.092371e+01 
7.557320e+00 1.081937e+01 
7.591990e+00 1.071646e+01 
7.627250e+00 1.061314e+01 
7.662510e+00 1.051116e+01 
7.697180e+00 1.041242e+01 
7.731850e+00 1.031503e+01 
7.766510e+00 1.021888e+01 
7.801180e+00 1.012390e+01 
7.836440e+00 1.002871e+01 
7.871110e+00 9.936392e+00 
7.906380e+00 9.843643e+00 
7.941040e+00 9.753625e+00 
7.976310e+00 9.663280e+00 
8.011570e+00 9.574230e+00 
8.046240e+00 9.487740e+00 
8.080900e+00 9.402317e+00 
8.115570e+00 9.317971e+00 
8.150830e+00 9.233506e+00 
8.185500e+00 9.151451e+00 
8.220770e+00 9.068976e+00 
8.255430e+00 8.988892e+00 
8.290100e+00 8.909915e+00 
8.324770e+00 8.831885e+00 
8.359430e+00 8.754789e+00 
8.394700e+00 8.677256e+00 
8.429960e+00 8.600790e+00 
8.464630e+00 8.526610e+00 
8.499890e+00 8.452043e+00 
8.534560e+00 8.379570e+00 
8.569200e+00 8.307986e+00 
