# Parameters:
# omega_b = 0.021563, omega_m = 0.132953, n_s = 0.957087, h = 83.582677, w = -1.000000, sigma_8 = 0.892126
# z = 0.700000
#
# k[1/Mpc] # P(k):
8.694000e-04 9.619170e+03 
2.077466e-03 2.022826e+04 
3.285532e-03 2.835480e+04 
4.493598e-03 3.445296e+04 
5.701664e-03 3.886011e+04 
6.909730e-03 4.187588e+04 
8.117797e-03 4.381879e+04 
9.325863e-03 4.485612e+04 
1.053393e-02 4.514976e+04 
1.174199e-02 4.484823e+04 
1.295006e-02 4.404660e+04 
1.415813e-02 4.287096e+04 
1.536619e-02 4.142461e+04 
1.657426e-02 3.976872e+04 
1.778233e-02 3.789423e+04 
1.899039e-02 3.582348e+04 
2.019846e-02 3.374344e+04 
2.140652e-02 3.180849e+04 
2.261459e-02 3.001026e+04 
2.382266e-02 2.834239e+04 
2.503072e-02 2.681362e+04 
2.623879e-02 2.542681e+04 
2.744685e-02 2.418313e+04 
2.865492e-02 2.307756e+04 
2.986299e-02 2.210029e+04 
3.100100e-02 2.129370e+04 
3.220400e-02 2.054731e+04 
3.288100e-02 2.017438e+04 
3.424300e-02 1.950899e+04 
3.555100e-02 1.895893e+04 
3.686000e-02 1.848164e+04 
3.795000e-02 1.812680e+04 
3.929100e-02 1.773248e+04 
4.039800e-02 1.742735e+04 
4.164000e-02 1.709705e+04 
4.294400e-02 1.674578e+04 
4.415000e-02 1.641638e+04 
4.542900e-02 1.604203e+04 
4.660900e-02 1.568260e+04 
4.782300e-02 1.527631e+04 
4.892900e-02 1.488983e+04 
5.031200e-02 1.437904e+04 
5.155900e-02 1.389348e+04 
5.238100e-02 1.356525e+04 
5.378200e-02 1.299715e+04 
5.513400e-02 1.244355e+04 
5.627600e-02 1.197937e+04 
5.735300e-02 1.155084e+04 
5.870100e-02 1.103306e+04 
5.988700e-02 1.060029e+04 
6.113500e-02 1.017110e+04 
6.225900e-02 9.810830e+03 
6.340100e-02 9.472330e+03 
6.480200e-02 9.092983e+03 
6.601100e-02 8.801365e+03 
6.725500e-02 8.533484e+03 
6.829100e-02 8.337017e+03 
6.958600e-02 8.117099e+03 
7.071100e-02 7.950772e+03 
7.192300e-02 7.792831e+03 
7.307400e-02 7.660840e+03 
7.412300e-02 7.553514e+03 
7.550400e-02 7.428998e+03 
7.663100e-02 7.336789e+03 
7.791200e-02 7.241101e+03 
7.912700e-02 7.154420e+03 
8.027600e-02 7.073495e+03 
8.138400e-02 6.994876e+03 
8.272200e-02 6.896884e+03 
8.406100e-02 6.793728e+03 
8.534100e-02 6.686573e+03 
8.653800e-02 6.578214e+03 
8.759800e-02 6.477637e+03 
8.900300e-02 6.336689e+03 
9.009000e-02 6.221189e+03 
9.113300e-02 6.105042e+03 
9.239600e-02 5.961812e+03 
9.358000e-02 5.824098e+03 
9.496100e-02 5.660021e+03 
9.608400e-02 5.527294e+03 
9.727500e-02 5.388257e+03 
9.852600e-02 5.243807e+03 
9.973800e-02 5.108727e+03 
1.009000e-01 4.983573e+03 
1.020900e-01 4.862712e+03 
1.034000e-01 4.736783e+03 
1.046000e-01 4.628142e+03 
1.057200e-01 4.536290e+03 
1.069100e-01 4.444120e+03 
1.082500e-01 4.351511e+03 
1.093900e-01 4.280307e+03 
1.105400e-01 4.213417e+03 
1.116900e-01 4.155491e+03 
1.129600e-01 4.095552e+03 
1.142000e-01 4.044285e+03 
1.153300e-01 4.000465e+03 
1.166400e-01 3.953645e+03 
1.177800e-01 3.915081e+03 
1.190000e-01 3.875361e+03 
1.201200e-01 3.838860e+03 
1.213400e-01 3.799890e+03 
1.227100e-01 3.753370e+03 
1.238900e-01 3.713191e+03 
1.250700e-01 3.670173e+03 
1.263200e-01 3.623955e+03 
1.275500e-01 3.575733e+03 
1.287500e-01 3.527801e+03 
1.299900e-01 3.476290e+03 
1.311300e-01 3.428387e+03 
1.323500e-01 3.375837e+03 
1.335900e-01 3.322526e+03 
1.347100e-01 3.273933e+03 
1.359800e-01 3.219590e+03 
1.372100e-01 3.167203e+03 
1.384300e-01 3.116393e+03 
1.395700e-01 3.069828e+03 
1.407700e-01 3.021963e+03 
1.420300e-01 2.973602e+03 
1.432800e-01 2.926731e+03 
1.444500e-01 2.885245e+03 
1.456300e-01 2.844283e+03 
1.468900e-01 2.803032e+03 
1.480500e-01 2.766311e+03 
1.491700e-01 2.732423e+03 
1.503800e-01 2.697645e+03 
1.516400e-01 2.662543e+03 
1.528200e-01 2.631940e+03 
1.540200e-01 2.601416e+03 
1.551900e-01 2.573511e+03 
1.564300e-01 2.544813e+03 
1.576600e-01 2.517392e+03 
1.588700e-01 2.491522e+03 
1.600900e-01 2.465948e+03 
1.612700e-01 2.442111e+03 
1.625400e-01 2.416931e+03 
1.637600e-01 2.393081e+03 
1.649500e-01 2.370170e+03 
1.662200e-01 2.346058e+03 
1.674000e-01 2.323479e+03 
1.685000e-01 2.302780e+03 
1.697500e-01 2.279133e+03 
1.710300e-01 2.254835e+03 
1.722200e-01 2.232646e+03 
1.734400e-01 2.209173e+03 
1.746400e-01 2.186438e+03 
1.758700e-01 2.163227e+03 
1.770900e-01 2.139975e+03 
1.782700e-01 2.117866e+03 
1.794600e-01 2.095573e+03 
1.807000e-01 2.072492e+03 
1.819100e-01 2.050353e+03 
1.830100e-01 2.030379e+03 
1.842200e-01 2.008728e+03 
1.855000e-01 1.986223e+03 
1.867000e-01 1.965636e+03 
1.879200e-01 1.945048e+03 
1.890900e-01 1.925689e+03 
1.902800e-01 1.906666e+03 
1.915200e-01 1.887161e+03 
1.926900e-01 1.869174e+03 
1.939000e-01 1.851270e+03 
1.951700e-01 1.832778e+03 
1.963100e-01 1.816573e+03 
1.975100e-01 1.800137e+03 
1.987800e-01 1.783012e+03 
2.000100e-01 1.766806e+03 
2.012500e-01 1.751000e+03 
2.023400e-01 1.737304e+03 
2.036100e-01 1.721628e+03 
2.048900e-01 1.706271e+03 
2.060400e-01 1.692676e+03 
2.072200e-01 1.678927e+03 
2.084200e-01 1.665225e+03 
2.096900e-01 1.650935e+03 
2.109200e-01 1.637298e+03 
2.121100e-01 1.624245e+03 
2.132700e-01 1.611693e+03 
2.145200e-01 1.598354e+03 
2.157200e-01 1.585693e+03 
2.168800e-01 1.573601e+03 
2.180700e-01 1.561362e+03 
2.193400e-01 1.548456e+03 
2.206000e-01 1.535786e+03 
2.217500e-01 1.524378e+03 
2.229500e-01 1.512629e+03 
2.241400e-01 1.501143e+03 
2.253500e-01 1.489618e+03 
2.264900e-01 1.478899e+03 
2.277100e-01 1.467615e+03 
2.289900e-01 1.455980e+03 
2.301500e-01 1.445574e+03 
2.313600e-01 1.434858e+03 
2.325600e-01 1.424524e+03 
2.337700e-01 1.414235e+03 
2.350000e-01 1.403911e+03 
2.362000e-01 1.394050e+03 
2.374100e-01 1.384329e+03 
2.386500e-01 1.374494e+03 
2.399100e-01 1.364628e+03 
2.410400e-01 1.356050e+03 
2.422500e-01 1.346995e+03 
2.435000e-01 1.337756e+03 
2.447300e-01 1.328805e+03 
2.458700e-01 1.320721e+03 
2.470600e-01 1.312379e+03 
2.483300e-01 1.303585e+03 
2.495600e-01 1.295208e+03 
2.507600e-01 1.287181e+03 
2.519600e-01 1.279248e+03 
2.532200e-01 1.271018e+03 
2.543700e-01 1.263602e+03 
2.555500e-01 1.256084e+03 
2.568000e-01 1.248213e+03 
2.580100e-01 1.240682e+03 
2.592400e-01 1.233088e+03 
2.604100e-01 1.225935e+03 
2.616100e-01 1.218679e+03 
2.628400e-01 1.211327e+03 
2.640600e-01 1.204062e+03 
2.652200e-01 1.197209e+03 
2.664300e-01 1.190139e+03 
2.676500e-01 1.183089e+03 
2.688400e-01 1.176237e+03 
2.700700e-01 1.169199e+03 
2.712400e-01 1.162578e+03 
2.724800e-01 1.155637e+03 
2.736700e-01 1.149004e+03 
2.748800e-01 1.142288e+03 
2.761000e-01 1.135589e+03 
2.773200e-01 1.128962e+03 
2.785400e-01 1.122385e+03 
2.797000e-01 1.116150e+03 
2.808900e-01 1.109820e+03 
2.821400e-01 1.103240e+03 
2.833900e-01 1.096730e+03 
2.845500e-01 1.090703e+03 
2.857800e-01 1.084377e+03 
2.870300e-01 1.078017e+03 
2.882100e-01 1.072075e+03 
2.893900e-01 1.066176e+03 
2.906300e-01 1.060032e+03 
2.918900e-01 1.053854e+03 
2.930500e-01 1.048225e+03 
2.942500e-01 1.042452e+03 
2.954200e-01 1.036862e+03 
2.966500e-01 1.031043e+03 
2.978900e-01 1.025237e+03 
2.990400e-01 1.019906e+03 
3.002700e-01 1.014257e+03 
3.015100e-01 1.008618e+03 
3.026800e-01 1.003350e+03 
3.038500e-01 9.981312e+02 
3.050300e-01 9.929181e+02 
3.062600e-01 9.875378e+02 
3.075000e-01 9.821672e+02 
3.087000e-01 9.770205e+02 
3.099100e-01 9.718804e+02 
3.111200e-01 9.667939e+02 
3.123100e-01 9.618460e+02 
3.135300e-01 9.568213e+02 
3.147300e-01 9.519257e+02 
3.159900e-01 9.468345e+02 
3.171800e-01 9.420782e+02 
3.183700e-01 9.373698e+02 
3.196300e-01 9.324313e+02 
3.208400e-01 9.277337e+02 
3.220300e-01 9.231560e+02 
3.232000e-01 9.187096e+02 
3.244300e-01 9.140832e+02 
3.256700e-01 9.094626e+02 
3.269200e-01 9.048483e+02 
3.280800e-01 9.006048e+02 
3.292500e-01 8.963765e+02 
3.304800e-01 8.919755e+02 
3.317100e-01 8.876145e+02 
3.328900e-01 8.834680e+02 
3.340700e-01 8.793574e+02 
3.353600e-01 8.749202e+02 
3.365300e-01 8.709378e+02 
3.377100e-01 8.669557e+02 
3.389200e-01 8.629077e+02 
3.401600e-01 8.587959e+02 
3.413700e-01 8.548296e+02 
3.425300e-01 8.510670e+02 
3.437700e-01 8.470792e+02 
3.449800e-01 8.432218e+02 
3.461800e-01 8.394289e+02 
3.473600e-01 8.357372e+02 
3.485800e-01 8.319685e+02 
3.498100e-01 8.282016e+02 
3.510200e-01 8.245275e+02 
3.522000e-01 8.209743e+02 
3.533900e-01 8.174204e+02 
3.546400e-01 8.137331e+02 
3.558400e-01 8.102240e+02 
3.570600e-01 8.066860e+02 
3.582700e-01 8.032062e+02 
3.595000e-01 7.996983e+02 
3.607100e-01 7.962842e+02 
3.618900e-01 7.929881e+02 
3.631200e-01 7.895803e+02 
3.643200e-01 7.862827e+02 
3.655500e-01 7.829302e+02 
3.667300e-01 7.797399e+02 
3.679500e-01 7.764784e+02 
3.691900e-01 7.731904e+02 
3.703600e-01 7.701128e+02 
3.715700e-01 7.669549e+02 
3.727700e-01 7.638478e+02 
3.739900e-01 7.607194e+02 
3.752000e-01 7.576508e+02 
3.763900e-01 7.546564e+02 
3.775800e-01 7.516852e+02 
3.788200e-01 7.486135e+02 
3.800300e-01 7.456397e+02 
3.812100e-01 7.427637e+02 
3.824200e-01 7.398384e+02 
3.836100e-01 7.369835e+02 
3.848600e-01 7.340079e+02 
3.860400e-01 7.312206e+02 
3.872400e-01 7.284073e+02 
3.884600e-01 7.255769e+02 
3.896500e-01 7.228400e+02 
3.908700e-01 7.200552e+02 
3.920600e-01 7.173594e+02 
3.933100e-01 7.145491e+02 
3.945300e-01 7.118273e+02 
3.957200e-01 7.091927e+02 
3.969300e-01 7.065339e+02 
3.981700e-01 7.038296e+02 
3.993500e-01 7.012753e+02 
4.094840e-01 6.800693e+02 
4.272360e-01 6.459368e+02 
4.454600e-01 6.142347e+02 
4.630560e-01 5.863928e+02 
4.804610e-01 5.611976e+02 
4.980690e-01 5.377663e+02 
5.159230e-01 5.159035e+02 
5.317440e-01 4.979373e+02 
5.489640e-01 4.797543e+02 
5.671990e-01 4.619145e+02 
5.838690e-01 4.467378e+02 
6.018840e-01 4.314568e+02 
6.202330e-01 4.169612e+02 
6.379250e-01 4.039097e+02 
6.545410e-01 3.924227e+02 
6.714560e-01 3.813966e+02 
6.892080e-01 3.705299e+02 
7.066010e-01 3.604824e+02 
7.240540e-01 3.509508e+02 
7.420450e-01 3.416737e+02 
7.593780e-01 3.332051e+02 
7.764720e-01 3.252601e+02 
7.942840e-01 3.173842e+02 
8.116170e-01 3.100722e+02 
8.288310e-01 3.031400e+02 
8.462240e-01 2.964356e+02 
8.631980e-01 2.901594e+02 
8.810700e-01 2.838210e+02 
8.989410e-01 2.777396e+02 
9.166330e-01 2.719483e+02 
9.345640e-01 2.662944e+02 
9.515980e-01 2.611139e+02 
9.688720e-01 2.560370e+02 
9.865640e-01 2.510080e+02 
1.031870e+00 2.388825e+02 
1.063490e+00 2.309518e+02 
1.097920e+00 2.228386e+02 
1.134370e+00 2.146869e+02 
1.167730e+00 2.076376e+02 
1.203830e+00 2.003936e+02 
1.240470e+00 1.934412e+02 
1.275790e+00 1.870486e+02 
1.309140e+00 1.813178e+02 
1.342970e+00 1.757269e+02 
1.378420e+00 1.701638e+02 
1.413200e+00 1.649456e+02 
1.448110e+00 1.599181e+02 
1.484090e+00 1.549856e+02 
1.518820e+00 1.504077e+02 
1.552880e+00 1.461176e+02 
1.588630e+00 1.417860e+02 
1.623230e+00 1.377789e+02 
1.657720e+00 1.339401e+02 
1.692450e+00 1.302486e+02 
1.726400e+00 1.267448e+02 
1.762200e+00 1.231911e+02 
1.797880e+00 1.198042e+02 
1.833270e+00 1.165597e+02 
1.869070e+00 1.134141e+02 
1.903200e+00 1.105241e+02 
1.937740e+00 1.077028e+02 
1.973190e+00 1.049066e+02 
2.007440e+00 1.023066e+02 
2.042160e+00 9.976989e+01 
2.077900e+00 9.723535e+01 
2.112390e+00 9.488915e+01 
2.146220e+00 9.264439e+01 
2.181600e+00 9.038693e+01 
2.216930e+00 8.821144e+01 
2.250760e+00 8.618684e+01 
2.286500e+00 8.411541e+01 
2.321770e+00 8.215079e+01 
2.355950e+00 8.031706e+01 
2.391280e+00 7.846479e+01 
2.426240e+00 7.668950e+01 
2.460670e+00 7.499561e+01 
2.495640e+00 7.332864e+01 
2.531080e+00 7.169895e+01 
2.566220e+00 7.012422e+01 
2.600830e+00 6.862193e+01 
2.635080e+00 6.718481e+01 
2.670340e+00 6.573565e+01 
2.705970e+00 6.432169e+01 
2.740040e+00 6.301266e+01 
2.774520e+00 6.172255e+01 
2.809730e+00 6.044238e+01 
2.844390e+00 5.921860e+01 
2.879960e+00 5.799703e+01 
2.914860e+00 5.683140e+01 
2.949410e+00 5.570986e+01 
2.984440e+00 5.460234e+01 
3.019760e+00 5.352033e+01 
3.054730e+00 5.248093e+01 
3.089030e+00 5.148041e+01 
3.124060e+00 5.048880e+01 
3.159560e+00 4.951418e+01 
3.194710e+00 4.856898e+01 
3.229010e+00 4.767023e+01 
3.263320e+00 4.679770e+01 
3.297930e+00 4.594032e+01 
3.332830e+00 4.509694e+01 
3.368040e+00 4.426732e+01 
3.403300e+00 4.345764e+01 
3.438450e+00 4.266980e+01 
3.473060e+00 4.191391e+01 
3.508440e+00 4.116337e+01 
3.543110e+00 4.044596e+01 
3.577470e+00 3.974734e+01 
3.613040e+00 3.904298e+01 
3.648120e+00 3.836736e+01 
3.682910e+00 3.771336e+01 
3.718050e+00 3.706786e+01 
3.753320e+00 3.643522e+01 
3.787980e+00 3.582756e+01 
3.822290e+00 3.524115e+01 
3.857020e+00 3.466277e+01 
3.891920e+00 3.409349e+01 
3.926650e+00 3.353698e+01 
3.961970e+00 3.298488e+01 
3.997360e+00 3.244610e+01 
4.031670e+00 3.193551e+01 
4.066330e+00 3.143033e+01 
4.101420e+00 3.093050e+01 
4.136200e+00 3.044745e+01 
4.170810e+00 2.997740e+01 
4.206250e+00 2.950568e+01 
4.241580e+00 2.904568e+01 
4.276300e+00 2.860354e+01 
4.310970e+00 2.817155e+01 
4.346120e+00 2.774303e+01 
4.380600e+00 2.733170e+01 
4.414730e+00 2.693301e+01 
4.450350e+00 2.652553e+01 
4.485320e+00 2.613392e+01 
4.519810e+00 2.575581e+01 
4.555430e+00 2.537346e+01 
4.590870e+00 2.500102e+01 
4.625480e+00 2.464487e+01 
4.659910e+00 2.429764e+01 
4.695230e+00 2.394877e+01 
4.729960e+00 2.361260e+01 
4.764450e+00 2.328542e+01 
4.799530e+00 2.295936e+01 
4.834910e+00 2.263698e+01 
4.869700e+00 2.232644e+01 
4.904370e+00 2.202295e+01 
4.939450e+00 2.172183e+01 
4.973940e+00 2.143164e+01 
5.008430e+00 2.114686e+01 
5.043810e+00 2.086054e+01 
5.078840e+00 2.058256e+01 
5.113500e+00 2.031258e+01 
5.148890e+00 2.004233e+01 
5.184210e+00 1.977761e+01 
5.219060e+00 1.952130e+01 
5.253660e+00 1.927174e+01 
5.288570e+00 1.902443e+01 
5.323420e+00 1.878216e+01 
5.358440e+00 1.854328e+01 
5.393590e+00 1.830774e+01 
5.428310e+00 1.807947e+01 
5.462800e+00 1.785679e+01 
5.497640e+00 1.763570e+01 
5.532670e+00 1.741761e+01 
5.567280e+00 1.720592e+01 
5.602000e+00 1.699714e+01 
5.637270e+00 1.678898e+01 
5.672410e+00 1.658517e+01 
5.707020e+00 1.638778e+01 
5.742040e+00 1.619178e+01 
5.777430e+00 1.599709e+01 
5.812210e+00 1.580890e+01 
5.846820e+00 1.562493e+01 
5.881610e+00 1.544304e+01 
5.916510e+00 1.526351e+01 
5.951600e+00 1.508629e+01 
5.986560e+00 1.491273e+01 
6.021830e+00 1.474041e+01 
6.056490e+00 1.457398e+01 
6.091160e+00 1.441028e+01 
6.125830e+00 1.424912e+01 
6.161090e+00 1.408787e+01 
6.195760e+00 1.393200e+01 
6.230420e+00 1.377856e+01 
6.265690e+00 1.362482e+01 
6.300950e+00 1.347397e+01 
6.335620e+00 1.332788e+01 
6.370880e+00 1.318155e+01 
6.405550e+00 1.304003e+01 
6.440220e+00 1.290068e+01 
6.475480e+00 1.276107e+01 
6.510150e+00 1.262593e+01 
6.544810e+00 1.249309e+01 
6.580080e+00 1.235988e+01 
6.614750e+00 1.223084e+01 
6.649410e+00 1.210396e+01 
6.684080e+00 1.197890e+01 
6.719340e+00 1.185352e+01 
6.754010e+00 1.173209e+01 
6.788680e+00 1.161260e+01 
6.823940e+00 1.149277e+01 
6.859800e+00 1.137264e+01 
6.894470e+00 1.125835e+01 
6.929140e+00 1.114571e+01 
6.963800e+00 1.103464e+01 
6.999070e+00 1.092319e+01 
7.033730e+00 1.081549e+01 
7.068400e+00 1.070922e+01 
7.103660e+00 1.060260e+01 
7.138330e+00 1.049926e+01 
7.173600e+00 1.039572e+01 
7.208260e+00 1.029533e+01 
7.243530e+00 1.019452e+01 
7.277600e+00 1.009857e+01 
7.312860e+00 1.000068e+01 
7.348120e+00 9.904090e+00 
7.382790e+00 9.810355e+00 
7.417460e+00 9.718000e+00 
7.452720e+00 9.625378e+00 
7.487390e+00 9.535480e+00 
7.522650e+00 9.445224e+00 
7.557320e+00 9.357780e+00 
7.591990e+00 9.271502e+00 
7.627250e+00 9.184866e+00 
7.662510e+00 9.099332e+00 
7.697180e+00 9.016452e+00 
7.731850e+00 8.934663e+00 
7.766510e+00 8.853905e+00 
7.801180e+00 8.774118e+00 
7.836440e+00 8.694085e+00 
7.871110e+00 8.616427e+00 
7.906380e+00 8.538392e+00 
7.941040e+00 8.462641e+00 
7.976310e+00 8.386576e+00 
8.011570e+00 8.311560e+00 
8.046240e+00 8.238687e+00 
8.080900e+00 8.166701e+00 
8.115570e+00 8.095596e+00 
8.150830e+00 8.024324e+00 
8.185500e+00 7.955074e+00 
8.220770e+00 7.885457e+00 
8.255430e+00 7.817848e+00 
8.290100e+00 7.751124e+00 
8.324770e+00 7.685186e+00 
8.359430e+00 7.620025e+00 
8.394700e+00 7.554484e+00 
8.429960e+00 7.489808e+00 
8.464630e+00 7.427028e+00 
8.499890e+00 7.363910e+00 
8.534560e+00 7.302555e+00 
8.569200e+00 7.241942e+00 
