# Parameters:
# omega_b = 0.021846, omega_m = 0.153071, n_s = 0.972835, h = 62.559055, w = -1.000000, sigma_8 = 0.723622
# z = 0.700000
#
# k[1/Mpc] # P(k):
8.694000e-04 4.796834e+03 
2.077466e-03 1.041620e+04 
3.285532e-03 1.492719e+04 
4.493598e-03 1.850321e+04 
5.701664e-03 2.126480e+04 
6.909730e-03 2.332314e+04 
8.117797e-03 2.481461e+04 
9.325863e-03 2.581097e+04 
1.053393e-02 2.638827e+04 
1.174199e-02 2.662061e+04 
1.295006e-02 2.655254e+04 
1.415813e-02 2.624628e+04 
1.536619e-02 2.575612e+04 
1.657426e-02 2.512132e+04 
1.778233e-02 2.438735e+04 
1.899039e-02 2.360584e+04 
2.019846e-02 2.277771e+04 
2.140652e-02 2.192060e+04 
2.261459e-02 2.105643e+04 
2.382266e-02 2.020956e+04 
2.503072e-02 1.939595e+04 
2.623879e-02 1.862311e+04 
2.744685e-02 1.789303e+04 
2.865492e-02 1.721302e+04 
2.986299e-02 1.658343e+04 
3.100100e-02 1.603710e+04 
3.220400e-02 1.550725e+04 
3.288100e-02 1.523089e+04 
3.424300e-02 1.471907e+04 
3.555100e-02 1.427756e+04 
3.686000e-02 1.388066e+04 
3.795000e-02 1.357946e+04 
3.929100e-02 1.324276e+04 
4.039800e-02 1.298652e+04 
4.164000e-02 1.271708e+04 
4.294400e-02 1.244883e+04 
4.415000e-02 1.221016e+04 
4.542900e-02 1.195883e+04 
4.660900e-02 1.172889e+04 
4.782300e-02 1.148416e+04 
4.892900e-02 1.125771e+04 
5.031200e-02 1.096546e+04 
5.155900e-02 1.069073e+04 
5.238100e-02 1.050479e+04 
5.378200e-02 1.018057e+04 
5.513400e-02 9.858392e+03 
5.627600e-02 9.581405e+03 
5.735300e-02 9.318904e+03 
5.870100e-02 8.991281e+03 
5.988700e-02 8.707466e+03 
6.113500e-02 8.415395e+03 
6.225900e-02 8.160029e+03 
6.340100e-02 7.910311e+03 
6.480200e-02 7.619331e+03 
6.601100e-02 7.383675e+03 
6.725500e-02 7.157228e+03 
6.829100e-02 6.982625e+03 
6.958600e-02 6.780072e+03 
7.071100e-02 6.619538e+03 
7.192300e-02 6.461205e+03 
7.307400e-02 6.324217e+03 
7.412300e-02 6.209844e+03 
7.550400e-02 6.074134e+03 
7.663100e-02 5.972990e+03 
7.791200e-02 5.869422e+03 
7.912700e-02 5.779548e+03 
8.027600e-02 5.699959e+03 
8.138400e-02 5.626904e+03 
8.272200e-02 5.542210e+03 
8.406100e-02 5.459708e+03 
8.534100e-02 5.380938e+03 
8.653800e-02 5.305918e+03 
8.759800e-02 5.238541e+03 
8.900300e-02 5.146953e+03 
9.009000e-02 5.073519e+03 
9.113300e-02 5.000278e+03 
9.239600e-02 4.910060e+03 
9.358000e-02 4.822992e+03 
9.496100e-02 4.717782e+03 
9.608400e-02 4.631338e+03 
9.727500e-02 4.539579e+03 
9.852600e-02 4.440811e+03 
9.973800e-02 4.346411e+03 
1.009000e-01 4.257233e+03 
1.020900e-01 4.166609e+03 
1.034000e-01 4.069747e+03 
1.046000e-01 3.983617e+03 
1.057200e-01 3.906338e+03 
1.069100e-01 3.827080e+03 
1.082500e-01 3.742482e+03 
1.093900e-01 3.674362e+03 
1.105400e-01 3.608486e+03 
1.116900e-01 3.547404e+03 
1.129600e-01 3.482928e+03 
1.142000e-01 3.424846e+03 
1.153300e-01 3.374688e+03 
1.166400e-01 3.320229e+03 
1.177800e-01 3.276090e+03 
1.190000e-01 3.230958e+03 
1.201200e-01 3.192467e+03 
1.213400e-01 3.151878e+03 
1.227100e-01 3.109295e+03 
1.238900e-01 3.073728e+03 
1.250700e-01 3.039504e+03 
1.263200e-01 3.004028e+03 
1.275500e-01 2.969785e+03 
1.287500e-01 2.936732e+03 
1.299900e-01 2.902698e+03 
1.311300e-01 2.871351e+03 
1.323500e-01 2.837402e+03 
1.335900e-01 2.802651e+03 
1.347100e-01 2.770584e+03 
1.359800e-01 2.734088e+03 
1.372100e-01 2.697687e+03 
1.384300e-01 2.661652e+03 
1.395700e-01 2.626961e+03 
1.407700e-01 2.591023e+03 
1.420300e-01 2.552169e+03 
1.432800e-01 2.514493e+03 
1.444500e-01 2.478697e+03 
1.456300e-01 2.443354e+03 
1.468900e-01 2.406264e+03 
1.480500e-01 2.372798e+03 
1.491700e-01 2.341373e+03 
1.503800e-01 2.308419e+03 
1.516400e-01 2.275071e+03 
1.528200e-01 2.245536e+03 
1.540200e-01 2.216096e+03 
1.551900e-01 2.189236e+03 
1.564300e-01 2.161635e+03 
1.576600e-01 2.135520e+03 
1.588700e-01 2.111191e+03 
1.600900e-01 2.087193e+03 
1.612700e-01 2.065653e+03 
1.625400e-01 2.042901e+03 
1.637600e-01 2.021937e+03 
1.649500e-01 2.002138e+03 
1.662200e-01 1.981429e+03 
1.674000e-01 1.962736e+03 
1.685000e-01 1.945599e+03 
1.697500e-01 1.926315e+03 
1.710300e-01 1.906784e+03 
1.722200e-01 1.888946e+03 
1.734400e-01 1.870355e+03 
1.746400e-01 1.852355e+03 
1.758700e-01 1.833975e+03 
1.770900e-01 1.815559e+03 
1.782700e-01 1.798044e+03 
1.794600e-01 1.780258e+03 
1.807000e-01 1.761758e+03 
1.819100e-01 1.744010e+03 
1.830100e-01 1.727722e+03 
1.842200e-01 1.710017e+03 
1.855000e-01 1.691594e+03 
1.867000e-01 1.674348e+03 
1.879200e-01 1.657101e+03 
1.890900e-01 1.640821e+03 
1.902800e-01 1.624501e+03 
1.915200e-01 1.607769e+03 
1.926900e-01 1.592266e+03 
1.939000e-01 1.576592e+03 
1.951700e-01 1.560406e+03 
1.963100e-01 1.546170e+03 
1.975100e-01 1.531593e+03 
1.987800e-01 1.516407e+03 
2.000100e-01 1.502019e+03 
2.012500e-01 1.487942e+03 
2.023400e-01 1.475747e+03 
2.036100e-01 1.461802e+03 
2.048900e-01 1.448196e+03 
2.060400e-01 1.436151e+03 
2.072200e-01 1.423981e+03 
2.084200e-01 1.411976e+03 
2.096900e-01 1.399457e+03 
2.109200e-01 1.387511e+03 
2.121100e-01 1.376232e+03 
2.132700e-01 1.365394e+03 
2.145200e-01 1.353877e+03 
2.157200e-01 1.343030e+03 
2.168800e-01 1.332712e+03 
2.180700e-01 1.322267e+03 
2.193400e-01 1.311279e+03 
2.206000e-01 1.300539e+03 
2.217500e-01 1.290868e+03 
2.229500e-01 1.280909e+03 
2.241400e-01 1.271165e+03 
2.253500e-01 1.261389e+03 
2.264900e-01 1.252296e+03 
2.277100e-01 1.242688e+03 
2.289900e-01 1.232742e+03 
2.301500e-01 1.223847e+03 
2.313600e-01 1.214686e+03 
2.325600e-01 1.205727e+03 
2.337700e-01 1.196808e+03 
2.350000e-01 1.187858e+03 
2.362000e-01 1.179246e+03 
2.374100e-01 1.170684e+03 
2.386500e-01 1.162020e+03 
2.399100e-01 1.153330e+03 
2.410400e-01 1.145669e+03 
2.422500e-01 1.137569e+03 
2.435000e-01 1.129306e+03 
2.447300e-01 1.121283e+03 
2.458700e-01 1.113965e+03 
2.470600e-01 1.106414e+03 
2.483300e-01 1.098454e+03 
2.495600e-01 1.090855e+03 
2.507600e-01 1.083550e+03 
2.519600e-01 1.076332e+03 
2.532200e-01 1.068843e+03 
2.543700e-01 1.062098e+03 
2.555500e-01 1.055264e+03 
2.568000e-01 1.048108e+03 
2.580100e-01 1.041263e+03 
2.592400e-01 1.034388e+03 
2.604100e-01 1.027924e+03 
2.616100e-01 1.021367e+03 
2.628400e-01 1.014724e+03 
2.640600e-01 1.008204e+03 
2.652200e-01 1.002071e+03 
2.664300e-01 9.957433e+02 
2.676500e-01 9.894351e+02 
2.688400e-01 9.833411e+02 
2.700700e-01 9.771061e+02 
2.712400e-01 9.712401e+02 
2.724800e-01 9.650909e+02 
2.736700e-01 9.592424e+02 
2.748800e-01 9.533472e+02 
2.761000e-01 9.474679e+02 
2.773200e-01 9.416524e+02 
2.785400e-01 9.358939e+02 
2.797000e-01 9.304637e+02 
2.808900e-01 9.249507e+02 
2.821400e-01 9.192214e+02 
2.833900e-01 9.135537e+02 
2.845500e-01 9.083299e+02 
2.857800e-01 9.028480e+02 
2.870300e-01 8.973364e+02 
2.882100e-01 8.921876e+02 
2.893900e-01 8.870847e+02 
2.906300e-01 8.817742e+02 
2.918900e-01 8.764351e+02 
2.930500e-01 8.715698e+02 
2.942500e-01 8.665831e+02 
2.954200e-01 8.617577e+02 
2.966500e-01 8.567355e+02 
2.978900e-01 8.517243e+02 
2.990400e-01 8.471228e+02 
3.002700e-01 8.422447e+02 
3.015100e-01 8.373745e+02 
3.026800e-01 8.328245e+02 
3.038500e-01 8.283177e+02 
3.050300e-01 8.238156e+02 
3.062600e-01 8.191639e+02 
3.075000e-01 8.145210e+02 
3.087000e-01 8.100717e+02 
3.099100e-01 8.056284e+02 
3.111200e-01 8.012282e+02 
3.123100e-01 7.969424e+02 
3.135300e-01 7.925902e+02 
3.147300e-01 7.883501e+02 
3.159900e-01 7.839408e+02 
3.171800e-01 7.798168e+02 
3.183700e-01 7.757313e+02 
3.196300e-01 7.714464e+02 
3.208400e-01 7.673707e+02 
3.220300e-01 7.633993e+02 
3.232000e-01 7.595378e+02 
3.244300e-01 7.555186e+02 
3.256700e-01 7.515046e+02 
3.269200e-01 7.474963e+02 
3.280800e-01 7.438103e+02 
3.292500e-01 7.401337e+02 
3.304800e-01 7.363059e+02 
3.317100e-01 7.325131e+02 
3.328900e-01 7.289070e+02 
3.340700e-01 7.253323e+02 
3.353600e-01 7.214725e+02 
3.365300e-01 7.180081e+02 
3.377100e-01 7.145440e+02 
3.389200e-01 7.110227e+02 
3.401600e-01 7.074461e+02 
3.413700e-01 7.039976e+02 
3.425300e-01 7.007272e+02 
3.437700e-01 6.972613e+02 
3.449800e-01 6.939088e+02 
3.461800e-01 6.906126e+02 
3.473600e-01 6.874053e+02 
3.485800e-01 6.841339e+02 
3.498100e-01 6.808641e+02 
3.510200e-01 6.776750e+02 
3.522000e-01 6.745909e+02 
3.533900e-01 6.715064e+02 
3.546400e-01 6.683128e+02 
3.558400e-01 6.652740e+02 
3.570600e-01 6.622103e+02 
3.582700e-01 6.591970e+02 
3.595000e-01 6.561595e+02 
3.607100e-01 6.532074e+02 
3.618900e-01 6.503606e+02 
3.631200e-01 6.474173e+02 
3.643200e-01 6.445694e+02 
3.655500e-01 6.416741e+02 
3.667300e-01 6.389189e+02 
3.679500e-01 6.361112e+02 
3.691900e-01 6.332809e+02 
3.703600e-01 6.306316e+02 
3.715700e-01 6.279134e+02 
3.727700e-01 6.252390e+02 
3.739900e-01 6.225493e+02 
3.752000e-01 6.199168e+02 
3.763900e-01 6.173480e+02 
3.775800e-01 6.147991e+02 
3.788200e-01 6.121640e+02 
3.800300e-01 6.096130e+02 
3.812100e-01 6.071514e+02 
3.824200e-01 6.046512e+02 
3.836100e-01 6.022112e+02 
3.848600e-01 5.996681e+02 
3.860400e-01 5.972860e+02 
3.872400e-01 5.948817e+02 
3.884600e-01 5.924672e+02 
3.896500e-01 5.901340e+02 
3.908700e-01 5.877601e+02 
3.920600e-01 5.854621e+02 
3.933100e-01 5.830665e+02 
3.945300e-01 5.807464e+02 
3.957200e-01 5.785090e+02 
3.969300e-01 5.762534e+02 
3.981700e-01 5.739593e+02 
3.993500e-01 5.717924e+02 
4.094840e-01 5.538232e+02 
4.272360e-01 5.250178e+02 
4.454600e-01 4.983328e+02 
4.630560e-01 4.749325e+02 
4.804610e-01 4.537423e+02 
4.980690e-01 4.340418e+02 
5.159230e-01 4.156504e+02 
5.317440e-01 4.005545e+02 
5.489640e-01 3.852953e+02 
5.671990e-01 3.703646e+02 
5.838690e-01 3.576982e+02 
6.018840e-01 3.449893e+02 
6.202330e-01 3.330076e+02 
6.379250e-01 3.222500e+02 
6.545410e-01 3.128397e+02 
6.714560e-01 3.038457e+02 
6.892080e-01 2.950159e+02 
7.066010e-01 2.869010e+02 
7.240540e-01 2.792297e+02 
7.420450e-01 2.717983e+02 
7.593780e-01 2.650362e+02 
7.764720e-01 2.587115e+02 
7.942840e-01 2.524624e+02 
8.116170e-01 2.466825e+02 
8.288310e-01 2.412109e+02 
8.462240e-01 2.359286e+02 
8.631980e-01 2.309935e+02 
8.810700e-01 2.260139e+02 
8.989410e-01 2.212408e+02 
9.166330e-01 2.167001e+02 
9.345640e-01 2.122724e+02 
9.515980e-01 2.082142e+02 
9.688720e-01 2.042394e+02 
9.865640e-01 2.003020e+02 
1.031870e+00 1.907983e+02 
1.063490e+00 1.845792e+02 
1.097920e+00 1.782074e+02 
1.134370e+00 1.717958e+02 
1.167730e+00 1.662476e+02 
1.203830e+00 1.605298e+02 
1.240470e+00 1.550386e+02 
1.275790e+00 1.499761e+02 
1.309140e+00 1.454319e+02 
1.342970e+00 1.409934e+02 
1.378420e+00 1.365696e+02 
1.413200e+00 1.324135e+02 
1.448110e+00 1.284061e+02 
1.484090e+00 1.244705e+02 
1.518820e+00 1.208116e+02 
1.552880e+00 1.173783e+02 
1.588630e+00 1.139070e+02 
1.623230e+00 1.106948e+02 
1.657720e+00 1.076138e+02 
1.692450e+00 1.046491e+02 
1.726400e+00 1.018337e+02 
1.762200e+00 9.897796e+01 
1.797880e+00 9.625152e+01 
1.833270e+00 9.363772e+01 
1.869070e+00 9.110428e+01 
1.903200e+00 8.877476e+01 
1.937740e+00 8.649862e+01 
1.973190e+00 8.424398e+01 
2.007440e+00 8.214490e+01 
2.042160e+00 8.009727e+01 
2.077900e+00 7.805055e+01 
2.112390e+00 7.615456e+01 
2.146220e+00 7.434017e+01 
2.181600e+00 7.251638e+01 
2.216930e+00 7.075724e+01 
2.250760e+00 6.912038e+01 
2.286500e+00 6.744552e+01 
2.321770e+00 6.585557e+01 
2.355950e+00 6.437138e+01 
2.391280e+00 6.287372e+01 
2.426240e+00 6.143737e+01 
2.460670e+00 6.006655e+01 
2.495640e+00 5.871775e+01 
2.531080e+00 5.739923e+01 
2.566220e+00 5.612435e+01 
2.600830e+00 5.490795e+01 
2.635080e+00 5.374442e+01 
2.670340e+00 5.257162e+01 
2.705970e+00 5.142698e+01 
2.740040e+00 5.036729e+01 
2.774520e+00 4.932367e+01 
2.809730e+00 4.828782e+01 
2.844390e+00 4.729751e+01 
2.879960e+00 4.630889e+01 
2.914860e+00 4.536576e+01 
2.949410e+00 4.445841e+01 
2.984440e+00 4.356240e+01 
3.019760e+00 4.268710e+01 
3.054730e+00 4.184636e+01 
3.089030e+00 4.103726e+01 
3.124060e+00 4.023541e+01 
3.159560e+00 3.944729e+01 
3.194710e+00 3.868315e+01 
3.229010e+00 3.795669e+01 
3.263320e+00 3.725138e+01 
3.297930e+00 3.655845e+01 
3.332830e+00 3.587694e+01 
3.368040e+00 3.520673e+01 
3.403300e+00 3.455280e+01 
3.438450e+00 3.391649e+01 
3.473060e+00 3.330606e+01 
3.508440e+00 3.270008e+01 
3.543110e+00 3.212097e+01 
3.577470e+00 3.155721e+01 
3.613040e+00 3.098891e+01 
3.648120e+00 3.044383e+01 
3.682910e+00 2.991628e+01 
3.718050e+00 2.939568e+01 
3.753320e+00 2.888557e+01 
3.787980e+00 2.839570e+01 
3.822290e+00 2.792304e+01 
3.857020e+00 2.745693e+01 
3.891920e+00 2.699827e+01 
3.926650e+00 2.655005e+01 
3.961970e+00 2.610545e+01 
3.997360e+00 2.567163e+01 
4.031670e+00 2.526060e+01 
4.066330e+00 2.485403e+01 
4.101420e+00 2.445184e+01 
4.136200e+00 2.406332e+01 
4.170810e+00 2.368531e+01 
4.206250e+00 2.330604e+01 
4.241580e+00 2.293626e+01 
4.276300e+00 2.258091e+01 
4.310970e+00 2.223377e+01 
4.346120e+00 2.188951e+01 
4.380600e+00 2.155917e+01 
4.414730e+00 2.123902e+01 
4.450350e+00 2.091197e+01 
4.485320e+00 2.059771e+01 
4.519810e+00 2.029434e+01 
4.555430e+00 1.998763e+01 
4.590870e+00 1.968893e+01 
4.625480e+00 1.940339e+01 
4.659910e+00 1.912503e+01 
4.695230e+00 1.884549e+01 
4.729960e+00 1.857618e+01 
4.764450e+00 1.831412e+01 
4.799530e+00 1.805305e+01 
4.834910e+00 1.779496e+01 
4.869700e+00 1.754645e+01 
4.904370e+00 1.730361e+01 
4.939450e+00 1.706274e+01 
4.973940e+00 1.683071e+01 
5.008430e+00 1.660303e+01 
5.043810e+00 1.637418e+01 
5.078840e+00 1.615204e+01 
5.113500e+00 1.593634e+01 
5.148890e+00 1.572050e+01 
5.184210e+00 1.550911e+01 
5.219060e+00 1.530449e+01 
5.253660e+00 1.510537e+01 
5.288570e+00 1.490807e+01 
5.323420e+00 1.471485e+01 
5.358440e+00 1.452440e+01 
5.393590e+00 1.433665e+01 
5.428310e+00 1.415475e+01 
5.462800e+00 1.397734e+01 
5.497640e+00 1.380124e+01 
5.532670e+00 1.362759e+01 
5.567280e+00 1.345909e+01 
5.602000e+00 1.329292e+01 
5.637270e+00 1.312731e+01 
5.672410e+00 1.296521e+01 
5.707020e+00 1.280822e+01 
5.742040e+00 1.265243e+01 
5.777430e+00 1.249771e+01 
5.812210e+00 1.234817e+01 
5.846820e+00 1.220207e+01 
5.881610e+00 1.205766e+01 
5.916510e+00 1.191514e+01 
5.951600e+00 1.177453e+01 
5.986560e+00 1.163687e+01 
6.021830e+00 1.150022e+01 
6.056490e+00 1.136827e+01 
6.091160e+00 1.123852e+01 
6.125830e+00 1.111079e+01 
6.161090e+00 1.098303e+01 
6.195760e+00 1.085963e+01 
6.230420e+00 1.073816e+01 
6.265690e+00 1.061646e+01 
6.300950e+00 1.049714e+01 
6.335620e+00 1.038161e+01 
6.370880e+00 1.026588e+01 
6.405550e+00 1.015402e+01 
6.440220e+00 1.004390e+01 
6.475480e+00 9.933583e+00 
6.510150e+00 9.826841e+00 
6.544810e+00 9.721979e+00 
6.580080e+00 9.616835e+00 
6.614750e+00 9.514987e+00 
6.649410e+00 9.414919e+00 
6.684080e+00 9.316310e+00 
6.719340e+00 9.217463e+00 
6.754010e+00 9.121759e+00 
6.788680e+00 9.027635e+00 
6.823940e+00 8.933264e+00 
6.859800e+00 8.838662e+00 
6.894470e+00 8.748711e+00 
6.929140e+00 8.660083e+00 
6.963800e+00 8.572700e+00 
6.999070e+00 8.485030e+00 
7.033730e+00 8.400381e+00 
7.068400e+00 8.316855e+00 
7.103660e+00 8.233064e+00 
7.138330e+00 8.151884e+00 
7.173600e+00 8.070604e+00 
7.208260e+00 7.991801e+00 
7.243530e+00 7.912683e+00 
7.277600e+00 7.837411e+00 
7.312860e+00 7.760665e+00 
7.348120e+00 7.684938e+00 
7.382790e+00 7.611456e+00 
7.417460e+00 7.539094e+00 
7.452720e+00 7.466545e+00 
7.487390e+00 7.396133e+00 
7.522650e+00 7.325445e+00 
7.557320e+00 7.257026e+00 
7.591990e+00 7.189545e+00 
7.627250e+00 7.121787e+00 
7.662510e+00 7.054895e+00 
7.697180e+00 6.990121e+00 
7.731850e+00 6.926219e+00 
7.766510e+00 6.863126e+00 
7.801180e+00 6.800793e+00 
7.836440e+00 6.738316e+00 
7.871110e+00 6.677722e+00 
7.906380e+00 6.616836e+00 
7.941040e+00 6.557734e+00 
7.976310e+00 6.498414e+00 
8.011570e+00 6.439941e+00 
8.046240e+00 6.383141e+00 
8.080900e+00 6.327034e+00 
8.115570e+00 6.271629e+00 
8.150830e+00 6.216153e+00 
8.185500e+00 6.162253e+00 
8.220770e+00 6.108067e+00 
8.255430e+00 6.055446e+00 
8.290100e+00 6.003560e+00 
8.324770e+00 5.952290e+00 
8.359430e+00 5.901627e+00 
8.394700e+00 5.850669e+00 
8.429960e+00 5.800417e+00 
8.464630e+00 5.751675e+00 
8.499890e+00 5.702670e+00 
8.534560e+00 5.655034e+00 
8.569200e+00 5.607976e+00 
