# Parameters:
# omega_b = 0.022020, omega_m = 0.147835, n_s = 0.942913, h = 76.259843, w = -1.000000, sigma_8 = 0.813386
# z = 0.700000
#
# k[1/Mpc] # P(k):
8.694000e-04 6.665694e+03 
2.077466e-03 1.402984e+04 
3.285532e-03 1.977431e+04 
4.493598e-03 2.421349e+04 
5.701664e-03 2.754057e+04 
6.909730e-03 2.993576e+04 
8.117797e-03 3.159964e+04 
9.325863e-03 3.263653e+04 
1.053393e-02 3.314921e+04 
1.174199e-02 3.323317e+04 
1.295006e-02 3.294913e+04 
1.415813e-02 3.237949e+04 
1.536619e-02 3.159209e+04 
1.657426e-02 3.062612e+04 
1.778233e-02 2.947053e+04 
1.899039e-02 2.814316e+04 
2.019846e-02 2.677833e+04 
2.140652e-02 2.548422e+04 
2.261459e-02 2.425332e+04 
2.382266e-02 2.308400e+04 
2.503072e-02 2.198726e+04 
2.623879e-02 2.096933e+04 
2.744685e-02 2.003255e+04 
2.865492e-02 1.918033e+04 
2.986299e-02 1.840967e+04 
3.100100e-02 1.775793e+04 
3.220400e-02 1.714128e+04 
3.288100e-02 1.682704e+04 
3.424300e-02 1.625728e+04 
3.555100e-02 1.577838e+04 
3.686000e-02 1.535821e+04 
3.795000e-02 1.504502e+04 
3.929100e-02 1.470005e+04 
4.039800e-02 1.443836e+04 
4.164000e-02 1.416180e+04 
4.294400e-02 1.388016e+04 
4.415000e-02 1.362363e+04 
4.542900e-02 1.334239e+04 
4.660900e-02 1.307735e+04 
4.782300e-02 1.278312e+04 
4.892900e-02 1.250440e+04 
5.031200e-02 1.213608e+04 
5.155900e-02 1.178366e+04 
5.238100e-02 1.154342e+04 
5.378200e-02 1.112320e+04 
5.513400e-02 1.070675e+04 
5.627600e-02 1.035159e+04 
5.735300e-02 1.001862e+04 
5.870100e-02 9.609235e+03 
5.988700e-02 9.260895e+03 
6.113500e-02 8.909286e+03 
6.225900e-02 8.608558e+03 
6.340100e-02 8.320907e+03 
6.480200e-02 7.992950e+03 
6.601100e-02 7.734938e+03 
6.725500e-02 7.493097e+03 
6.829100e-02 7.311596e+03 
6.958600e-02 7.104996e+03 
7.071100e-02 6.945159e+03 
7.192300e-02 6.790482e+03 
7.307400e-02 6.658912e+03 
7.412300e-02 6.550459e+03 
7.550400e-02 6.423211e+03 
7.663100e-02 6.328758e+03 
7.791200e-02 6.231763e+03 
7.912700e-02 6.146372e+03 
8.027600e-02 6.069327e+03 
8.138400e-02 5.997120e+03 
8.272200e-02 5.911075e+03 
8.406100e-02 5.824652e+03 
8.534100e-02 5.739226e+03 
8.653800e-02 5.655728e+03 
8.759800e-02 5.579596e+03 
8.900300e-02 5.474558e+03 
9.009000e-02 5.389320e+03 
9.113300e-02 5.303697e+03 
9.239600e-02 5.197847e+03 
9.358000e-02 5.095395e+03 
9.496100e-02 4.971517e+03 
9.608400e-02 4.869880e+03 
9.727500e-02 4.762175e+03 
9.852600e-02 4.646872e+03 
9.973800e-02 4.537228e+03 
1.009000e-01 4.434131e+03 
1.020900e-01 4.330774e+03 
1.034000e-01 4.221233e+03 
1.046000e-01 4.124792e+03 
1.057200e-01 4.040126e+03 
1.069100e-01 3.954068e+03 
1.082500e-01 3.864452e+03 
1.093900e-01 3.793803e+03 
1.105400e-01 3.726366e+03 
1.116900e-01 3.665917e+03 
1.129600e-01 3.602797e+03 
1.142000e-01 3.547655e+03 
1.153300e-01 3.500543e+03 
1.166400e-01 3.450214e+03 
1.177800e-01 3.409740e+03 
1.190000e-01 3.368509e+03 
1.201200e-01 3.332950e+03 
1.213400e-01 3.295380e+03 
1.227100e-01 3.254465e+03 
1.238900e-01 3.219868e+03 
1.250700e-01 3.185151e+03 
1.263200e-01 3.148544e+03 
1.275500e-01 3.111831e+03 
1.287500e-01 3.075746e+03 
1.299900e-01 3.037578e+03 
1.311300e-01 3.002024e+03 
1.323500e-01 2.962933e+03 
1.335900e-01 2.922808e+03 
1.347100e-01 2.885644e+03 
1.359800e-01 2.843472e+03 
1.372100e-01 2.801644e+03 
1.384300e-01 2.760472e+03 
1.395700e-01 2.721353e+03 
1.407700e-01 2.680937e+03 
1.420300e-01 2.638154e+03 
1.432800e-01 2.596688e+03 
1.444500e-01 2.558255e+03 
1.456300e-01 2.520322e+03 
1.468900e-01 2.481186e+03 
1.480500e-01 2.446075e+03 
1.491700e-01 2.413410e+03 
1.503800e-01 2.379541e+03 
1.516400e-01 2.345364e+03 
1.528200e-01 2.315531e+03 
1.540200e-01 2.285790e+03 
1.551900e-01 2.258934e+03 
1.564300e-01 2.231406e+03 
1.576600e-01 2.205426e+03 
1.588700e-01 2.181308e+03 
1.600900e-01 2.157512e+03 
1.612700e-01 2.136114e+03 
1.625400e-01 2.113510e+03 
1.637600e-01 2.092542e+03 
1.649500e-01 2.072656e+03 
1.662200e-01 2.051803e+03 
1.674000e-01 2.032686e+03 
1.685000e-01 2.015161e+03 
1.697500e-01 1.995243e+03 
1.710300e-01 1.974876e+03 
1.722200e-01 1.956276e+03 
1.734400e-01 1.936560e+03 
1.746400e-01 1.917459e+03 
1.758700e-01 1.897887e+03 
1.770900e-01 1.878140e+03 
1.782700e-01 1.859361e+03 
1.794600e-01 1.840252e+03 
1.807000e-01 1.820350e+03 
1.819100e-01 1.801259e+03 
1.830100e-01 1.783790e+03 
1.842200e-01 1.764812e+03 
1.855000e-01 1.745074e+03 
1.867000e-01 1.726747e+03 
1.879200e-01 1.708421e+03 
1.890900e-01 1.691157e+03 
1.902800e-01 1.674012e+03 
1.915200e-01 1.656436e+03 
1.926900e-01 1.640196e+03 
1.939000e-01 1.623925e+03 
1.951700e-01 1.607121e+03 
1.963100e-01 1.592382e+03 
1.975100e-01 1.577395e+03 
1.987800e-01 1.561781e+03 
2.000100e-01 1.547012e+03 
2.012500e-01 1.532621e+03 
2.023400e-01 1.520153e+03 
2.036100e-01 1.505900e+03 
2.048900e-01 1.492004e+03 
2.060400e-01 1.479704e+03 
2.072200e-01 1.467273e+03 
2.084200e-01 1.454984e+03 
2.096900e-01 1.442169e+03 
2.109200e-01 1.429940e+03 
2.121100e-01 1.418349e+03 
2.132700e-01 1.407209e+03 
2.145200e-01 1.395371e+03 
2.157200e-01 1.384206e+03 
2.168800e-01 1.373576e+03 
2.180700e-01 1.362816e+03 
2.193400e-01 1.351504e+03 
2.206000e-01 1.340460e+03 
2.217500e-01 1.330515e+03 
2.229500e-01 1.320274e+03 
2.241400e-01 1.310329e+03 
2.253500e-01 1.300353e+03 
2.264900e-01 1.291074e+03 
2.277100e-01 1.281333e+03 
2.289900e-01 1.271320e+03 
2.301500e-01 1.262364e+03 
2.313600e-01 1.253141e+03 
2.325600e-01 1.244285e+03 
2.337700e-01 1.235468e+03 
2.350000e-01 1.226621e+03 
2.362000e-01 1.218182e+03 
2.374100e-01 1.209880e+03 
2.386500e-01 1.201478e+03 
2.399100e-01 1.193051e+03 
2.410400e-01 1.185732e+03 
2.422500e-01 1.178007e+03 
2.435000e-01 1.170125e+03 
2.447300e-01 1.162488e+03 
2.458700e-01 1.155580e+03 
2.470600e-01 1.148452e+03 
2.483300e-01 1.140938e+03 
2.495600e-01 1.133768e+03 
2.507600e-01 1.126881e+03 
2.519600e-01 1.120074e+03 
2.532200e-01 1.113013e+03 
2.543700e-01 1.106624e+03 
2.555500e-01 1.100128e+03 
2.568000e-01 1.093328e+03 
2.580100e-01 1.086822e+03 
2.592400e-01 1.080224e+03 
2.604100e-01 1.073992e+03 
2.616100e-01 1.067671e+03 
2.628400e-01 1.061266e+03 
2.640600e-01 1.054900e+03 
2.652200e-01 1.048882e+03 
2.664300e-01 1.042672e+03 
2.676500e-01 1.036480e+03 
2.688400e-01 1.030435e+03 
2.700700e-01 1.024210e+03 
2.712400e-01 1.018353e+03 
2.724800e-01 1.012213e+03 
2.736700e-01 1.006330e+03 
2.748800e-01 1.000356e+03 
2.761000e-01 9.943982e+02 
2.773200e-01 9.885047e+02 
2.785400e-01 9.826483e+02 
2.797000e-01 9.770830e+02 
2.808900e-01 9.714325e+02 
2.821400e-01 9.655603e+02 
2.833900e-01 9.597493e+02 
2.845500e-01 9.543554e+02 
2.857800e-01 9.486949e+02 
2.870300e-01 9.430037e+02 
2.882100e-01 9.376869e+02 
2.893900e-01 9.324023e+02 
2.906300e-01 9.268945e+02 
2.918900e-01 9.213570e+02 
2.930500e-01 9.163108e+02 
2.942500e-01 9.111358e+02 
2.954200e-01 9.061196e+02 
2.966500e-01 9.008987e+02 
2.978900e-01 8.956892e+02 
2.990400e-01 8.909054e+02 
3.002700e-01 8.858325e+02 
3.015100e-01 8.807668e+02 
3.026800e-01 8.760341e+02 
3.038500e-01 8.713464e+02 
3.050300e-01 8.666634e+02 
3.062600e-01 8.618256e+02 
3.075000e-01 8.569969e+02 
3.087000e-01 8.523694e+02 
3.099100e-01 8.477481e+02 
3.111200e-01 8.431730e+02 
3.123100e-01 8.387193e+02 
3.135300e-01 8.341966e+02 
3.147300e-01 8.297902e+02 
3.159900e-01 8.252078e+02 
3.171800e-01 8.209244e+02 
3.183700e-01 8.166825e+02 
3.196300e-01 8.122336e+02 
3.208400e-01 8.080017e+02 
3.220300e-01 8.038780e+02 
3.232000e-01 7.998707e+02 
3.244300e-01 7.957005e+02 
3.256700e-01 7.915357e+02 
3.269200e-01 7.873767e+02 
3.280800e-01 7.835521e+02 
3.292500e-01 7.797393e+02 
3.304800e-01 7.757703e+02 
3.317100e-01 7.718376e+02 
3.328900e-01 7.680983e+02 
3.340700e-01 7.643916e+02 
3.353600e-01 7.603902e+02 
3.365300e-01 7.567990e+02 
3.377100e-01 7.532081e+02 
3.389200e-01 7.495579e+02 
3.401600e-01 7.458503e+02 
3.413700e-01 7.422750e+02 
3.425300e-01 7.388841e+02 
3.437700e-01 7.352904e+02 
3.449800e-01 7.318144e+02 
3.461800e-01 7.283965e+02 
3.473600e-01 7.250705e+02 
3.485800e-01 7.216771e+02 
3.498100e-01 7.182853e+02 
3.510200e-01 7.149771e+02 
3.522000e-01 7.117778e+02 
3.533900e-01 7.085780e+02 
3.546400e-01 7.052625e+02 
3.558400e-01 7.021074e+02 
3.570600e-01 6.989265e+02 
3.582700e-01 6.957979e+02 
3.595000e-01 6.926441e+02 
3.607100e-01 6.895772e+02 
3.618900e-01 6.866183e+02 
3.631200e-01 6.835592e+02 
3.643200e-01 6.805991e+02 
3.655500e-01 6.775897e+02 
3.667300e-01 6.747260e+02 
3.679500e-01 6.718039e+02 
3.691900e-01 6.688582e+02 
3.703600e-01 6.661009e+02 
3.715700e-01 6.632718e+02 
3.727700e-01 6.604883e+02 
3.739900e-01 6.576875e+02 
3.752000e-01 6.549438e+02 
3.763900e-01 6.522665e+02 
3.775800e-01 6.496098e+02 
3.788200e-01 6.468633e+02 
3.800300e-01 6.442045e+02 
3.812100e-01 6.416364e+02 
3.824200e-01 6.390265e+02 
3.836100e-01 6.364795e+02 
3.848600e-01 6.338248e+02 
3.860400e-01 6.313382e+02 
3.872400e-01 6.288284e+02 
3.884600e-01 6.263060e+02 
3.896500e-01 6.238679e+02 
3.908700e-01 6.213872e+02 
3.920600e-01 6.189857e+02 
3.933100e-01 6.164824e+02 
3.945300e-01 6.140578e+02 
3.957200e-01 6.117163e+02 
3.969300e-01 6.093547e+02 
3.981700e-01 6.069527e+02 
3.993500e-01 6.046840e+02 
4.094840e-01 5.858620e+02 
4.272360e-01 5.556444e+02 
4.454600e-01 5.276317e+02 
4.630560e-01 5.030628e+02 
4.804610e-01 4.808299e+02 
4.980690e-01 4.601654e+02 
5.159230e-01 4.408832e+02 
5.317440e-01 4.250513e+02 
5.489640e-01 4.090411e+02 
5.671990e-01 3.933580e+02 
5.838690e-01 3.800374e+02 
6.018840e-01 3.666516e+02 
6.202330e-01 3.539988e+02 
6.379250e-01 3.426251e+02 
6.545410e-01 3.326503e+02 
6.714560e-01 3.231006e+02 
6.892080e-01 3.137109e+02 
7.066010e-01 3.050618e+02 
7.240540e-01 2.968757e+02 
7.420450e-01 2.889327e+02 
7.593780e-01 2.816984e+02 
7.764720e-01 2.749265e+02 
7.942840e-01 2.682297e+02 
8.116170e-01 2.620301e+02 
8.288310e-01 2.561613e+02 
8.462240e-01 2.504948e+02 
8.631980e-01 2.451998e+02 
8.810700e-01 2.398589e+02 
8.989410e-01 2.347409e+02 
9.166330e-01 2.298736e+02 
9.345640e-01 2.251285e+02 
9.515980e-01 2.207831e+02 
9.688720e-01 2.165290e+02 
9.865640e-01 2.123181e+02 
1.031870e+00 2.021689e+02 
1.063490e+00 1.955380e+02 
1.097920e+00 1.887556e+02 
1.134370e+00 1.819408e+02 
1.167730e+00 1.760505e+02 
1.203830e+00 1.699921e+02 
1.240470e+00 1.641785e+02 
1.275790e+00 1.588278e+02 
1.309140e+00 1.540291e+02 
1.342970e+00 1.493461e+02 
1.378420e+00 1.446828e+02 
1.413200e+00 1.403055e+02 
1.448110e+00 1.360867e+02 
1.484090e+00 1.319456e+02 
1.518820e+00 1.280982e+02 
1.552880e+00 1.244900e+02 
1.588630e+00 1.208436e+02 
1.623230e+00 1.174694e+02 
1.657720e+00 1.142344e+02 
1.692450e+00 1.111220e+02 
1.726400e+00 1.081663e+02 
1.762200e+00 1.051677e+02 
1.797880e+00 1.023064e+02 
1.833270e+00 9.956338e+01 
1.869070e+00 9.690391e+01 
1.903200e+00 9.445869e+01 
1.937740e+00 9.206977e+01 
1.973190e+00 8.970221e+01 
2.007440e+00 8.749846e+01 
2.042160e+00 8.534813e+01 
2.077900e+00 8.319829e+01 
2.112390e+00 8.120697e+01 
2.146220e+00 7.930067e+01 
2.181600e+00 7.738375e+01 
2.216930e+00 7.553482e+01 
2.250760e+00 7.381370e+01 
2.286500e+00 7.205215e+01 
2.321770e+00 7.038008e+01 
2.355950e+00 6.881893e+01 
2.391280e+00 6.724229e+01 
2.426240e+00 6.573008e+01 
2.460670e+00 6.428656e+01 
2.495640e+00 6.286571e+01 
2.531080e+00 6.147630e+01 
2.566220e+00 6.013269e+01 
2.600830e+00 5.885042e+01 
2.635080e+00 5.762357e+01 
2.670340e+00 5.638614e+01 
2.705970e+00 5.517825e+01 
2.740040e+00 5.405971e+01 
2.774520e+00 5.295747e+01 
2.809730e+00 5.186318e+01 
2.844390e+00 5.081675e+01 
2.879960e+00 4.977179e+01 
2.914860e+00 4.877448e+01 
2.949410e+00 4.781471e+01 
2.984440e+00 4.686660e+01 
3.019760e+00 4.594015e+01 
3.054730e+00 4.505004e+01 
3.089030e+00 4.419294e+01 
3.124060e+00 4.334331e+01 
3.159560e+00 4.250803e+01 
3.194710e+00 4.169777e+01 
3.229010e+00 4.092725e+01 
3.263320e+00 4.017892e+01 
3.297930e+00 3.944352e+01 
3.332830e+00 3.871996e+01 
3.368040e+00 3.800812e+01 
3.403300e+00 3.731333e+01 
3.438450e+00 3.663702e+01 
3.473060e+00 3.598809e+01 
3.508440e+00 3.534360e+01 
3.543110e+00 3.472754e+01 
3.577470e+00 3.412747e+01 
3.613040e+00 3.352243e+01 
3.648120e+00 3.294194e+01 
3.682910e+00 3.237997e+01 
3.718050e+00 3.182520e+01 
3.753320e+00 3.128143e+01 
3.787980e+00 3.075905e+01 
3.822290e+00 3.025488e+01 
3.857020e+00 2.975755e+01 
3.891920e+00 2.926801e+01 
3.926650e+00 2.878939e+01 
3.961970e+00 2.831454e+01 
3.997360e+00 2.785104e+01 
4.031670e+00 2.741179e+01 
4.066330e+00 2.697712e+01 
4.101420e+00 2.654707e+01 
4.136200e+00 2.613141e+01 
4.170810e+00 2.572695e+01 
4.206250e+00 2.532095e+01 
4.241580e+00 2.492505e+01 
4.276300e+00 2.454446e+01 
4.310970e+00 2.417258e+01 
4.346120e+00 2.380368e+01 
4.380600e+00 2.344955e+01 
4.414730e+00 2.310632e+01 
4.450350e+00 2.275548e+01 
4.485320e+00 2.241833e+01 
4.519810e+00 2.209274e+01 
4.555430e+00 2.176349e+01 
4.590870e+00 2.144278e+01 
4.625480e+00 2.113607e+01 
4.659910e+00 2.083705e+01 
4.695230e+00 2.053661e+01 
4.729960e+00 2.024711e+01 
4.764450e+00 1.996535e+01 
4.799530e+00 1.968454e+01 
4.834910e+00 1.940691e+01 
4.869700e+00 1.913946e+01 
4.904370e+00 1.887809e+01 
4.939450e+00 1.861876e+01 
4.973940e+00 1.836885e+01 
5.008430e+00 1.812361e+01 
5.043810e+00 1.787702e+01 
5.078840e+00 1.763762e+01 
5.113500e+00 1.740512e+01 
5.148890e+00 1.717238e+01 
5.184210e+00 1.694440e+01 
5.219060e+00 1.672368e+01 
5.253660e+00 1.650879e+01 
5.288570e+00 1.629585e+01 
5.323420e+00 1.608726e+01 
5.358440e+00 1.588159e+01 
5.393590e+00 1.567881e+01 
5.428310e+00 1.548229e+01 
5.462800e+00 1.529058e+01 
5.497640e+00 1.510026e+01 
5.532670e+00 1.491253e+01 
5.567280e+00 1.473032e+01 
5.602000e+00 1.455061e+01 
5.637270e+00 1.437146e+01 
5.672410e+00 1.419605e+01 
5.707020e+00 1.402618e+01 
5.742040e+00 1.385752e+01 
5.777430e+00 1.368999e+01 
5.812210e+00 1.352807e+01 
5.846820e+00 1.336980e+01 
5.881610e+00 1.321333e+01 
5.916510e+00 1.305890e+01 
5.951600e+00 1.290648e+01 
5.986560e+00 1.275722e+01 
6.021830e+00 1.260904e+01 
6.056490e+00 1.246593e+01 
6.091160e+00 1.232517e+01 
6.125830e+00 1.218660e+01 
6.161090e+00 1.204796e+01 
6.195760e+00 1.191400e+01 
6.230420e+00 1.178211e+01 
6.265690e+00 1.164998e+01 
6.300950e+00 1.152036e+01 
6.335620e+00 1.139484e+01 
6.370880e+00 1.126911e+01 
6.405550e+00 1.114754e+01 
6.440220e+00 1.102784e+01 
6.475480e+00 1.090791e+01 
6.510150e+00 1.079185e+01 
6.544810e+00 1.067778e+01 
6.580080e+00 1.056341e+01 
6.614750e+00 1.045261e+01 
6.649410e+00 1.034370e+01 
6.684080e+00 1.023636e+01 
6.719340e+00 1.012875e+01 
6.754010e+00 1.002455e+01 
6.788680e+00 9.922025e+00 
6.823940e+00 9.819227e+00 
6.859800e+00 9.716172e+00 
6.894470e+00 9.618146e+00 
6.929140e+00 9.521545e+00 
6.963800e+00 9.426296e+00 
6.999070e+00 9.330725e+00 
7.033730e+00 9.238405e+00 
7.068400e+00 9.147305e+00 
7.103660e+00 9.055912e+00 
7.138330e+00 8.967346e+00 
7.173600e+00 8.878633e+00 
7.208260e+00 8.792621e+00 
7.243530e+00 8.706260e+00 
7.277600e+00 8.624071e+00 
7.312860e+00 8.540249e+00 
7.348120e+00 8.457537e+00 
7.382790e+00 8.377272e+00 
7.417460e+00 8.298207e+00 
7.452720e+00 8.218923e+00 
7.487390e+00 8.141971e+00 
7.522650e+00 8.064714e+00 
7.557320e+00 7.989900e+00 
7.591990e+00 7.916095e+00 
7.627250e+00 7.841986e+00 
7.662510e+00 7.768819e+00 
7.697180e+00 7.697944e+00 
7.731850e+00 7.628012e+00 
7.766510e+00 7.558962e+00 
7.801180e+00 7.490741e+00 
7.836440e+00 7.422335e+00 
7.871110e+00 7.355974e+00 
7.906380e+00 7.289291e+00 
7.941040e+00 7.224561e+00 
7.976310e+00 7.159575e+00 
8.011570e+00 7.095501e+00 
8.046240e+00 7.033257e+00 
8.080900e+00 6.971771e+00 
8.115570e+00 6.911045e+00 
8.150830e+00 6.850208e+00 
8.185500e+00 6.791097e+00 
8.220770e+00 6.731672e+00 
8.255430e+00 6.673961e+00 
8.290100e+00 6.617030e+00 
8.324770e+00 6.560773e+00 
8.359430e+00 6.505178e+00 
8.394700e+00 6.449259e+00 
8.429960e+00 6.394096e+00 
8.464630e+00 6.340570e+00 
8.499890e+00 6.286755e+00 
8.534560e+00 6.234443e+00 
8.569200e+00 6.182763e+00 
