# Parameters:
# omega_b = 0.023390, omega_m = 0.147283, n_s = 0.919291, h = 61.141732, w = -1.000000, sigma_8 = 0.874803
# z = 0.700000
#
# k[1/Mpc] # P(k):
8.694000e-04 1.073549e+04 
2.077466e-03 2.212794e+04 
3.285532e-03 3.081682e+04 
4.493598e-03 3.743019e+04 
5.701664e-03 4.229939e+04 
6.909730e-03 4.572861e+04 
8.117797e-03 4.804268e+04 
9.325863e-03 4.940805e+04 
1.053393e-02 4.998528e+04 
1.174199e-02 4.992172e+04 
1.295006e-02 4.930978e+04 
1.415813e-02 4.827559e+04 
1.536619e-02 4.692719e+04 
1.657426e-02 4.534288e+04 
1.778233e-02 4.362181e+04 
1.899039e-02 4.189738e+04 
2.019846e-02 4.016281e+04 
2.140652e-02 3.841115e+04 
2.261459e-02 3.667675e+04 
2.382266e-02 3.500735e+04 
2.503072e-02 3.342997e+04 
2.623879e-02 3.195461e+04 
2.744685e-02 3.058280e+04 
2.865492e-02 2.932132e+04 
2.986299e-02 2.816662e+04 
3.100100e-02 2.717435e+04 
3.220400e-02 2.621891e+04 
3.288100e-02 2.572264e+04 
3.424300e-02 2.480459e+04 
3.555100e-02 2.401134e+04 
3.686000e-02 2.329384e+04 
3.795000e-02 2.274481e+04 
3.929100e-02 2.212212e+04 
4.039800e-02 2.164141e+04 
4.164000e-02 2.112986e+04 
4.294400e-02 2.061260e+04 
4.415000e-02 2.014972e+04 
4.542900e-02 1.966150e+04 
4.660900e-02 1.921685e+04 
4.782300e-02 1.874999e+04 
4.892900e-02 1.832419e+04 
5.031200e-02 1.778548e+04 
5.155900e-02 1.729155e+04 
5.238100e-02 1.696359e+04 
5.378200e-02 1.640254e+04 
5.513400e-02 1.585839e+04 
5.627600e-02 1.539969e+04 
5.735300e-02 1.497115e+04 
5.870100e-02 1.444323e+04 
5.988700e-02 1.399047e+04 
6.113500e-02 1.352782e+04 
6.225900e-02 1.312512e+04 
6.340100e-02 1.273176e+04 
6.480200e-02 1.227289e+04 
6.601100e-02 1.189958e+04 
6.725500e-02 1.153853e+04 
6.829100e-02 1.125756e+04 
6.958600e-02 1.092899e+04 
7.071100e-02 1.066556e+04 
7.192300e-02 1.040296e+04 
7.307400e-02 1.017327e+04 
7.412300e-02 9.979648e+03 
7.550400e-02 9.747384e+03 
7.663100e-02 9.572988e+03 
7.791200e-02 9.392968e+03 
7.912700e-02 9.236319e+03 
8.027600e-02 9.097620e+03 
8.138400e-02 8.970567e+03 
8.272200e-02 8.823910e+03 
8.406100e-02 8.681888e+03 
8.534100e-02 8.547223e+03 
8.653800e-02 8.419666e+03 
8.759800e-02 8.305468e+03 
8.900300e-02 8.150755e+03 
9.009000e-02 8.027072e+03 
9.113300e-02 7.904137e+03 
9.239600e-02 7.753165e+03 
9.358000e-02 7.608132e+03 
9.496100e-02 7.434295e+03 
9.608400e-02 7.292514e+03 
9.727500e-02 7.142886e+03 
9.852600e-02 6.984462e+03 
9.973800e-02 6.834342e+03 
1.009000e-01 6.693582e+03 
1.020900e-01 6.553213e+03 
1.034000e-01 6.404282e+03 
1.046000e-01 6.272983e+03 
1.057200e-01 6.156685e+03 
1.069100e-01 6.037796e+03 
1.082500e-01 5.911851e+03 
1.093900e-01 5.810599e+03 
1.105400e-01 5.712763e+03 
1.116900e-01 5.621742e+03 
1.129600e-01 5.525394e+03 
1.142000e-01 5.437658e+03 
1.153300e-01 5.361253e+03 
1.166400e-01 5.277301e+03 
1.177800e-01 5.208010e+03 
1.190000e-01 5.136549e+03 
1.201200e-01 5.073978e+03 
1.213400e-01 5.007692e+03 
1.227100e-01 4.936029e+03 
1.238900e-01 4.875844e+03 
1.250700e-01 4.816915e+03 
1.263200e-01 4.755660e+03 
1.275500e-01 4.696153e+03 
1.287500e-01 4.638881e+03 
1.299900e-01 4.580177e+03 
1.311300e-01 4.526658e+03 
1.323500e-01 4.469507e+03 
1.335900e-01 4.411862e+03 
1.347100e-01 4.359765e+03 
1.359800e-01 4.301252e+03 
1.372100e-01 4.244413e+03 
1.384300e-01 4.188745e+03 
1.395700e-01 4.136553e+03 
1.407700e-01 4.082626e+03 
1.420300e-01 4.025880e+03 
1.432800e-01 3.970828e+03 
1.444500e-01 3.919483e+03 
1.456300e-01 3.868757e+03 
1.468900e-01 3.815672e+03 
1.480500e-01 3.767794e+03 
1.491700e-01 3.722648e+03 
1.503800e-01 3.675068e+03 
1.516400e-01 3.626715e+03 
1.528200e-01 3.583103e+03 
1.540200e-01 3.539614e+03 
1.551900e-01 3.498934e+03 
1.564300e-01 3.456871e+03 
1.576600e-01 3.416479e+03 
1.588700e-01 3.378122e+03 
1.600900e-01 3.340227e+03 
1.612700e-01 3.305165e+03 
1.625400e-01 3.268133e+03 
1.637600e-01 3.233627e+03 
1.649500e-01 3.200810e+03 
1.662200e-01 3.166474e+03 
1.674000e-01 3.135409e+03 
1.685000e-01 3.106933e+03 
1.697500e-01 3.075107e+03 
1.710300e-01 3.043092e+03 
1.722200e-01 3.013854e+03 
1.734400e-01 2.984132e+03 
1.746400e-01 2.955387e+03 
1.758700e-01 2.926305e+03 
1.770900e-01 2.897709e+03 
1.782700e-01 2.870511e+03 
1.794600e-01 2.843329e+03 
1.807000e-01 2.815341e+03 
1.819100e-01 2.788486e+03 
1.830100e-01 2.764244e+03 
1.842200e-01 2.737957e+03 
1.855000e-01 2.710607e+03 
1.867000e-01 2.685270e+03 
1.879200e-01 2.659924e+03 
1.890900e-01 2.636000e+03 
1.902800e-01 2.612061e+03 
1.915200e-01 2.587508e+03 
1.926900e-01 2.564726e+03 
1.939000e-01 2.541604e+03 
1.951700e-01 2.517719e+03 
1.963100e-01 2.496650e+03 
1.975100e-01 2.474920e+03 
1.987800e-01 2.452275e+03 
2.000100e-01 2.430738e+03 
2.012500e-01 2.409484e+03 
2.023400e-01 2.391066e+03 
2.036100e-01 2.369949e+03 
2.048900e-01 2.349130e+03 
2.060400e-01 2.330697e+03 
2.072200e-01 2.312054e+03 
2.084200e-01 2.293465e+03 
2.096900e-01 2.274078e+03 
2.109200e-01 2.255575e+03 
2.121100e-01 2.237920e+03 
2.132700e-01 2.220943e+03 
2.145200e-01 2.202903e+03 
2.157200e-01 2.185789e+03 
2.168800e-01 2.169451e+03 
2.180700e-01 2.152913e+03 
2.193400e-01 2.135433e+03 
2.206000e-01 2.118196e+03 
2.217500e-01 2.102676e+03 
2.229500e-01 2.086691e+03 
2.241400e-01 2.070796e+03 
2.253500e-01 2.054840e+03 
2.264900e-01 2.040000e+03 
2.277100e-01 2.024155e+03 
2.289900e-01 2.007567e+03 
2.301500e-01 1.992733e+03 
2.313600e-01 1.977453e+03 
2.325600e-01 1.962148e+03 
2.337700e-01 1.946915e+03 
2.350000e-01 1.931630e+03 
2.362000e-01 1.916760e+03 
2.374100e-01 1.901779e+03 
2.386500e-01 1.886625e+03 
2.399100e-01 1.871427e+03 
2.410400e-01 1.857792e+03 
2.422500e-01 1.843347e+03 
2.435000e-01 1.828615e+03 
2.447300e-01 1.814287e+03 
2.458700e-01 1.801106e+03 
2.470600e-01 1.787511e+03 
2.483300e-01 1.773183e+03 
2.495600e-01 1.759512e+03 
2.507600e-01 1.746378e+03 
2.519600e-01 1.733402e+03 
2.532200e-01 1.719943e+03 
2.543700e-01 1.707924e+03 
2.555500e-01 1.695814e+03 
2.568000e-01 1.683137e+03 
2.580100e-01 1.671012e+03 
2.592400e-01 1.659036e+03 
2.604100e-01 1.647865e+03 
2.616100e-01 1.636536e+03 
2.628400e-01 1.625059e+03 
2.640600e-01 1.614037e+03 
2.652200e-01 1.603764e+03 
2.664300e-01 1.593168e+03 
2.676500e-01 1.582604e+03 
2.688400e-01 1.572601e+03 
2.700700e-01 1.562492e+03 
2.712400e-01 1.552982e+03 
2.724800e-01 1.543013e+03 
2.736700e-01 1.533668e+03 
2.748800e-01 1.524389e+03 
2.761000e-01 1.515134e+03 
2.773200e-01 1.505980e+03 
2.785400e-01 1.496980e+03 
2.797000e-01 1.488628e+03 
2.808900e-01 1.480149e+03 
2.821400e-01 1.471337e+03 
2.833900e-01 1.462625e+03 
2.845500e-01 1.454728e+03 
2.857800e-01 1.446440e+03 
2.870300e-01 1.438106e+03 
2.882100e-01 1.430321e+03 
2.893900e-01 1.422663e+03 
2.906300e-01 1.414725e+03 
2.918900e-01 1.406744e+03 
2.930500e-01 1.399470e+03 
2.942500e-01 1.392026e+03 
2.954200e-01 1.384860e+03 
2.966500e-01 1.377400e+03 
2.978900e-01 1.369957e+03 
2.990400e-01 1.363121e+03 
3.002700e-01 1.355897e+03 
3.015100e-01 1.348695e+03 
3.026800e-01 1.341965e+03 
3.038500e-01 1.335300e+03 
3.050300e-01 1.328641e+03 
3.062600e-01 1.321776e+03 
3.075000e-01 1.314924e+03 
3.087000e-01 1.308357e+03 
3.099100e-01 1.301799e+03 
3.111200e-01 1.295308e+03 
3.123100e-01 1.288993e+03 
3.135300e-01 1.282580e+03 
3.147300e-01 1.276331e+03 
3.159900e-01 1.269833e+03 
3.171800e-01 1.263758e+03 
3.183700e-01 1.257742e+03 
3.196300e-01 1.251433e+03 
3.208400e-01 1.245430e+03 
3.220300e-01 1.239581e+03 
3.232000e-01 1.233894e+03 
3.244300e-01 1.227974e+03 
3.256700e-01 1.222062e+03 
3.269200e-01 1.216158e+03 
3.280800e-01 1.210728e+03 
3.292500e-01 1.205312e+03 
3.304800e-01 1.199675e+03 
3.317100e-01 1.194088e+03 
3.328900e-01 1.188776e+03 
3.340700e-01 1.183510e+03 
3.353600e-01 1.177820e+03 
3.365300e-01 1.172711e+03 
3.377100e-01 1.167603e+03 
3.389200e-01 1.162410e+03 
3.401600e-01 1.157136e+03 
3.413700e-01 1.152045e+03 
3.425300e-01 1.147214e+03 
3.437700e-01 1.142093e+03 
3.449800e-01 1.137140e+03 
3.461800e-01 1.132270e+03 
3.473600e-01 1.127529e+03 
3.485800e-01 1.122687e+03 
3.498100e-01 1.117847e+03 
3.510200e-01 1.113127e+03 
3.522000e-01 1.108562e+03 
3.533900e-01 1.103996e+03 
3.546400e-01 1.099256e+03 
3.558400e-01 1.094744e+03 
3.570600e-01 1.090195e+03 
3.582700e-01 1.085722e+03 
3.595000e-01 1.081211e+03 
3.607100e-01 1.076822e+03 
3.618900e-01 1.072583e+03 
3.631200e-01 1.068201e+03 
3.643200e-01 1.063961e+03 
3.655500e-01 1.059650e+03 
3.667300e-01 1.055547e+03 
3.679500e-01 1.051352e+03 
3.691900e-01 1.047122e+03 
3.703600e-01 1.043163e+03 
3.715700e-01 1.039101e+03 
3.727700e-01 1.035104e+03 
3.739900e-01 1.031080e+03 
3.752000e-01 1.027132e+03 
3.763900e-01 1.023280e+03 
3.775800e-01 1.019458e+03 
3.788200e-01 1.015507e+03 
3.800300e-01 1.011681e+03 
3.812100e-01 1.007981e+03 
3.824200e-01 1.004216e+03 
3.836100e-01 1.000542e+03 
3.848600e-01 9.967129e+02 
3.860400e-01 9.931259e+02 
3.872400e-01 9.895056e+02 
3.884600e-01 9.858630e+02 
3.896500e-01 9.823406e+02 
3.908700e-01 9.787566e+02 
3.920600e-01 9.752871e+02 
3.933100e-01 9.716704e+02 
3.945300e-01 9.681675e+02 
3.957200e-01 9.647732e+02 
3.969300e-01 9.613464e+02 
3.981700e-01 9.578612e+02 
3.993500e-01 9.545692e+02 
4.094840e-01 9.272274e+02 
4.272360e-01 8.831220e+02 
4.454600e-01 8.420011e+02 
4.630560e-01 8.057301e+02 
4.804610e-01 7.727955e+02 
4.980690e-01 7.420662e+02 
5.159230e-01 7.133496e+02 
5.317440e-01 6.897251e+02 
5.489640e-01 6.658188e+02 
5.671990e-01 6.423835e+02 
5.838690e-01 6.224649e+02 
6.018840e-01 6.024350e+02 
6.202330e-01 5.834445e+02 
6.379250e-01 5.663570e+02 
6.545410e-01 5.513176e+02 
6.714560e-01 5.368630e+02 
6.892080e-01 5.226042e+02 
7.066010e-01 5.093739e+02 
7.240540e-01 4.967859e+02 
7.420450e-01 4.844786e+02 
7.593780e-01 4.731899e+02 
7.764720e-01 4.625443e+02 
7.942840e-01 4.519300e+02 
8.116170e-01 4.419983e+02 
8.288310e-01 4.325193e+02 
8.462240e-01 4.232898e+02 
8.631980e-01 4.145876e+02 
8.810700e-01 4.057367e+02 
8.989410e-01 3.971836e+02 
9.166330e-01 3.889784e+02 
9.345640e-01 3.809075e+02 
9.515980e-01 3.734628e+02 
9.688720e-01 3.661181e+02 
9.865640e-01 3.587895e+02 
1.031870e+00 3.409674e+02 
1.063490e+00 3.291688e+02 
1.097920e+00 3.169915e+02 
1.134370e+00 3.046777e+02 
1.167730e+00 2.939546e+02 
1.203830e+00 2.828767e+02 
1.240470e+00 2.722059e+02 
1.275790e+00 2.623608e+02 
1.309140e+00 2.535207e+02 
1.342970e+00 2.448800e+02 
1.378420e+00 2.362802e+02 
1.413200e+00 2.282104e+02 
1.448110e+00 2.204403e+02 
1.484090e+00 2.128227e+02 
1.518820e+00 2.057670e+02 
1.552880e+00 1.991619e+02 
1.588630e+00 1.925119e+02 
1.623230e+00 1.863714e+02 
1.657720e+00 1.805032e+02 
1.692450e+00 1.748715e+02 
1.726400e+00 1.695461e+02 
1.762200e+00 1.641609e+02 
1.797880e+00 1.590438e+02 
1.833270e+00 1.541600e+02 
1.869070e+00 1.494391e+02 
1.903200e+00 1.451172e+02 
1.937740e+00 1.409124e+02 
1.973190e+00 1.367593e+02 
2.007440e+00 1.329124e+02 
2.042160e+00 1.291704e+02 
2.077900e+00 1.254480e+02 
2.112390e+00 1.220116e+02 
2.146220e+00 1.187404e+02 
2.181600e+00 1.154591e+02 
2.216930e+00 1.123096e+02 
2.250760e+00 1.093902e+02 
2.286500e+00 1.064142e+02 
2.321770e+00 1.036008e+02 
2.355950e+00 1.009823e+02 
2.391280e+00 9.834951e+01 
2.426240e+00 9.583596e+01 
2.460670e+00 9.344606e+01 
2.495640e+00 9.110176e+01 
2.531080e+00 8.881768e+01 
2.566220e+00 8.662041e+01 
2.600830e+00 8.453089e+01 
2.635080e+00 8.253735e+01 
2.670340e+00 8.053714e+01 
2.705970e+00 7.859147e+01 
2.740040e+00 7.679523e+01 
2.774520e+00 7.503079e+01 
2.809730e+00 7.328653e+01 
2.844390e+00 7.162408e+01 
2.879960e+00 6.997064e+01 
2.914860e+00 6.839889e+01 
2.949410e+00 6.689070e+01 
2.984440e+00 6.540686e+01 
3.019760e+00 6.396121e+01 
3.054730e+00 6.257569e+01 
3.089030e+00 6.124879e+01 
3.124060e+00 5.993662e+01 
3.159560e+00 5.865044e+01 
3.194710e+00 5.740814e+01 
3.229010e+00 5.622953e+01 
3.263320e+00 5.508943e+01 
3.297930e+00 5.397157e+01 
3.332830e+00 5.287556e+01 
3.368040e+00 5.180066e+01 
3.403300e+00 5.075422e+01 
3.438450e+00 4.973979e+01 
3.473060e+00 4.876817e+01 
3.508440e+00 4.780696e+01 
3.543110e+00 4.688970e+01 
3.577470e+00 4.600037e+01 
3.613040e+00 4.510523e+01 
3.648120e+00 4.424909e+01 
3.682910e+00 4.342210e+01 
3.718050e+00 4.260839e+01 
3.753320e+00 4.181269e+01 
3.787980e+00 4.105060e+01 
3.822290e+00 4.031662e+01 
3.857020e+00 3.959456e+01 
3.891920e+00 3.888541e+01 
3.926650e+00 3.819441e+01 
3.961970e+00 3.751003e+01 
3.997360e+00 3.684404e+01 
4.031670e+00 3.621382e+01 
4.066330e+00 3.559237e+01 
4.101420e+00 3.497807e+01 
4.136200e+00 3.438639e+01 
4.170810e+00 3.381109e+01 
4.206250e+00 3.323574e+01 
4.241580e+00 3.267543e+01 
4.276300e+00 3.213825e+01 
4.310970e+00 3.161433e+01 
4.346120e+00 3.109556e+01 
4.380600e+00 3.059887e+01 
4.414730e+00 3.011782e+01 
4.450350e+00 2.962786e+01 
4.485320e+00 2.915732e+01 
4.519810e+00 2.870421e+01 
4.555430e+00 2.824673e+01 
4.590870e+00 2.780177e+01 
4.625480e+00 2.737728e+01 
4.659910e+00 2.696368e+01 
4.695230e+00 2.654938e+01 
4.729960e+00 2.615057e+01 
4.764450e+00 2.576303e+01 
4.799530e+00 2.537767e+01 
4.834910e+00 2.499689e+01 
4.869700e+00 2.463111e+01 
4.904370e+00 2.427395e+01 
4.939450e+00 2.392004e+01 
4.973940e+00 2.357979e+01 
5.008430e+00 2.324606e+01 
5.043810e+00 2.291120e+01 
5.078840e+00 2.258657e+01 
5.113500e+00 2.227145e+01 
5.148890e+00 2.195688e+01 
5.184210e+00 2.164894e+01 
5.219060e+00 2.135110e+01 
5.253660e+00 2.106174e+01 
5.288570e+00 2.077513e+01 
5.323420e+00 2.049480e+01 
5.358440e+00 2.021884e+01 
5.393590e+00 1.994687e+01 
5.428310e+00 1.968379e+01 
5.462800e+00 1.942747e+01 
5.497640e+00 1.917309e+01 
5.532670e+00 1.892266e+01 
5.567280e+00 1.867981e+01 
5.602000e+00 1.844040e+01 
5.637270e+00 1.820219e+01 
5.672410e+00 1.796914e+01 
5.707020e+00 1.774353e+01 
5.742040e+00 1.751997e+01 
5.777430e+00 1.729806e+01 
5.812210e+00 1.708365e+01 
5.846820e+00 1.687444e+01 
5.881610e+00 1.666775e+01 
5.916510e+00 1.646383e+01 
5.951600e+00 1.626286e+01 
5.986560e+00 1.606622e+01 
6.021830e+00 1.587106e+01 
6.056490e+00 1.568282e+01 
6.091160e+00 1.549789e+01 
6.125830e+00 1.531589e+01 
6.161090e+00 1.513394e+01 
6.195760e+00 1.495833e+01 
6.230420e+00 1.478551e+01 
6.265690e+00 1.461242e+01 
6.300950e+00 1.444293e+01 
6.335620e+00 1.427884e+01 
6.370880e+00 1.411453e+01 
6.405550e+00 1.395585e+01 
6.440220e+00 1.379973e+01 
6.475480e+00 1.364335e+01 
6.510150e+00 1.349211e+01 
6.544810e+00 1.334365e+01 
6.580080e+00 1.319482e+01 
6.614750e+00 1.305069e+01 
6.649410e+00 1.290919e+01 
6.684080e+00 1.276981e+01 
6.719340e+00 1.263011e+01 
6.754010e+00 1.249491e+01 
6.788680e+00 1.236203e+01 
6.823940e+00 1.222882e+01 
6.859800e+00 1.209531e+01 
6.894470e+00 1.196846e+01 
6.929140e+00 1.184352e+01 
6.963800e+00 1.172036e+01 
6.999070e+00 1.159683e+01 
7.033730e+00 1.147763e+01 
7.068400e+00 1.136004e+01 
7.103660e+00 1.124210e+01 
7.138330e+00 1.112787e+01 
7.173600e+00 1.101356e+01 
7.208260e+00 1.090275e+01 
7.243530e+00 1.079152e+01 
7.277600e+00 1.068573e+01 
7.312860e+00 1.057791e+01 
7.348120e+00 1.047154e+01 
7.382790e+00 1.036834e+01 
7.417460e+00 1.026677e+01 
7.452720e+00 1.016498e+01 
7.487390e+00 1.006621e+01 
7.522650e+00 9.967071e+00 
7.557320e+00 9.871131e+00 
7.591990e+00 9.776524e+00 
7.627250e+00 9.681548e+00 
7.662510e+00 9.587801e+00 
7.697180e+00 9.497065e+00 
7.731850e+00 9.407574e+00 
7.766510e+00 9.319233e+00 
7.801180e+00 9.231972e+00 
7.836440e+00 9.144530e+00 
7.871110e+00 9.059744e+00 
7.906380e+00 8.974565e+00 
7.941040e+00 8.891898e+00 
7.976310e+00 8.808952e+00 
8.011570e+00 8.727222e+00 
8.046240e+00 8.647843e+00 
8.080900e+00 8.569448e+00 
8.115570e+00 8.492048e+00 
8.150830e+00 8.414558e+00 
8.185500e+00 8.339282e+00 
8.220770e+00 8.263623e+00 
8.255430e+00 8.190161e+00 
8.290100e+00 8.117754e+00 
8.324770e+00 8.046222e+00 
8.359430e+00 7.975548e+00 
8.394700e+00 7.904476e+00 
8.429960e+00 7.834396e+00 
8.464630e+00 7.766425e+00 
8.499890e+00 7.698101e+00 
8.534560e+00 7.631699e+00 
8.569200e+00 7.566113e+00 
