# Parameters:
# omega_b = 0.021673, omega_m = 0.153622, n_s = 0.927165, h = 66.574803, w = -1.000000, sigma_8 = 0.819685
# z = 0.700000
#
# k[1/Mpc] # P(k):
8.694000e-04 7.153299e+03 
2.077466e-03 1.491707e+04 
3.285532e-03 2.093892e+04 
4.493598e-03 2.559294e+04 
5.701664e-03 2.910187e+04 
6.909730e-03 3.164953e+04 
8.117797e-03 3.343875e+04 
9.325863e-03 3.457640e+04 
1.053393e-02 3.517011e+04 
1.174199e-02 3.532117e+04 
1.295006e-02 3.509113e+04 
1.415813e-02 3.456326e+04 
1.536619e-02 3.380830e+04 
1.657426e-02 3.287305e+04 
1.778233e-02 3.179005e+04 
1.899039e-02 3.060398e+04 
2.019846e-02 2.936497e+04 
2.140652e-02 2.813175e+04 
2.261459e-02 2.692019e+04 
2.382266e-02 2.574904e+04 
2.503072e-02 2.463523e+04 
2.623879e-02 2.358699e+04 
2.744685e-02 2.260636e+04 
2.865492e-02 2.170051e+04 
2.986299e-02 2.086835e+04 
3.100100e-02 2.015171e+04 
3.220400e-02 1.946133e+04 
3.288100e-02 1.910322e+04 
3.424300e-02 1.844280e+04 
3.555100e-02 1.787557e+04 
3.686000e-02 1.736700e+04 
3.795000e-02 1.698142e+04 
3.929100e-02 1.654975e+04 
4.039800e-02 1.622013e+04 
4.164000e-02 1.587211e+04 
4.294400e-02 1.552288e+04 
4.415000e-02 1.521052e+04 
4.542900e-02 1.487939e+04 
4.660900e-02 1.457546e+04 
4.782300e-02 1.425113e+04 
4.892900e-02 1.395120e+04 
5.031200e-02 1.356497e+04 
5.155900e-02 1.320360e+04 
5.238100e-02 1.296019e+04 
5.378200e-02 1.253806e+04 
5.513400e-02 1.212202e+04 
5.627600e-02 1.176712e+04 
5.735300e-02 1.143301e+04 
5.870100e-02 1.101895e+04 
5.988700e-02 1.066266e+04 
6.113500e-02 1.029818e+04 
6.225900e-02 9.981299e+03 
6.340100e-02 9.672805e+03 
6.480200e-02 9.314622e+03 
6.601100e-02 9.025570e+03 
6.725500e-02 8.748360e+03 
6.829100e-02 8.534846e+03 
6.958600e-02 8.287158e+03 
7.071100e-02 8.090709e+03 
7.192300e-02 7.896687e+03 
7.307400e-02 7.728483e+03 
7.412300e-02 7.587732e+03 
7.550400e-02 7.420203e+03 
7.663100e-02 7.295007e+03 
7.791200e-02 7.166315e+03 
7.912700e-02 7.054318e+03 
8.027600e-02 6.954944e+03 
8.138400e-02 6.863611e+03 
8.272200e-02 6.757635e+03 
8.406100e-02 6.654364e+03 
8.534100e-02 6.555755e+03 
8.653800e-02 6.461860e+03 
8.759800e-02 6.377544e+03 
8.900300e-02 6.262955e+03 
9.009000e-02 6.171096e+03 
9.113300e-02 6.079524e+03 
9.239600e-02 5.966790e+03 
9.358000e-02 5.858097e+03 
9.496100e-02 5.727017e+03 
9.608400e-02 5.619532e+03 
9.727500e-02 5.505621e+03 
9.852600e-02 5.383588e+03 
9.973800e-02 5.267275e+03 
1.009000e-01 5.157663e+03 
1.020900e-01 5.046988e+03 
1.034000e-01 4.929042e+03 
1.046000e-01 4.824523e+03 
1.057200e-01 4.731308e+03 
1.069100e-01 4.635894e+03 
1.082500e-01 4.534561e+03 
1.093900e-01 4.453214e+03 
1.105400e-01 4.374690e+03 
1.116900e-01 4.302120e+03 
1.129600e-01 4.225562e+03 
1.142000e-01 4.156652e+03 
1.153300e-01 4.097086e+03 
1.166400e-01 4.032329e+03 
1.177800e-01 3.979637e+03 
1.190000e-01 3.925657e+03 
1.201200e-01 3.879238e+03 
1.213400e-01 3.830217e+03 
1.227100e-01 3.778151e+03 
1.238900e-01 3.734540e+03 
1.250700e-01 3.692178e+03 
1.263200e-01 3.648150e+03 
1.275500e-01 3.605394e+03 
1.287500e-01 3.564078e+03 
1.299900e-01 3.521469e+03 
1.311300e-01 3.482294e+03 
1.323500e-01 3.439973e+03 
1.335900e-01 3.396828e+03 
1.347100e-01 3.357243e+03 
1.359800e-01 3.312377e+03 
1.372100e-01 3.267997e+03 
1.384300e-01 3.224226e+03 
1.395700e-01 3.182463e+03 
1.407700e-01 3.139243e+03 
1.420300e-01 3.092976e+03 
1.432800e-01 3.048106e+03 
1.444500e-01 3.005807e+03 
1.456300e-01 2.964036e+03 
1.468900e-01 2.920312e+03 
1.480500e-01 2.880887e+03 
1.491700e-01 2.843860e+03 
1.503800e-01 2.805022e+03 
1.516400e-01 2.765685e+03 
1.528200e-01 2.730720e+03 
1.540200e-01 2.695863e+03 
1.551900e-01 2.663870e+03 
1.564300e-01 2.630944e+03 
1.576600e-01 2.599665e+03 
1.588700e-01 2.570375e+03 
1.600900e-01 2.541469e+03 
1.612700e-01 2.515289e+03 
1.625400e-01 2.487636e+03 
1.637600e-01 2.462060e+03 
1.649500e-01 2.437847e+03 
1.662200e-01 2.412514e+03 
1.674000e-01 2.389607e+03 
1.685000e-01 2.368608e+03 
1.697500e-01 2.345008e+03 
1.710300e-01 2.321138e+03 
1.722200e-01 2.299338e+03 
1.734400e-01 2.276760e+03 
1.746400e-01 2.254906e+03 
1.758700e-01 2.232646e+03 
1.770900e-01 2.210453e+03 
1.782700e-01 2.189345e+03 
1.794600e-01 2.168009e+03 
1.807000e-01 2.145879e+03 
1.819100e-01 2.124648e+03 
1.830100e-01 2.105261e+03 
1.842200e-01 2.084203e+03 
1.855000e-01 2.062291e+03 
1.867000e-01 2.041857e+03 
1.879200e-01 2.021418e+03 
1.890900e-01 2.002128e+03 
1.902800e-01 1.982818e+03 
1.915200e-01 1.963017e+03 
1.926900e-01 1.944666e+03 
1.939000e-01 1.926106e+03 
1.951700e-01 1.906936e+03 
1.963100e-01 1.890065e+03 
1.975100e-01 1.872762e+03 
1.987800e-01 1.854734e+03 
2.000100e-01 1.837635e+03 
2.012500e-01 1.820867e+03 
2.023400e-01 1.806338e+03 
2.036100e-01 1.789713e+03 
2.048900e-01 1.773441e+03 
2.060400e-01 1.759035e+03 
2.072200e-01 1.744475e+03 
2.084200e-01 1.730068e+03 
2.096900e-01 1.715043e+03 
2.109200e-01 1.700705e+03 
2.121100e-01 1.687130e+03 
2.132700e-01 1.674084e+03 
2.145200e-01 1.660220e+03 
2.157200e-01 1.647150e+03 
2.168800e-01 1.634709e+03 
2.180700e-01 1.622117e+03 
2.193400e-01 1.608865e+03 
2.206000e-01 1.595903e+03 
2.217500e-01 1.584233e+03 
2.229500e-01 1.572213e+03 
2.241400e-01 1.560455e+03 
2.253500e-01 1.548656e+03 
2.264900e-01 1.537682e+03 
2.277100e-01 1.526087e+03 
2.289900e-01 1.514082e+03 
2.301500e-01 1.503345e+03 
2.313600e-01 1.492287e+03 
2.325600e-01 1.481476e+03 
2.337700e-01 1.470713e+03 
2.350000e-01 1.459912e+03 
2.362000e-01 1.449519e+03 
2.374100e-01 1.439183e+03 
2.386500e-01 1.428724e+03 
2.399100e-01 1.418234e+03 
2.410400e-01 1.408982e+03 
2.422500e-01 1.399198e+03 
2.435000e-01 1.389217e+03 
2.447300e-01 1.379527e+03 
2.458700e-01 1.370686e+03 
2.470600e-01 1.361564e+03 
2.483300e-01 1.351948e+03 
2.495600e-01 1.342768e+03 
2.507600e-01 1.333943e+03 
2.519600e-01 1.325221e+03 
2.532200e-01 1.316173e+03 
2.543700e-01 1.308029e+03 
2.555500e-01 1.299778e+03 
2.568000e-01 1.291139e+03 
2.580100e-01 1.282874e+03 
2.592400e-01 1.274583e+03 
2.604100e-01 1.266791e+03 
2.616100e-01 1.258888e+03 
2.628400e-01 1.250879e+03 
2.640600e-01 1.243031e+03 
2.652200e-01 1.235652e+03 
2.664300e-01 1.228039e+03 
2.676500e-01 1.220450e+03 
2.688400e-01 1.213128e+03 
2.700700e-01 1.205645e+03 
2.712400e-01 1.198603e+03 
2.724800e-01 1.191222e+03 
2.736700e-01 1.184209e+03 
2.748800e-01 1.177148e+03 
2.761000e-01 1.170106e+03 
2.773200e-01 1.163140e+03 
2.785400e-01 1.156245e+03 
2.797000e-01 1.149752e+03 
2.808900e-01 1.143159e+03 
2.821400e-01 1.136308e+03 
2.833900e-01 1.129530e+03 
2.845500e-01 1.123293e+03 
2.857800e-01 1.116747e+03 
2.870300e-01 1.110166e+03 
2.882100e-01 1.104018e+03 
2.893900e-01 1.097930e+03 
2.906300e-01 1.091597e+03 
2.918900e-01 1.085229e+03 
2.930500e-01 1.079427e+03 
2.942500e-01 1.073480e+03 
2.954200e-01 1.067730e+03 
2.966500e-01 1.061744e+03 
2.978900e-01 1.055772e+03 
2.990400e-01 1.050287e+03 
3.002700e-01 1.044477e+03 
3.015100e-01 1.038678e+03 
3.026800e-01 1.033259e+03 
3.038500e-01 1.027892e+03 
3.050300e-01 1.022531e+03 
3.062600e-01 1.016995e+03 
3.075000e-01 1.011468e+03 
3.087000e-01 1.006172e+03 
3.099100e-01 1.000883e+03 
3.111200e-01 9.956465e+02 
3.123100e-01 9.905483e+02 
3.135300e-01 9.853710e+02 
3.147300e-01 9.803266e+02 
3.159900e-01 9.750807e+02 
3.171800e-01 9.701755e+02 
3.183700e-01 9.653169e+02 
3.196300e-01 9.602209e+02 
3.208400e-01 9.553734e+02 
3.220300e-01 9.506497e+02 
3.232000e-01 9.460571e+02 
3.244300e-01 9.412769e+02 
3.256700e-01 9.365026e+02 
3.269200e-01 9.317348e+02 
3.280800e-01 9.273503e+02 
3.292500e-01 9.229774e+02 
3.304800e-01 9.184247e+02 
3.317100e-01 9.139135e+02 
3.328900e-01 9.096241e+02 
3.340700e-01 9.053719e+02 
3.353600e-01 9.007792e+02 
3.365300e-01 8.966565e+02 
3.377100e-01 8.925340e+02 
3.389200e-01 8.883433e+02 
3.401600e-01 8.840866e+02 
3.413700e-01 8.799804e+02 
3.425300e-01 8.760850e+02 
3.437700e-01 8.719566e+02 
3.449800e-01 8.679631e+02 
3.461800e-01 8.640364e+02 
3.473600e-01 8.602148e+02 
3.485800e-01 8.563145e+02 
3.498100e-01 8.524160e+02 
3.510200e-01 8.486135e+02 
3.522000e-01 8.449361e+02 
3.533900e-01 8.412581e+02 
3.546400e-01 8.374450e+02 
3.558400e-01 8.338163e+02 
3.570600e-01 8.301577e+02 
3.582700e-01 8.265593e+02 
3.595000e-01 8.229318e+02 
3.607100e-01 8.194037e+02 
3.618900e-01 8.159993e+02 
3.631200e-01 8.124794e+02 
3.643200e-01 8.090735e+02 
3.655500e-01 8.056108e+02 
3.667300e-01 8.023157e+02 
3.679500e-01 7.989518e+02 
3.691900e-01 7.955607e+02 
3.703600e-01 7.923865e+02 
3.715700e-01 7.891296e+02 
3.727700e-01 7.859251e+02 
3.739900e-01 7.827004e+02 
3.752000e-01 7.795408e+02 
3.763900e-01 7.764576e+02 
3.775800e-01 7.733983e+02 
3.788200e-01 7.702354e+02 
3.800300e-01 7.671734e+02 
3.812100e-01 7.642151e+02 
3.824200e-01 7.612081e+02 
3.836100e-01 7.582735e+02 
3.848600e-01 7.552147e+02 
3.860400e-01 7.523496e+02 
3.872400e-01 7.494577e+02 
3.884600e-01 7.465508e+02 
3.896500e-01 7.437408e+02 
3.908700e-01 7.408817e+02 
3.920600e-01 7.381139e+02 
3.933100e-01 7.352286e+02 
3.945300e-01 7.324341e+02 
3.957200e-01 7.297332e+02 
3.969300e-01 7.270084e+02 
3.981700e-01 7.242371e+02 
3.993500e-01 7.216194e+02 
4.094840e-01 6.998954e+02 
4.272360e-01 6.649673e+02 
4.454600e-01 6.325160e+02 
4.630560e-01 6.039855e+02 
4.804610e-01 5.781200e+02 
4.980690e-01 5.540346e+02 
5.159230e-01 5.315377e+02 
5.317440e-01 5.130503e+02 
5.489640e-01 4.943492e+02 
5.671990e-01 4.760288e+02 
5.838690e-01 4.604682e+02 
6.018840e-01 4.448336e+02 
6.202330e-01 4.300495e+02 
6.379250e-01 4.167588e+02 
6.545410e-01 4.050959e+02 
6.714560e-01 3.939186e+02 
6.892080e-01 3.829193e+02 
7.066010e-01 3.727657e+02 
7.240540e-01 3.631386e+02 
7.420450e-01 3.537736e+02 
7.593780e-01 3.452222e+02 
7.764720e-01 3.371949e+02 
7.942840e-01 3.292321e+02 
8.116170e-01 3.218301e+02 
8.288310e-01 3.147987e+02 
8.462240e-01 3.079860e+02 
8.631980e-01 3.015961e+02 
8.810700e-01 2.951271e+02 
8.989410e-01 2.889050e+02 
9.166330e-01 2.829648e+02 
9.345640e-01 2.771509e+02 
9.515980e-01 2.718081e+02 
9.688720e-01 2.665590e+02 
9.865640e-01 2.613433e+02 
1.031870e+00 2.487153e+02 
1.063490e+00 2.404106e+02 
1.097920e+00 2.318761e+02 
1.134370e+00 2.232702e+02 
1.167730e+00 2.158024e+02 
1.203830e+00 2.080991e+02 
1.240470e+00 2.006907e+02 
1.275790e+00 1.938588e+02 
1.309140e+00 1.877250e+02 
1.342970e+00 1.817314e+02 
1.378420e+00 1.757612e+02 
1.413200e+00 1.701549e+02 
1.448110e+00 1.647515e+02 
1.484090e+00 1.594485e+02 
1.518820e+00 1.545260e+02 
1.552880e+00 1.499112e+02 
1.588630e+00 1.452537e+02 
1.623230e+00 1.409470e+02 
1.657720e+00 1.368225e+02 
1.692450e+00 1.328578e+02 
1.726400e+00 1.290990e+02 
1.762200e+00 1.252907e+02 
1.797880e+00 1.216623e+02 
1.833270e+00 1.181901e+02 
1.869070e+00 1.148279e+02 
1.903200e+00 1.117419e+02 
1.937740e+00 1.087320e+02 
1.973190e+00 1.057535e+02 
2.007440e+00 1.029866e+02 
2.042160e+00 1.002903e+02 
2.077900e+00 9.760053e+01 
2.112390e+00 9.511235e+01 
2.146220e+00 9.273637e+01 
2.181600e+00 9.034975e+01 
2.216930e+00 8.805251e+01 
2.250760e+00 8.591815e+01 
2.286500e+00 8.373747e+01 
2.321770e+00 8.167099e+01 
2.355950e+00 7.974423e+01 
2.391280e+00 7.780251e+01 
2.426240e+00 7.594382e+01 
2.460670e+00 7.417263e+01 
2.495640e+00 7.243198e+01 
2.531080e+00 7.073261e+01 
2.566220e+00 6.909301e+01 
2.600830e+00 6.753071e+01 
2.635080e+00 6.603781e+01 
2.670340e+00 6.453574e+01 
2.705970e+00 6.307176e+01 
2.740040e+00 6.171793e+01 
2.774520e+00 6.038587e+01 
2.809730e+00 5.906593e+01 
2.844390e+00 5.780558e+01 
2.879960e+00 5.654929e+01 
2.914860e+00 5.535250e+01 
2.949410e+00 5.420230e+01 
2.984440e+00 5.306817e+01 
3.019760e+00 5.196143e+01 
3.054730e+00 5.089930e+01 
3.089030e+00 4.987916e+01 
3.124060e+00 4.886902e+01 
3.159560e+00 4.787726e+01 
3.194710e+00 4.691714e+01 
3.229010e+00 4.600510e+01 
3.263320e+00 4.512095e+01 
3.297930e+00 4.425297e+01 
3.332830e+00 4.340037e+01 
3.368040e+00 4.256281e+01 
3.403300e+00 4.174630e+01 
3.438450e+00 4.095302e+01 
3.473060e+00 4.019247e+01 
3.508440e+00 3.943850e+01 
3.543110e+00 3.871836e+01 
3.577470e+00 3.801846e+01 
3.613040e+00 3.731332e+01 
3.648120e+00 3.663776e+01 
3.682910e+00 3.598444e+01 
3.718050e+00 3.534047e+01 
3.753320e+00 3.470998e+01 
3.787980e+00 3.410516e+01 
3.822290e+00 3.352199e+01 
3.857020e+00 3.294746e+01 
3.891920e+00 3.238253e+01 
3.926650e+00 3.183110e+01 
3.961970e+00 3.128444e+01 
3.997360e+00 3.075162e+01 
4.031670e+00 3.024702e+01 
4.066330e+00 2.974852e+01 
4.101420e+00 2.925553e+01 
4.136200e+00 2.877983e+01 
4.170810e+00 2.831712e+01 
4.206250e+00 2.785346e+01 
4.241580e+00 2.740160e+01 
4.276300e+00 2.696778e+01 
4.310970e+00 2.654426e+01 
4.346120e+00 2.612449e+01 
4.380600e+00 2.572204e+01 
4.414730e+00 2.533212e+01 
4.450350e+00 2.493424e+01 
4.485320e+00 2.455200e+01 
4.519810e+00 2.418338e+01 
4.555430e+00 2.381088e+01 
4.590870e+00 2.344830e+01 
4.625480e+00 2.310196e+01 
4.659910e+00 2.276439e+01 
4.695230e+00 2.242573e+01 
4.729960e+00 2.209956e+01 
4.764450e+00 2.178235e+01 
4.799530e+00 2.146655e+01 
4.834910e+00 2.115441e+01 
4.869700e+00 2.085413e+01 
4.904370e+00 2.056080e+01 
4.939450e+00 2.026994e+01 
4.973940e+00 1.998998e+01 
5.008430e+00 1.971530e+01 
5.043810e+00 1.943940e+01 
5.078840e+00 1.917172e+01 
5.113500e+00 1.891182e+01 
5.148890e+00 1.865200e+01 
5.184210e+00 1.839757e+01 
5.219060e+00 1.815137e+01 
5.253660e+00 1.791192e+01 
5.288570e+00 1.767470e+01 
5.323420e+00 1.744249e+01 
5.358440e+00 1.721372e+01 
5.393590e+00 1.698821e+01 
5.428310e+00 1.676986e+01 
5.462800e+00 1.655698e+01 
5.497640e+00 1.634568e+01 
5.532670e+00 1.613746e+01 
5.567280e+00 1.593545e+01 
5.602000e+00 1.573625e+01 
5.637270e+00 1.553786e+01 
5.672410e+00 1.534369e+01 
5.707020e+00 1.515568e+01 
5.742040e+00 1.496920e+01 
5.777430e+00 1.478403e+01 
5.812210e+00 1.460509e+01 
5.846820e+00 1.443033e+01 
5.881610e+00 1.425763e+01 
5.916510e+00 1.408720e+01 
5.951600e+00 1.391913e+01 
5.986560e+00 1.375461e+01 
6.021830e+00 1.359130e+01 
6.056490e+00 1.343367e+01 
6.091160e+00 1.327873e+01 
6.125830e+00 1.312621e+01 
6.161090e+00 1.297369e+01 
6.195760e+00 1.282640e+01 
6.230420e+00 1.268141e+01 
6.265690e+00 1.253618e+01 
6.300950e+00 1.239385e+01 
6.335620e+00 1.225604e+01 
6.370880e+00 1.211801e+01 
6.405550e+00 1.198463e+01 
6.440220e+00 1.185335e+01 
6.475480e+00 1.172184e+01 
6.510150e+00 1.159461e+01 
6.544810e+00 1.146965e+01 
6.580080e+00 1.134437e+01 
6.614750e+00 1.122302e+01 
6.649410e+00 1.110382e+01 
6.684080e+00 1.098636e+01 
6.719340e+00 1.086864e+01 
6.754010e+00 1.075467e+01 
6.788680e+00 1.064259e+01 
6.823940e+00 1.053023e+01 
6.859800e+00 1.041760e+01 
6.894470e+00 1.031054e+01 
6.929140e+00 1.020505e+01 
6.963800e+00 1.010106e+01 
6.999070e+00 9.996730e+00 
7.033730e+00 9.896012e+00 
7.068400e+00 9.796637e+00 
7.103660e+00 9.696953e+00 
7.138330e+00 9.600383e+00 
7.173600e+00 9.503703e+00 
7.208260e+00 9.409975e+00 
7.243530e+00 9.315879e+00 
7.277600e+00 9.226361e+00 
7.312860e+00 9.135094e+00 
7.348120e+00 9.045045e+00 
7.382790e+00 8.957671e+00 
7.417460e+00 8.871641e+00 
7.452720e+00 8.785399e+00 
7.487390e+00 8.701702e+00 
7.522650e+00 8.617683e+00 
7.557320e+00 8.536355e+00 
7.591990e+00 8.456144e+00 
7.627250e+00 8.375609e+00 
7.662510e+00 8.296107e+00 
7.697180e+00 8.219129e+00 
7.731850e+00 8.143192e+00 
7.766510e+00 8.068221e+00 
7.801180e+00 7.994158e+00 
7.836440e+00 7.919922e+00 
7.871110e+00 7.847925e+00 
7.906380e+00 7.775586e+00 
7.941040e+00 7.705372e+00 
7.976310e+00 7.634902e+00 
8.011570e+00 7.565443e+00 
8.046240e+00 7.497975e+00 
8.080900e+00 7.431334e+00 
8.115570e+00 7.365529e+00 
8.150830e+00 7.299633e+00 
8.185500e+00 7.235613e+00 
8.220770e+00 7.171259e+00 
8.255430e+00 7.108766e+00 
8.290100e+00 7.047147e+00 
8.324770e+00 6.986263e+00 
8.359430e+00 6.926103e+00 
8.394700e+00 6.865597e+00 
8.429960e+00 6.805926e+00 
8.464630e+00 6.748042e+00 
8.499890e+00 6.689851e+00 
8.534560e+00 6.633290e+00 
8.569200e+00 6.577418e+00 
