# Parameters:
# omega_b = 0.022098, omega_m = 0.123307, n_s = 0.950787, h = 73.897638, w = -1.000000, sigma_8 = 0.789764
# z = 0.700000
#
# k[1/Mpc] # P(k):
8.694000e-04 1.132927e+04 
2.077466e-03 2.354917e+04 
3.285532e-03 3.263412e+04 
4.493598e-03 3.923127e+04 
5.701664e-03 4.380937e+04 
6.909730e-03 4.676307e+04 
8.117797e-03 4.849032e+04 
9.325863e-03 4.920031e+04 
1.053393e-02 4.909096e+04 
1.174199e-02 4.834092e+04 
1.295006e-02 4.706340e+04 
1.415813e-02 4.540522e+04 
1.536619e-02 4.348857e+04 
1.657426e-02 4.139881e+04 
1.778233e-02 3.921733e+04 
1.899039e-02 3.704224e+04 
2.019846e-02 3.490995e+04 
2.140652e-02 3.286389e+04 
2.261459e-02 3.093324e+04 
2.382266e-02 2.914664e+04 
2.503072e-02 2.751776e+04 
2.623879e-02 2.604738e+04 
2.744685e-02 2.473453e+04 
2.865492e-02 2.357051e+04 
2.986299e-02 2.254298e+04 
3.100100e-02 2.169435e+04 
3.220400e-02 2.090678e+04 
3.288100e-02 2.051115e+04 
3.424300e-02 1.980013e+04 
3.555100e-02 1.920495e+04 
3.686000e-02 1.868001e+04 
3.795000e-02 1.828345e+04 
3.929100e-02 1.783398e+04 
4.039800e-02 1.748148e+04 
4.164000e-02 1.709731e+04 
4.294400e-02 1.668894e+04 
4.415000e-02 1.630887e+04 
4.542900e-02 1.588442e+04 
4.660900e-02 1.548324e+04 
4.782300e-02 1.504101e+04 
4.892900e-02 1.462756e+04 
5.031200e-02 1.409192e+04 
5.155900e-02 1.359287e+04 
5.238100e-02 1.325994e+04 
5.378200e-02 1.269051e+04 
5.513400e-02 1.214295e+04 
5.627600e-02 1.168813e+04 
5.735300e-02 1.127076e+04 
5.870100e-02 1.076885e+04 
5.988700e-02 1.035051e+04 
6.113500e-02 9.936175e+03 
6.225900e-02 9.588289e+03 
6.340100e-02 9.260888e+03 
6.480200e-02 8.893062e+03 
6.601100e-02 8.608971e+03 
6.725500e-02 8.346671e+03 
6.829100e-02 8.153021e+03 
6.958600e-02 7.935103e+03 
7.071100e-02 7.769006e+03 
7.192300e-02 7.610157e+03 
7.307400e-02 7.476402e+03 
7.412300e-02 7.366867e+03 
7.550400e-02 7.238671e+03 
7.663100e-02 7.143099e+03 
7.791200e-02 7.043105e+03 
7.912700e-02 6.951980e+03 
8.027600e-02 6.866604e+03 
8.138400e-02 6.783477e+03 
8.272200e-02 6.679731e+03 
8.406100e-02 6.570493e+03 
8.534100e-02 6.457135e+03 
8.653800e-02 6.342786e+03 
8.759800e-02 6.236925e+03 
8.900300e-02 6.089138e+03 
9.009000e-02 5.968669e+03 
9.113300e-02 5.848306e+03 
9.239600e-02 5.700699e+03 
9.358000e-02 5.559891e+03 
9.496100e-02 5.394025e+03 
9.608400e-02 5.261081e+03 
9.727500e-02 5.122815e+03 
9.852600e-02 4.981613e+03 
9.973800e-02 4.850682e+03 
1.009000e-01 4.730280e+03 
1.020900e-01 4.616036e+03 
1.034000e-01 4.497797e+03 
1.046000e-01 4.396611e+03 
1.057200e-01 4.312097e+03 
1.069100e-01 4.227560e+03 
1.082500e-01 4.143266e+03 
1.093900e-01 4.078554e+03 
1.105400e-01 4.017827e+03 
1.116900e-01 3.964956e+03 
1.129600e-01 3.910047e+03 
1.142000e-01 3.862337e+03 
1.153300e-01 3.821067e+03 
1.166400e-01 3.776180e+03 
1.177800e-01 3.738268e+03 
1.190000e-01 3.698761e+03 
1.201200e-01 3.661413e+03 
1.213400e-01 3.621345e+03 
1.227100e-01 3.572525e+03 
1.238900e-01 3.530268e+03 
1.250700e-01 3.484809e+03 
1.263200e-01 3.436047e+03 
1.275500e-01 3.385341e+03 
1.287500e-01 3.335199e+03 
1.299900e-01 3.281705e+03 
1.311300e-01 3.232348e+03 
1.323500e-01 3.178762e+03 
1.335900e-01 3.124881e+03 
1.347100e-01 3.076376e+03 
1.359800e-01 3.022546e+03 
1.372100e-01 2.971444e+03 
1.384300e-01 2.922203e+03 
1.395700e-01 2.877812e+03 
1.407700e-01 2.832272e+03 
1.420300e-01 2.787124e+03 
1.432800e-01 2.743366e+03 
1.444500e-01 2.705249e+03 
1.456300e-01 2.667608e+03 
1.468900e-01 2.629905e+03 
1.480500e-01 2.596400e+03 
1.491700e-01 2.565446e+03 
1.503800e-01 2.533638e+03 
1.516400e-01 2.501461e+03 
1.528200e-01 2.473099e+03 
1.540200e-01 2.444811e+03 
1.551900e-01 2.418499e+03 
1.564300e-01 2.391326e+03 
1.576600e-01 2.365087e+03 
1.588700e-01 2.339996e+03 
1.600900e-01 2.315168e+03 
1.612700e-01 2.291528e+03 
1.625400e-01 2.266559e+03 
1.637600e-01 2.242728e+03 
1.649500e-01 2.219731e+03 
1.662200e-01 2.195523e+03 
1.674000e-01 2.172807e+03 
1.685000e-01 2.151988e+03 
1.697500e-01 2.128296e+03 
1.710300e-01 2.104045e+03 
1.722200e-01 2.081904e+03 
1.734400e-01 2.058781e+03 
1.746400e-01 2.036401e+03 
1.758700e-01 2.013669e+03 
1.770900e-01 1.991125e+03 
1.782700e-01 1.969693e+03 
1.794600e-01 1.948258e+03 
1.807000e-01 1.926182e+03 
1.819100e-01 1.905012e+03 
1.830100e-01 1.886084e+03 
1.842200e-01 1.865599e+03 
1.855000e-01 1.844312e+03 
1.867000e-01 1.824958e+03 
1.879200e-01 1.805605e+03 
1.890900e-01 1.787414e+03 
1.902800e-01 1.769568e+03 
1.915200e-01 1.751271e+03 
1.926900e-01 1.734394e+03 
1.939000e-01 1.717582e+03 
1.951700e-01 1.700217e+03 
1.963100e-01 1.684984e+03 
1.975100e-01 1.669493e+03 
1.987800e-01 1.653353e+03 
2.000100e-01 1.638057e+03 
2.012500e-01 1.623085e+03 
2.023400e-01 1.610113e+03 
2.036100e-01 1.595249e+03 
2.048900e-01 1.580627e+03 
2.060400e-01 1.567682e+03 
2.072200e-01 1.554587e+03 
2.084200e-01 1.541471e+03 
2.096900e-01 1.527794e+03 
2.109200e-01 1.514743e+03 
2.121100e-01 1.502182e+03 
2.132700e-01 1.490100e+03 
2.145200e-01 1.477262e+03 
2.157200e-01 1.465011e+03 
2.168800e-01 1.453282e+03 
2.180700e-01 1.441412e+03 
2.193400e-01 1.428849e+03 
2.206000e-01 1.416430e+03 
2.217500e-01 1.405249e+03 
2.229500e-01 1.393736e+03 
2.241400e-01 1.382304e+03 
2.253500e-01 1.370832e+03 
2.264900e-01 1.360165e+03 
2.277100e-01 1.348828e+03 
2.289900e-01 1.337019e+03 
2.301500e-01 1.326461e+03 
2.313600e-01 1.315589e+03 
2.325600e-01 1.304857e+03 
2.337700e-01 1.294176e+03 
2.350000e-01 1.283461e+03 
2.362000e-01 1.273120e+03 
2.374100e-01 1.262800e+03 
2.386500e-01 1.252362e+03 
2.399100e-01 1.241896e+03 
2.410400e-01 1.232644e+03 
2.422500e-01 1.222861e+03 
2.435000e-01 1.212883e+03 
2.447300e-01 1.203203e+03 
2.458700e-01 1.194389e+03 
2.470600e-01 1.185298e+03 
2.483300e-01 1.175718e+03 
2.495600e-01 1.166601e+03 
2.507600e-01 1.157876e+03 
2.519600e-01 1.149255e+03 
2.532200e-01 1.140314e+03 
2.543700e-01 1.132326e+03 
2.555500e-01 1.124275e+03 
2.568000e-01 1.115847e+03 
2.580100e-01 1.107787e+03 
2.592400e-01 1.099784e+03 
2.604100e-01 1.092302e+03 
2.616100e-01 1.084714e+03 
2.628400e-01 1.077027e+03 
2.640600e-01 1.069579e+03 
2.652200e-01 1.062612e+03 
2.664300e-01 1.055426e+03 
2.676500e-01 1.048262e+03 
2.688400e-01 1.041414e+03 
2.700700e-01 1.034454e+03 
2.712400e-01 1.027906e+03 
2.724800e-01 1.021043e+03 
2.736700e-01 1.014561e+03 
2.748800e-01 1.008076e+03 
2.761000e-01 1.001608e+03 
2.773200e-01 9.952104e+02 
2.785400e-01 9.888958e+02 
2.797000e-01 9.829826e+02 
2.808900e-01 9.769793e+02 
2.821400e-01 9.707409e+02 
2.833900e-01 9.645716e+02 
2.845500e-01 9.589244e+02 
2.857800e-01 9.529984e+02 
2.870300e-01 9.470405e+02 
2.882100e-01 9.414751e+02 
2.893900e-01 9.359752e+02 
2.906300e-01 9.302603e+02 
2.918900e-01 9.245148e+02 
2.930500e-01 9.192794e+02 
2.942500e-01 9.139170e+02 
2.954200e-01 9.087399e+02 
2.966500e-01 9.033519e+02 
2.978900e-01 8.979759e+02 
2.990400e-01 8.930394e+02 
3.002700e-01 8.878161e+02 
3.015100e-01 8.826061e+02 
3.026800e-01 8.777387e+02 
3.038500e-01 8.729177e+02 
3.050300e-01 8.681019e+02 
3.062600e-01 8.631357e+02 
3.075000e-01 8.581789e+02 
3.087000e-01 8.534290e+02 
3.099100e-01 8.486855e+02 
3.111200e-01 8.439926e+02 
3.123100e-01 8.394296e+02 
3.135300e-01 8.347959e+02 
3.147300e-01 8.302817e+02 
3.159900e-01 8.255873e+02 
3.171800e-01 8.212035e+02 
3.183700e-01 8.168651e+02 
3.196300e-01 8.123149e+02 
3.208400e-01 8.079870e+02 
3.220300e-01 8.037697e+02 
3.232000e-01 7.996753e+02 
3.244300e-01 7.954160e+02 
3.256700e-01 7.911623e+02 
3.269200e-01 7.869147e+02 
3.280800e-01 7.830086e+02 
3.292500e-01 7.791186e+02 
3.304800e-01 7.750706e+02 
3.317100e-01 7.710596e+02 
3.328900e-01 7.672460e+02 
3.340700e-01 7.634657e+02 
3.353600e-01 7.593883e+02 
3.365300e-01 7.557302e+02 
3.377100e-01 7.520725e+02 
3.389200e-01 7.483544e+02 
3.401600e-01 7.445780e+02 
3.413700e-01 7.409377e+02 
3.425300e-01 7.374861e+02 
3.437700e-01 7.338282e+02 
3.449800e-01 7.302901e+02 
3.461800e-01 7.268113e+02 
3.473600e-01 7.234265e+02 
3.485800e-01 7.199743e+02 
3.498100e-01 7.165237e+02 
3.510200e-01 7.131583e+02 
3.522000e-01 7.099038e+02 
3.533900e-01 7.066488e+02 
3.546400e-01 7.032767e+02 
3.558400e-01 7.000679e+02 
3.570600e-01 6.968329e+02 
3.582700e-01 6.936511e+02 
3.595000e-01 6.904437e+02 
3.607100e-01 6.873247e+02 
3.618900e-01 6.843153e+02 
3.631200e-01 6.812041e+02 
3.643200e-01 6.781936e+02 
3.655500e-01 6.751331e+02 
3.667300e-01 6.722207e+02 
3.679500e-01 6.692487e+02 
3.691900e-01 6.662527e+02 
3.703600e-01 6.634484e+02 
3.715700e-01 6.605711e+02 
3.727700e-01 6.577402e+02 
3.739900e-01 6.548911e+02 
3.752000e-01 6.520990e+02 
3.763900e-01 6.493744e+02 
3.775800e-01 6.466710e+02 
3.788200e-01 6.438761e+02 
3.800300e-01 6.411704e+02 
3.812100e-01 6.385564e+02 
3.824200e-01 6.358994e+02 
3.836100e-01 6.333064e+02 
3.848600e-01 6.306038e+02 
3.860400e-01 6.280723e+02 
3.872400e-01 6.255173e+02 
3.884600e-01 6.229490e+02 
3.896500e-01 6.204665e+02 
3.908700e-01 6.179407e+02 
3.920600e-01 6.154955e+02 
3.933100e-01 6.129466e+02 
3.945300e-01 6.104780e+02 
3.957200e-01 6.080923e+02 
3.969300e-01 6.056858e+02 
3.981700e-01 6.032382e+02 
3.993500e-01 6.009263e+02 
4.094840e-01 5.817471e+02 
4.272360e-01 5.509478e+02 
4.454600e-01 5.224152e+02 
4.630560e-01 4.974154e+02 
4.804610e-01 4.748337e+02 
4.980690e-01 4.538788e+02 
5.159230e-01 4.343642e+02 
5.317440e-01 4.183623e+02 
5.489640e-01 4.022025e+02 
5.671990e-01 3.863882e+02 
5.838690e-01 3.729663e+02 
6.018840e-01 3.594848e+02 
6.202330e-01 3.467385e+02 
6.379250e-01 3.352847e+02 
6.545410e-01 3.252357e+02 
6.714560e-01 3.156122e+02 
6.892080e-01 3.061483e+02 
7.066010e-01 2.974241e+02 
7.240540e-01 2.891665e+02 
7.420450e-01 2.811496e+02 
7.593780e-01 2.738469e+02 
7.764720e-01 2.670103e+02 
7.942840e-01 2.602486e+02 
8.116170e-01 2.539877e+02 
8.288310e-01 2.480630e+02 
8.462240e-01 2.423433e+02 
8.631980e-01 2.369997e+02 
8.810700e-01 2.316134e+02 
8.989410e-01 2.264548e+02 
9.166330e-01 2.215511e+02 
9.345640e-01 2.167738e+02 
9.515980e-01 2.124037e+02 
9.688720e-01 2.081278e+02 
9.865640e-01 2.039003e+02 
1.031870e+00 1.937295e+02 
1.063490e+00 1.871019e+02 
1.097920e+00 1.803357e+02 
1.134370e+00 1.735561e+02 
1.167730e+00 1.677077e+02 
1.203830e+00 1.617108e+02 
1.240470e+00 1.559676e+02 
1.275790e+00 1.506975e+02 
1.309140e+00 1.459802e+02 
1.342970e+00 1.413886e+02 
1.378420e+00 1.368250e+02 
1.413200e+00 1.325506e+02 
1.448110e+00 1.284400e+02 
1.484090e+00 1.244116e+02 
1.518820e+00 1.206777e+02 
1.552880e+00 1.171824e+02 
1.588630e+00 1.136568e+02 
1.623230e+00 1.103986e+02 
1.657720e+00 1.072803e+02 
1.692450e+00 1.042839e+02 
1.726400e+00 1.014437e+02 
1.762200e+00 9.856559e+01 
1.797880e+00 9.582373e+01 
1.833270e+00 9.319888e+01 
1.869070e+00 9.065664e+01 
1.903200e+00 8.832220e+01 
1.937740e+00 8.604430e+01 
1.973190e+00 8.378884e+01 
2.007440e+00 8.169194e+01 
2.042160e+00 7.964762e+01 
2.077900e+00 7.760596e+01 
2.112390e+00 7.571662e+01 
2.146220e+00 7.390994e+01 
2.181600e+00 7.209437e+01 
2.216930e+00 7.034482e+01 
2.250760e+00 6.871751e+01 
2.286500e+00 6.705331e+01 
2.321770e+00 6.547493e+01 
2.355950e+00 6.400203e+01 
2.391280e+00 6.251570e+01 
2.426240e+00 6.109117e+01 
2.460670e+00 5.973213e+01 
2.495640e+00 5.839509e+01 
2.531080e+00 5.708847e+01 
2.566220e+00 5.582592e+01 
2.600830e+00 5.462167e+01 
2.635080e+00 5.346998e+01 
2.670340e+00 5.230913e+01 
2.705970e+00 5.117645e+01 
2.740040e+00 5.012794e+01 
2.774520e+00 4.909517e+01 
2.809730e+00 4.807034e+01 
2.844390e+00 4.709072e+01 
2.879960e+00 4.611300e+01 
2.914860e+00 4.518021e+01 
2.949410e+00 4.428277e+01 
2.984440e+00 4.339661e+01 
3.019760e+00 4.253102e+01 
3.054730e+00 4.169960e+01 
3.089030e+00 4.089933e+01 
3.124060e+00 4.010627e+01 
3.159560e+00 3.932689e+01 
3.194710e+00 3.857109e+01 
3.229010e+00 3.785247e+01 
3.263320e+00 3.715485e+01 
3.297930e+00 3.646938e+01 
3.332830e+00 3.579513e+01 
3.368040e+00 3.513193e+01 
3.403300e+00 3.448471e+01 
3.438450e+00 3.385492e+01 
3.473060e+00 3.325071e+01 
3.508440e+00 3.265078e+01 
3.543110e+00 3.207738e+01 
3.577470e+00 3.151899e+01 
3.613040e+00 3.095604e+01 
3.648120e+00 3.041605e+01 
3.682910e+00 2.989338e+01 
3.718050e+00 2.937752e+01 
3.753320e+00 2.887194e+01 
3.787980e+00 2.838628e+01 
3.822290e+00 2.791762e+01 
3.857020e+00 2.745541e+01 
3.891920e+00 2.700047e+01 
3.926650e+00 2.655573e+01 
3.961970e+00 2.611453e+01 
3.997360e+00 2.568393e+01 
4.031670e+00 2.527590e+01 
4.066330e+00 2.487216e+01 
4.101420e+00 2.447273e+01 
4.136200e+00 2.408666e+01 
4.170810e+00 2.371102e+01 
4.206250e+00 2.333403e+01 
4.241580e+00 2.296645e+01 
4.276300e+00 2.261311e+01 
4.310970e+00 2.226789e+01 
4.346120e+00 2.192545e+01 
4.380600e+00 2.159674e+01 
4.414730e+00 2.127817e+01 
4.450350e+00 2.095251e+01 
4.485320e+00 2.063958e+01 
4.519810e+00 2.033741e+01 
4.555430e+00 2.003187e+01 
4.590870e+00 1.973426e+01 
4.625480e+00 1.944967e+01 
4.659910e+00 1.917223e+01 
4.695230e+00 1.889345e+01 
4.729960e+00 1.862485e+01 
4.764450e+00 1.836344e+01 
4.799530e+00 1.810293e+01 
4.834910e+00 1.784538e+01 
4.869700e+00 1.759727e+01 
4.904370e+00 1.735481e+01 
4.939450e+00 1.711425e+01 
4.973940e+00 1.688243e+01 
5.008430e+00 1.665495e+01 
5.043810e+00 1.642623e+01 
5.078840e+00 1.620420e+01 
5.113500e+00 1.598858e+01 
5.148890e+00 1.577275e+01 
5.184210e+00 1.556136e+01 
5.219060e+00 1.535670e+01 
5.253660e+00 1.515743e+01 
5.288570e+00 1.495998e+01 
5.323420e+00 1.476657e+01 
5.358440e+00 1.457586e+01 
5.393590e+00 1.438785e+01 
5.428310e+00 1.420565e+01 
5.462800e+00 1.402793e+01 
5.497640e+00 1.385150e+01 
5.532670e+00 1.367748e+01 
5.567280e+00 1.350859e+01 
5.602000e+00 1.334204e+01 
5.637270e+00 1.317599e+01 
5.672410e+00 1.301344e+01 
5.707020e+00 1.285602e+01 
5.742040e+00 1.269974e+01 
5.777430e+00 1.254451e+01 
5.812210e+00 1.239449e+01 
5.846820e+00 1.224785e+01 
5.881610e+00 1.210289e+01 
5.916510e+00 1.195983e+01 
5.951600e+00 1.181863e+01 
5.986560e+00 1.168037e+01 
6.021830e+00 1.154312e+01 
6.056490e+00 1.141058e+01 
6.091160e+00 1.128025e+01 
6.125830e+00 1.115194e+01 
6.161090e+00 1.102359e+01 
6.195760e+00 1.089956e+01 
6.230420e+00 1.077746e+01 
6.265690e+00 1.065514e+01 
6.300950e+00 1.053517e+01 
6.335620e+00 1.041899e+01 
6.370880e+00 1.030263e+01 
6.405550e+00 1.019014e+01 
6.440220e+00 1.007941e+01 
6.475480e+00 9.968466e+00 
6.510150e+00 9.861112e+00 
6.544810e+00 9.755610e+00 
6.580080e+00 9.649826e+00 
6.614750e+00 9.547361e+00 
6.649410e+00 9.446654e+00 
6.684080e+00 9.347413e+00 
6.719340e+00 9.247934e+00 
6.754010e+00 9.151611e+00 
6.788680e+00 9.056861e+00 
6.823940e+00 8.961864e+00 
6.859800e+00 8.866637e+00 
6.894470e+00 8.776077e+00 
6.929140e+00 8.686845e+00 
6.963800e+00 8.598869e+00 
6.999070e+00 8.510603e+00 
7.033730e+00 8.425366e+00 
7.068400e+00 8.341263e+00 
7.103660e+00 8.256894e+00 
7.138330e+00 8.175147e+00 
7.173600e+00 8.093279e+00 
7.208260e+00 8.013909e+00 
7.243530e+00 7.934223e+00 
7.277600e+00 7.858402e+00 
7.312860e+00 7.781089e+00 
7.348120e+00 7.704805e+00 
7.382790e+00 7.630783e+00 
7.417460e+00 7.557897e+00 
7.452720e+00 7.484827e+00 
7.487390e+00 7.413910e+00 
7.522650e+00 7.342719e+00 
7.557320e+00 7.273792e+00 
7.591990e+00 7.205803e+00 
7.627250e+00 7.137539e+00 
7.662510e+00 7.070148e+00 
7.697180e+00 7.004893e+00 
7.731850e+00 6.940519e+00 
7.766510e+00 6.876961e+00 
7.801180e+00 6.814171e+00 
7.836440e+00 6.751227e+00 
7.871110e+00 6.690175e+00 
7.906380e+00 6.628831e+00 
7.941040e+00 6.569288e+00 
7.976310e+00 6.509531e+00 
8.011570e+00 6.450638e+00 
8.046240e+00 6.393431e+00 
8.080900e+00 6.336924e+00 
8.115570e+00 6.281121e+00 
8.150830e+00 6.225232e+00 
8.185500e+00 6.170931e+00 
8.220770e+00 6.116346e+00 
8.255430e+00 6.063338e+00 
8.290100e+00 6.011085e+00 
8.324770e+00 5.959457e+00 
8.359430e+00 5.908440e+00 
8.394700e+00 5.857129e+00 
8.429960e+00 5.806523e+00 
8.464630e+00 5.757429e+00 
8.499890e+00 5.708073e+00 
8.534560e+00 5.660097e+00 
8.569200e+00 5.612705e+00 
