# Parameters:
# omega_b = 0.022571, omega_m = 0.152244, n_s = 0.916142, h = 60.905512, w = -1.000000, sigma_8 = 0.737795
# z = 0.700000
#
# k[1/Mpc] # P(k):
8.694000e-04 6.862210e+03 
2.077466e-03 1.417254e+04 
3.285532e-03 1.979174e+04 
4.493598e-03 2.410165e+04 
5.701664e-03 2.732034e+04 
6.909730e-03 2.962873e+04 
8.117797e-03 3.122306e+04 
9.325863e-03 3.220638e+04 
1.053393e-02 3.268131e+04 
1.174199e-02 3.274405e+04 
1.295006e-02 3.245297e+04 
1.415813e-02 3.188698e+04 
1.536619e-02 3.111409e+04 
1.657426e-02 3.018429e+04 
1.778233e-02 2.916358e+04 
1.899039e-02 2.812803e+04 
2.019846e-02 2.706073e+04 
2.140652e-02 2.596242e+04 
2.261459e-02 2.486122e+04 
2.382266e-02 2.378987e+04 
2.503072e-02 2.276713e+04 
2.623879e-02 2.180077e+04 
2.744685e-02 2.089208e+04 
2.865492e-02 2.004840e+04 
2.986299e-02 1.926916e+04 
3.100100e-02 1.859384e+04 
3.220400e-02 1.793919e+04 
3.288100e-02 1.759752e+04 
3.424300e-02 1.696405e+04 
3.555100e-02 1.641645e+04 
3.686000e-02 1.592265e+04 
3.795000e-02 1.554684e+04 
3.929100e-02 1.512507e+04 
4.039800e-02 1.480330e+04 
4.164000e-02 1.446465e+04 
4.294400e-02 1.412783e+04 
4.415000e-02 1.382911e+04 
4.542900e-02 1.351687e+04 
4.660900e-02 1.323325e+04 
4.782300e-02 1.293516e+04 
4.892900e-02 1.266192e+04 
5.031200e-02 1.231332e+04 
5.155900e-02 1.198964e+04 
5.238100e-02 1.177243e+04 
5.378200e-02 1.139669e+04 
5.513400e-02 1.102672e+04 
5.627600e-02 1.071081e+04 
5.735300e-02 1.041277e+04 
5.870100e-02 1.004220e+04 
5.988700e-02 9.721978e+03 
6.113500e-02 9.392902e+03 
6.225900e-02 9.105248e+03 
6.340100e-02 8.823699e+03 
6.480200e-02 8.495111e+03 
6.601100e-02 8.228087e+03 
6.725500e-02 7.970489e+03 
6.829100e-02 7.770798e+03 
6.958600e-02 7.538136e+03 
7.071100e-02 7.352558e+03 
7.192300e-02 7.168457e+03 
7.307400e-02 7.008214e+03 
7.412300e-02 6.873701e+03 
7.550400e-02 6.713109e+03 
7.663100e-02 6.592935e+03 
7.791200e-02 6.469379e+03 
7.912700e-02 6.362118e+03 
8.027600e-02 6.267327e+03 
8.138400e-02 6.180634e+03 
8.272200e-02 6.080758e+03 
8.406100e-02 5.984286e+03 
8.534100e-02 5.893207e+03 
8.653800e-02 5.807323e+03 
8.759800e-02 5.730678e+03 
8.900300e-02 5.627203e+03 
9.009000e-02 5.544748e+03 
9.113300e-02 5.462875e+03 
9.239600e-02 5.362300e+03 
9.358000e-02 5.265521e+03 
9.496100e-02 5.148897e+03 
9.608400e-02 5.053231e+03 
9.727500e-02 4.951802e+03 
9.852600e-02 4.842852e+03 
9.973800e-02 4.738808e+03 
1.009000e-01 4.640591e+03 
1.020900e-01 4.540883e+03 
1.034000e-01 4.434330e+03 
1.046000e-01 4.339593e+03 
1.057200e-01 4.254524e+03 
1.069100e-01 4.167239e+03 
1.082500e-01 4.073902e+03 
1.093900e-01 3.998593e+03 
1.105400e-01 3.925678e+03 
1.116900e-01 3.857793e+03 
1.129600e-01 3.786039e+03 
1.142000e-01 3.721108e+03 
1.153300e-01 3.664919e+03 
1.166400e-01 3.603720e+03 
1.177800e-01 3.553961e+03 
1.190000e-01 3.503005e+03 
1.201200e-01 3.459449e+03 
1.213400e-01 3.413501e+03 
1.227100e-01 3.365286e+03 
1.238900e-01 3.325040e+03 
1.250700e-01 3.286406e+03 
1.263200e-01 3.246430e+03 
1.275500e-01 3.208002e+03 
1.287500e-01 3.171026e+03 
1.299900e-01 3.133138e+03 
1.311300e-01 3.098376e+03 
1.323500e-01 3.060924e+03 
1.335900e-01 3.022723e+03 
1.347100e-01 2.987646e+03 
1.359800e-01 2.947815e+03 
1.372100e-01 2.908269e+03 
1.384300e-01 2.869175e+03 
1.395700e-01 2.831666e+03 
1.407700e-01 2.792818e+03 
1.420300e-01 2.750917e+03 
1.432800e-01 2.710286e+03 
1.444500e-01 2.671693e+03 
1.456300e-01 2.633590e+03 
1.468900e-01 2.593548e+03 
1.480500e-01 2.557403e+03 
1.491700e-01 2.523407e+03 
1.503800e-01 2.487683e+03 
1.516400e-01 2.451500e+03 
1.528200e-01 2.419309e+03 
1.540200e-01 2.387224e+03 
1.551900e-01 2.357796e+03 
1.564300e-01 2.327519e+03 
1.576600e-01 2.298794e+03 
1.588700e-01 2.271935e+03 
1.600900e-01 2.245438e+03 
1.612700e-01 2.221533e+03 
1.625400e-01 2.196287e+03 
1.637600e-01 2.173001e+03 
1.649500e-01 2.150995e+03 
1.662200e-01 2.127986e+03 
1.674000e-01 2.107251e+03 
1.685000e-01 2.088244e+03 
1.697500e-01 2.066917e+03 
1.710300e-01 2.045379e+03 
1.722200e-01 2.025709e+03 
1.734400e-01 2.005365e+03 
1.746400e-01 1.985675e+03 
1.758700e-01 1.965622e+03 
1.770900e-01 1.945634e+03 
1.782700e-01 1.926625e+03 
1.794600e-01 1.907399e+03 
1.807000e-01 1.887453e+03 
1.819100e-01 1.868317e+03 
1.830100e-01 1.850825e+03 
1.842200e-01 1.831824e+03 
1.855000e-01 1.812053e+03 
1.867000e-01 1.793588e+03 
1.879200e-01 1.775121e+03 
1.890900e-01 1.757689e+03 
1.902800e-01 1.740216e+03 
1.915200e-01 1.722301e+03 
1.926900e-01 1.705696e+03 
1.939000e-01 1.688892e+03 
1.951700e-01 1.671537e+03 
1.963100e-01 1.656263e+03 
1.975100e-01 1.640592e+03 
1.987800e-01 1.624267e+03 
2.000100e-01 1.608785e+03 
2.012500e-01 1.593604e+03 
2.023400e-01 1.580452e+03 
2.036100e-01 1.565404e+03 
2.048900e-01 1.550682e+03 
2.060400e-01 1.537651e+03 
2.072200e-01 1.524482e+03 
2.084200e-01 1.511458e+03 
2.096900e-01 1.497877e+03 
2.109200e-01 1.484918e+03 
2.121100e-01 1.472653e+03 
2.132700e-01 1.460865e+03 
2.145200e-01 1.448341e+03 
2.157200e-01 1.436525e+03 
2.168800e-01 1.425275e+03 
2.180700e-01 1.413889e+03 
2.193400e-01 1.401897e+03 
2.206000e-01 1.390153e+03 
2.217500e-01 1.379579e+03 
2.229500e-01 1.368689e+03 
2.241400e-01 1.357991e+03 
2.253500e-01 1.347255e+03 
2.264900e-01 1.337271e+03 
2.277100e-01 1.326693e+03 
2.289900e-01 1.315711e+03 
2.301500e-01 1.305890e+03 
2.313600e-01 1.295776e+03 
2.325600e-01 1.285818e+03 
2.337700e-01 1.275907e+03 
2.350000e-01 1.265961e+03 
2.362000e-01 1.256363e+03 
2.374100e-01 1.246783e+03 
2.386500e-01 1.237090e+03 
2.399100e-01 1.227370e+03 
2.410400e-01 1.218757e+03 
2.422500e-01 1.209645e+03 
2.435000e-01 1.200350e+03 
2.447300e-01 1.191322e+03 
2.458700e-01 1.183066e+03 
2.470600e-01 1.174550e+03 
2.483300e-01 1.165573e+03 
2.495600e-01 1.157005e+03 
2.507600e-01 1.148771e+03 
2.519600e-01 1.140635e+03 
2.532200e-01 1.132195e+03 
2.543700e-01 1.124615e+03 
2.555500e-01 1.116948e+03 
2.568000e-01 1.108921e+03 
2.580100e-01 1.101244e+03 
2.592400e-01 1.093574e+03 
2.604100e-01 1.086380e+03 
2.616100e-01 1.079084e+03 
2.628400e-01 1.071692e+03 
2.640600e-01 1.064487e+03 
2.652200e-01 1.057729e+03 
2.664300e-01 1.050758e+03 
2.676500e-01 1.043808e+03 
2.688400e-01 1.037136e+03 
2.700700e-01 1.030334e+03 
2.712400e-01 1.023936e+03 
2.724800e-01 1.017229e+03 
2.736700e-01 1.010878e+03 
2.748800e-01 1.004505e+03 
2.761000e-01 9.981501e+02 
2.773200e-01 9.918639e+02 
2.785400e-01 9.856527e+02 
2.797000e-01 9.798230e+02 
2.808900e-01 9.739045e+02 
2.821400e-01 9.677541e+02 
2.833900e-01 9.616711e+02 
2.845500e-01 9.560910e+02 
2.857800e-01 9.502353e+02 
2.870300e-01 9.443480e+02 
2.882100e-01 9.388484e+02 
2.893900e-01 9.334087e+02 
2.906300e-01 9.277536e+02 
2.918900e-01 9.220682e+02 
2.930500e-01 9.168876e+02 
2.942500e-01 9.115799e+02 
2.954200e-01 9.064514e+02 
2.966500e-01 9.011138e+02 
2.978900e-01 8.957881e+02 
2.990400e-01 8.908977e+02 
3.002700e-01 8.857180e+02 
3.015100e-01 8.805488e+02 
3.026800e-01 8.757194e+02 
3.038500e-01 8.709361e+02 
3.050300e-01 8.661579e+02 
3.062600e-01 8.612239e+02 
3.075000e-01 8.562993e+02 
3.087000e-01 8.515801e+02 
3.099100e-01 8.468673e+02 
3.111200e-01 8.422015e+02 
3.123100e-01 8.376591e+02 
3.135300e-01 8.330465e+02 
3.147300e-01 8.285527e+02 
3.159900e-01 8.238795e+02 
3.171800e-01 8.195106e+02 
3.183700e-01 8.151835e+02 
3.196300e-01 8.106453e+02 
3.208400e-01 8.063287e+02 
3.220300e-01 8.021225e+02 
3.232000e-01 7.980341e+02 
3.244300e-01 7.937793e+02 
3.256700e-01 7.895300e+02 
3.269200e-01 7.852868e+02 
3.280800e-01 7.813848e+02 
3.292500e-01 7.774944e+02 
3.304800e-01 7.734446e+02 
3.317100e-01 7.694319e+02 
3.328900e-01 7.656167e+02 
3.340700e-01 7.618348e+02 
3.353600e-01 7.577527e+02 
3.365300e-01 7.540892e+02 
3.377100e-01 7.504262e+02 
3.389200e-01 7.467027e+02 
3.401600e-01 7.429208e+02 
3.413700e-01 7.392750e+02 
3.425300e-01 7.358178e+02 
3.437700e-01 7.321541e+02 
3.449800e-01 7.286102e+02 
3.461800e-01 7.251258e+02 
3.473600e-01 7.217359e+02 
3.485800e-01 7.182788e+02 
3.498100e-01 7.148234e+02 
3.510200e-01 7.114533e+02 
3.522000e-01 7.081942e+02 
3.533900e-01 7.049346e+02 
3.546400e-01 7.015604e+02 
3.558400e-01 6.983497e+02 
3.570600e-01 6.951127e+02 
3.582700e-01 6.919290e+02 
3.595000e-01 6.887197e+02 
3.607100e-01 6.856008e+02 
3.618900e-01 6.825932e+02 
3.631200e-01 6.794838e+02 
3.643200e-01 6.764751e+02 
3.655500e-01 6.734163e+02 
3.667300e-01 6.705056e+02 
3.679500e-01 6.675397e+02 
3.691900e-01 6.645499e+02 
3.703600e-01 6.617514e+02 
3.715700e-01 6.588800e+02 
3.727700e-01 6.560549e+02 
3.739900e-01 6.532135e+02 
3.752000e-01 6.504321e+02 
3.763900e-01 6.477181e+02 
3.775800e-01 6.450251e+02 
3.788200e-01 6.422411e+02 
3.800300e-01 6.395459e+02 
3.812100e-01 6.369448e+02 
3.824200e-01 6.343029e+02 
3.836100e-01 6.317247e+02 
3.848600e-01 6.290375e+02 
3.860400e-01 6.265203e+02 
3.872400e-01 6.239798e+02 
3.884600e-01 6.214285e+02 
3.896500e-01 6.189632e+02 
3.908700e-01 6.164548e+02 
3.920600e-01 6.140266e+02 
3.933100e-01 6.114953e+02 
3.945300e-01 6.090438e+02 
3.957200e-01 6.066787e+02 
3.969300e-01 6.042942e+02 
3.981700e-01 6.018689e+02 
3.993500e-01 5.995781e+02 
4.094840e-01 5.805813e+02 
4.272360e-01 5.501171e+02 
4.454600e-01 5.218906e+02 
4.630560e-01 4.971355e+02 
4.804610e-01 4.747288e+02 
4.980690e-01 4.539060e+02 
5.159230e-01 4.344848e+02 
5.317440e-01 4.185545e+02 
5.489640e-01 4.024673e+02 
5.671990e-01 3.867410e+02 
5.838690e-01 3.734104e+02 
6.018840e-01 3.600443e+02 
6.202330e-01 3.474467e+02 
6.379250e-01 3.361417e+02 
6.545410e-01 3.262533e+02 
6.714560e-01 3.168005e+02 
6.892080e-01 3.075194e+02 
7.066010e-01 2.989827e+02 
7.240540e-01 2.909093e+02 
7.420450e-01 2.830807e+02 
7.593780e-01 2.759510e+02 
7.764720e-01 2.692765e+02 
7.942840e-01 2.626748e+02 
8.116170e-01 2.565600e+02 
8.288310e-01 2.507654e+02 
8.462240e-01 2.451648e+02 
8.631980e-01 2.399260e+02 
8.810700e-01 2.346351e+02 
8.989410e-01 2.295583e+02 
9.166330e-01 2.247232e+02 
9.345640e-01 2.200035e+02 
9.515980e-01 2.156747e+02 
9.688720e-01 2.114309e+02 
9.865640e-01 2.072237e+02 
1.031870e+00 1.970622e+02 
1.063490e+00 1.904069e+02 
1.097920e+00 1.835832e+02 
1.134370e+00 1.767194e+02 
1.167730e+00 1.707782e+02 
1.203830e+00 1.646599e+02 
1.240470e+00 1.587865e+02 
1.275790e+00 1.533774e+02 
1.309140e+00 1.485260e+02 
1.342970e+00 1.437931e+02 
1.378420e+00 1.390808e+02 
1.413200e+00 1.346592e+02 
1.448110e+00 1.304020e+02 
1.484090e+00 1.262258e+02 
1.518820e+00 1.223506e+02 
1.552880e+00 1.187189e+02 
1.588630e+00 1.150535e+02 
1.623230e+00 1.116658e+02 
1.657720e+00 1.084216e+02 
1.692450e+00 1.053036e+02 
1.726400e+00 1.023483e+02 
1.762200e+00 9.935479e+01 
1.797880e+00 9.650139e+01 
1.833270e+00 9.377041e+01 
1.869070e+00 9.112678e+01 
1.903200e+00 8.869972e+01 
1.937740e+00 8.633175e+01 
1.973190e+00 8.398928e+01 
2.007440e+00 8.181179e+01 
2.042160e+00 7.969017e+01 
2.077900e+00 7.757292e+01 
2.112390e+00 7.561384e+01 
2.146220e+00 7.374245e+01 
2.181600e+00 7.186316e+01 
2.216930e+00 7.005306e+01 
2.250760e+00 6.837110e+01 
2.286500e+00 6.665232e+01 
2.321770e+00 6.502259e+01 
2.355950e+00 6.350269e+01 
2.391280e+00 6.197136e+01 
2.426240e+00 6.050462e+01 
2.460670e+00 5.910634e+01 
2.495640e+00 5.773193e+01 
2.531080e+00 5.638990e+01 
2.566220e+00 5.509416e+01 
2.600830e+00 5.385912e+01 
2.635080e+00 5.267878e+01 
2.670340e+00 5.149085e+01 
2.705970e+00 5.033249e+01 
2.740040e+00 4.926099e+01 
2.774520e+00 4.820682e+01 
2.809730e+00 4.716167e+01 
2.844390e+00 4.616335e+01 
2.879960e+00 4.516784e+01 
2.914860e+00 4.421917e+01 
2.949410e+00 4.330717e+01 
2.984440e+00 4.240754e+01 
3.019760e+00 4.152943e+01 
3.054730e+00 4.068655e+01 
3.089030e+00 3.987654e+01 
3.124060e+00 3.907429e+01 
3.159560e+00 3.828643e+01 
3.194710e+00 3.752337e+01 
3.229010e+00 3.679836e+01 
3.263320e+00 3.609522e+01 
3.297930e+00 3.540480e+01 
3.332830e+00 3.472636e+01 
3.368040e+00 3.405970e+01 
3.403300e+00 3.340965e+01 
3.438450e+00 3.277777e+01 
3.473060e+00 3.217186e+01 
3.508440e+00 3.157095e+01 
3.543110e+00 3.099693e+01 
3.577470e+00 3.043876e+01 
3.613040e+00 2.987632e+01 
3.648120e+00 2.933729e+01 
3.682910e+00 2.881590e+01 
3.718050e+00 2.830180e+01 
3.753320e+00 2.779832e+01 
3.787980e+00 2.731517e+01 
3.822290e+00 2.684923e+01 
3.857020e+00 2.639006e+01 
3.891920e+00 2.593847e+01 
3.926650e+00 2.549751e+01 
3.961970e+00 2.506029e+01 
3.997360e+00 2.463398e+01 
4.031670e+00 2.423020e+01 
4.066330e+00 2.383114e+01 
4.101420e+00 2.343647e+01 
4.136200e+00 2.305549e+01 
4.170810e+00 2.268491e+01 
4.206250e+00 2.231341e+01 
4.241580e+00 2.195134e+01 
4.276300e+00 2.160361e+01 
4.310970e+00 2.126407e+01 
4.346120e+00 2.092750e+01 
4.380600e+00 2.060471e+01 
4.414730e+00 2.029197e+01 
4.450350e+00 1.997270e+01 
4.485320e+00 1.966598e+01 
4.519810e+00 1.937010e+01 
4.555430e+00 1.907106e+01 
4.590870e+00 1.877995e+01 
4.625480e+00 1.850181e+01 
4.659910e+00 1.823072e+01 
4.695230e+00 1.795865e+01 
4.729960e+00 1.769660e+01 
4.764450e+00 1.744173e+01 
4.799530e+00 1.718793e+01 
4.834910e+00 1.693708e+01 
4.869700e+00 1.669569e+01 
4.904370e+00 1.645986e+01 
4.939450e+00 1.622601e+01 
4.973940e+00 1.600086e+01 
5.008430e+00 1.577997e+01 
5.043810e+00 1.555806e+01 
5.078840e+00 1.534273e+01 
5.113500e+00 1.513367e+01 
5.148890e+00 1.492462e+01 
5.184210e+00 1.471991e+01 
5.219060e+00 1.452182e+01 
5.253660e+00 1.432913e+01 
5.288570e+00 1.413824e+01 
5.323420e+00 1.395136e+01 
5.358440e+00 1.376722e+01 
5.393590e+00 1.358572e+01 
5.428310e+00 1.340997e+01 
5.462800e+00 1.323861e+01 
5.497640e+00 1.306852e+01 
5.532670e+00 1.290090e+01 
5.567280e+00 1.273828e+01 
5.602000e+00 1.257793e+01 
5.637270e+00 1.241821e+01 
5.672410e+00 1.226189e+01 
5.707020e+00 1.211054e+01 
5.742040e+00 1.196041e+01 
5.777430e+00 1.181134e+01 
5.812210e+00 1.166729e+01 
5.846820e+00 1.152661e+01 
5.881610e+00 1.138759e+01 
5.916510e+00 1.125041e+01 
5.951600e+00 1.111512e+01 
5.986560e+00 1.098269e+01 
6.021830e+00 1.085126e+01 
6.056490e+00 1.072439e+01 
6.091160e+00 1.059969e+01 
6.125830e+00 1.047695e+01 
6.161090e+00 1.035422e+01 
6.195760e+00 1.023570e+01 
6.230420e+00 1.011905e+01 
6.265690e+00 1.000221e+01 
6.300950e+00 9.887707e+00 
6.335620e+00 9.776848e+00 
6.370880e+00 9.665823e+00 
6.405550e+00 9.558553e+00 
6.440220e+00 9.452987e+00 
6.475480e+00 9.347238e+00 
6.510150e+00 9.244944e+00 
6.544810e+00 9.144487e+00 
6.580080e+00 9.043774e+00 
6.614750e+00 8.946230e+00 
6.649410e+00 8.850434e+00 
6.684080e+00 8.756054e+00 
6.719340e+00 8.661458e+00 
6.754010e+00 8.569892e+00 
6.788680e+00 8.479876e+00 
6.823940e+00 8.389635e+00 
6.859800e+00 8.299184e+00 
6.894470e+00 8.213219e+00 
6.929140e+00 8.128539e+00 
6.963800e+00 8.045057e+00 
6.999070e+00 7.961314e+00 
7.033730e+00 7.880501e+00 
7.068400e+00 7.800770e+00 
7.103660e+00 7.720795e+00 
7.138330e+00 7.643332e+00 
7.173600e+00 7.565806e+00 
7.208260e+00 7.490651e+00 
7.243530e+00 7.415204e+00 
7.277600e+00 7.343448e+00 
7.312860e+00 7.270311e+00 
7.348120e+00 7.198154e+00 
7.382790e+00 7.128142e+00 
7.417460e+00 7.059234e+00 
7.452720e+00 6.990170e+00 
7.487390e+00 6.923147e+00 
7.522650e+00 6.855869e+00 
7.557320e+00 6.790777e+00 
7.591990e+00 6.726593e+00 
7.627250e+00 6.662151e+00 
7.662510e+00 6.598539e+00 
7.697180e+00 6.536974e+00 
7.731850e+00 6.476254e+00 
7.766510e+00 6.416308e+00 
7.801180e+00 6.357090e+00 
7.836440e+00 6.297759e+00 
7.871110e+00 6.240233e+00 
7.906380e+00 6.182436e+00 
7.941040e+00 6.126339e+00 
7.976310e+00 6.070057e+00 
8.011570e+00 6.014606e+00 
8.046240e+00 5.960747e+00 
8.080900e+00 5.907549e+00 
8.115570e+00 5.855028e+00 
8.150830e+00 5.802463e+00 
8.185500e+00 5.751396e+00 
8.220770e+00 5.700063e+00 
8.255430e+00 5.650217e+00 
8.290100e+00 5.601105e+00 
8.324770e+00 5.552586e+00 
8.359430e+00 5.504643e+00 
8.394700e+00 5.456426e+00 
8.429960e+00 5.408894e+00 
8.464630e+00 5.362805e+00 
8.499890e+00 5.316472e+00 
8.534560e+00 5.271437e+00 
8.569200e+00 5.226951e+00 
