# Parameters:
# omega_b = 0.022445, omega_m = 0.145354, n_s = 1.002756, h = 55.236220, w = -1.000000, sigma_8 = 0.882677
# z = 0.700000
#
# k[1/Mpc] # P(k):
8.694000e-04 8.170793e+03 
2.077466e-03 1.803624e+04 
3.285532e-03 2.607709e+04 
4.493598e-03 3.250645e+04 
5.701664e-03 3.747241e+04 
6.909730e-03 4.116311e+04 
8.117797e-03 4.382465e+04 
9.325863e-03 4.558172e+04 
1.053393e-02 4.656653e+04 
1.174199e-02 4.690895e+04 
1.295006e-02 4.668823e+04 
1.415813e-02 4.602140e+04 
1.536619e-02 4.501410e+04 
1.657426e-02 4.375159e+04 
1.778233e-02 4.238608e+04 
1.899039e-02 4.108773e+04 
2.019846e-02 3.974873e+04 
2.140652e-02 3.829545e+04 
2.261459e-02 3.679093e+04 
2.382266e-02 3.530990e+04 
2.503072e-02 3.388800e+04 
2.623879e-02 3.253903e+04 
2.744685e-02 3.126626e+04 
2.865492e-02 3.008187e+04 
2.986299e-02 2.898592e+04 
3.100100e-02 2.803420e+04 
3.220400e-02 2.710972e+04 
3.288100e-02 2.662624e+04 
3.424300e-02 2.572692e+04 
3.555100e-02 2.494583e+04 
3.686000e-02 2.423714e+04 
3.795000e-02 2.369438e+04 
3.929100e-02 2.308010e+04 
4.039800e-02 2.260782e+04 
4.164000e-02 2.210767e+04 
4.294400e-02 2.160650e+04 
4.415000e-02 2.116082e+04 
4.542900e-02 2.069466e+04 
4.660900e-02 2.027207e+04 
4.782300e-02 1.983053e+04 
4.892900e-02 1.942823e+04 
5.031200e-02 1.891906e+04 
5.155900e-02 1.845072e+04 
5.238100e-02 1.813847e+04 
5.378200e-02 1.760144e+04 
5.513400e-02 1.707586e+04 
5.627600e-02 1.662857e+04 
5.735300e-02 1.620691e+04 
5.870100e-02 1.568197e+04 
5.988700e-02 1.522680e+04 
6.113500e-02 1.475657e+04 
6.225900e-02 1.434258e+04 
6.340100e-02 1.393382e+04 
6.480200e-02 1.345218e+04 
6.601100e-02 1.305543e+04 
6.725500e-02 1.266787e+04 
6.829100e-02 1.236326e+04 
6.958600e-02 1.200470e+04 
7.071100e-02 1.171504e+04 
7.192300e-02 1.142480e+04 
7.307400e-02 1.116995e+04 
7.412300e-02 1.095469e+04 
7.550400e-02 1.069645e+04 
7.663100e-02 1.050296e+04 
7.791200e-02 1.030458e+04 
7.912700e-02 1.013396e+04 
8.027600e-02 9.984785e+03 
8.138400e-02 9.849925e+03 
8.272200e-02 9.696888e+03 
8.406100e-02 9.551423e+03 
8.534100e-02 9.416280e+03 
8.653800e-02 9.289974e+03 
8.759800e-02 9.177610e+03 
8.900300e-02 9.026070e+03 
9.009000e-02 8.904986e+03 
9.113300e-02 8.784152e+03 
9.239600e-02 8.635116e+03 
9.358000e-02 8.490871e+03 
9.496100e-02 8.315924e+03 
9.608400e-02 8.171869e+03 
9.727500e-02 8.018707e+03 
9.852600e-02 7.853730e+03 
9.973800e-02 7.696033e+03 
1.009000e-01 7.547038e+03 
1.020900e-01 7.395821e+03 
1.034000e-01 7.234170e+03 
1.046000e-01 7.090412e+03 
1.057200e-01 6.961209e+03 
1.069100e-01 6.828488e+03 
1.082500e-01 6.686217e+03 
1.093900e-01 6.570999e+03 
1.105400e-01 6.459173e+03 
1.116900e-01 6.354356e+03 
1.129600e-01 6.243232e+03 
1.142000e-01 6.141790e+03 
1.153300e-01 6.053594e+03 
1.166400e-01 5.956905e+03 
1.177800e-01 5.877728e+03 
1.190000e-01 5.796372e+03 
1.201200e-01 5.726310e+03 
1.213400e-01 5.652303e+03 
1.227100e-01 5.574273e+03 
1.238900e-01 5.509150e+03 
1.250700e-01 5.446708e+03 
1.263200e-01 5.382245e+03 
1.275500e-01 5.320608e+03 
1.287500e-01 5.261633e+03 
1.299900e-01 5.201729e+03 
1.311300e-01 5.147196e+03 
1.323500e-01 5.089079e+03 
1.335900e-01 5.030277e+03 
1.347100e-01 4.976898e+03 
1.359800e-01 4.916631e+03 
1.372100e-01 4.857477e+03 
1.384300e-01 4.799198e+03 
1.395700e-01 4.743765e+03 
1.407700e-01 4.686361e+03 
1.420300e-01 4.624798e+03 
1.432800e-01 4.565055e+03 
1.444500e-01 4.508270e+03 
1.456300e-01 4.452160e+03 
1.468900e-01 4.392810e+03 
1.480500e-01 4.339091e+03 
1.491700e-01 4.288222e+03 
1.503800e-01 4.234338e+03 
1.516400e-01 4.179537e+03 
1.528200e-01 4.129939e+03 
1.540200e-01 4.080479e+03 
1.551900e-01 4.034248e+03 
1.564300e-01 3.986453e+03 
1.576600e-01 3.940652e+03 
1.588700e-01 3.897278e+03 
1.600900e-01 3.854441e+03 
1.612700e-01 3.815125e+03 
1.625400e-01 3.773595e+03 
1.637600e-01 3.735116e+03 
1.649500e-01 3.698648e+03 
1.662200e-01 3.660541e+03 
1.674000e-01 3.626351e+03 
1.685000e-01 3.595009e+03 
1.697500e-01 3.560097e+03 
1.710300e-01 3.525095e+03 
1.722200e-01 3.493126e+03 
1.734400e-01 3.460772e+03 
1.746400e-01 3.429483e+03 
1.758700e-01 3.397831e+03 
1.770900e-01 3.366714e+03 
1.782700e-01 3.337114e+03 
1.794600e-01 3.307494e+03 
1.807000e-01 3.276969e+03 
1.819100e-01 3.247675e+03 
1.830100e-01 3.221116e+03 
1.842200e-01 3.192293e+03 
1.855000e-01 3.162293e+03 
1.867000e-01 3.134335e+03 
1.879200e-01 3.106362e+03 
1.890900e-01 3.079931e+03 
1.902800e-01 3.053344e+03 
1.915200e-01 3.026072e+03 
1.926900e-01 3.000729e+03 
1.939000e-01 2.974890e+03 
1.951700e-01 2.948194e+03 
1.963100e-01 2.924617e+03 
1.975100e-01 2.900227e+03 
1.987800e-01 2.874809e+03 
2.000100e-01 2.850617e+03 
2.012500e-01 2.826705e+03 
2.023400e-01 2.805984e+03 
2.036100e-01 2.782223e+03 
2.048900e-01 2.758793e+03 
2.060400e-01 2.738047e+03 
2.072200e-01 2.717065e+03 
2.084200e-01 2.696163e+03 
2.096900e-01 2.674361e+03 
2.109200e-01 2.653554e+03 
2.121100e-01 2.633724e+03 
2.132700e-01 2.614656e+03 
2.145200e-01 2.594393e+03 
2.157200e-01 2.575178e+03 
2.168800e-01 2.556838e+03 
2.180700e-01 2.538272e+03 
2.193400e-01 2.518635e+03 
2.206000e-01 2.499251e+03 
2.217500e-01 2.481795e+03 
2.229500e-01 2.463816e+03 
2.241400e-01 2.445874e+03 
2.253500e-01 2.427860e+03 
2.264900e-01 2.411105e+03 
2.277100e-01 2.393156e+03 
2.289900e-01 2.374304e+03 
2.301500e-01 2.357443e+03 
2.313600e-01 2.340073e+03 
2.325600e-01 2.322537e+03 
2.337700e-01 2.305080e+03 
2.350000e-01 2.287564e+03 
2.362000e-01 2.270456e+03 
2.374100e-01 2.253143e+03 
2.386500e-01 2.235629e+03 
2.399100e-01 2.218063e+03 
2.410400e-01 2.202200e+03 
2.422500e-01 2.185381e+03 
2.435000e-01 2.168226e+03 
2.447300e-01 2.151525e+03 
2.458700e-01 2.136093e+03 
2.470600e-01 2.120176e+03 
2.483300e-01 2.103400e+03 
2.495600e-01 2.087378e+03 
2.507600e-01 2.071965e+03 
2.519600e-01 2.056737e+03 
2.532200e-01 2.040942e+03 
2.543700e-01 2.026845e+03 
2.555500e-01 2.012646e+03 
2.568000e-01 1.997782e+03 
2.580100e-01 1.983565e+03 
2.592400e-01 1.969561e+03 
2.604100e-01 1.956514e+03 
2.616100e-01 1.943284e+03 
2.628400e-01 1.929879e+03 
2.640600e-01 1.917063e+03 
2.652200e-01 1.905141e+03 
2.664300e-01 1.892843e+03 
2.676500e-01 1.880582e+03 
2.688400e-01 1.869027e+03 
2.700700e-01 1.857385e+03 
2.712400e-01 1.846431e+03 
2.724800e-01 1.834948e+03 
2.736700e-01 1.824225e+03 
2.748800e-01 1.813619e+03 
2.761000e-01 1.803040e+03 
2.773200e-01 1.792576e+03 
2.785400e-01 1.782310e+03 
2.797000e-01 1.772829e+03 
2.808900e-01 1.763202e+03 
2.821400e-01 1.753198e+03 
2.833900e-01 1.743308e+03 
2.845500e-01 1.734389e+03 
2.857800e-01 1.725029e+03 
2.870300e-01 1.715617e+03 
2.882100e-01 1.706823e+03 
2.893900e-01 1.698197e+03 
2.906300e-01 1.689267e+03 
2.918900e-01 1.680288e+03 
2.930500e-01 1.672105e+03 
2.942500e-01 1.663734e+03 
2.954200e-01 1.655687e+03 
2.966500e-01 1.647311e+03 
2.978900e-01 1.638953e+03 
2.990400e-01 1.631277e+03 
3.002700e-01 1.623170e+03 
3.015100e-01 1.615091e+03 
3.026800e-01 1.607542e+03 
3.038500e-01 1.600064e+03 
3.050300e-01 1.592594e+03 
3.062600e-01 1.584895e+03 
3.075000e-01 1.577211e+03 
3.087000e-01 1.569846e+03 
3.099100e-01 1.562490e+03 
3.111200e-01 1.555209e+03 
3.123100e-01 1.548123e+03 
3.135300e-01 1.540926e+03 
3.147300e-01 1.533915e+03 
3.159900e-01 1.526622e+03 
3.171800e-01 1.519802e+03 
3.183700e-01 1.513044e+03 
3.196300e-01 1.505957e+03 
3.208400e-01 1.499214e+03 
3.220300e-01 1.492644e+03 
3.232000e-01 1.486250e+03 
3.244300e-01 1.479593e+03 
3.256700e-01 1.472943e+03 
3.269200e-01 1.466303e+03 
3.280800e-01 1.460196e+03 
3.292500e-01 1.454101e+03 
3.304800e-01 1.447752e+03 
3.317100e-01 1.441462e+03 
3.328900e-01 1.435480e+03 
3.340700e-01 1.429550e+03 
3.353600e-01 1.423136e+03 
3.365300e-01 1.417374e+03 
3.377100e-01 1.411613e+03 
3.389200e-01 1.405756e+03 
3.401600e-01 1.399807e+03 
3.413700e-01 1.394060e+03 
3.425300e-01 1.388603e+03 
3.437700e-01 1.382819e+03 
3.449800e-01 1.377224e+03 
3.461800e-01 1.371723e+03 
3.473600e-01 1.366365e+03 
3.485800e-01 1.360889e+03 
3.498100e-01 1.355415e+03 
3.510200e-01 1.350076e+03 
3.522000e-01 1.344913e+03 
3.533900e-01 1.339748e+03 
3.546400e-01 1.334378e+03 
3.558400e-01 1.329266e+03 
3.570600e-01 1.324113e+03 
3.582700e-01 1.319044e+03 
3.595000e-01 1.313934e+03 
3.607100e-01 1.308957e+03 
3.618900e-01 1.304149e+03 
3.631200e-01 1.299178e+03 
3.643200e-01 1.294367e+03 
3.655500e-01 1.289477e+03 
3.667300e-01 1.284824e+03 
3.679500e-01 1.280056e+03 
3.691900e-01 1.275249e+03 
3.703600e-01 1.270750e+03 
3.715700e-01 1.266134e+03 
3.727700e-01 1.261593e+03 
3.739900e-01 1.257018e+03 
3.752000e-01 1.252528e+03 
3.763900e-01 1.248146e+03 
3.775800e-01 1.243799e+03 
3.788200e-01 1.239304e+03 
3.800300e-01 1.234953e+03 
3.812100e-01 1.230740e+03 
3.824200e-01 1.226451e+03 
3.836100e-01 1.222266e+03 
3.848600e-01 1.217904e+03 
3.860400e-01 1.213818e+03 
3.872400e-01 1.209695e+03 
3.884600e-01 1.205542e+03 
3.896500e-01 1.201525e+03 
3.908700e-01 1.197438e+03 
3.920600e-01 1.193482e+03 
3.933100e-01 1.189358e+03 
3.945300e-01 1.185364e+03 
3.957200e-01 1.181487e+03 
3.969300e-01 1.177571e+03 
3.981700e-01 1.173589e+03 
3.993500e-01 1.169827e+03 
4.094840e-01 1.138566e+03 
4.272360e-01 1.088019e+03 
4.454600e-01 1.040742e+03 
4.630560e-01 9.989052e+02 
4.804610e-01 9.608158e+02 
4.980690e-01 9.251722e+02 
5.159230e-01 8.917894e+02 
5.317440e-01 8.642658e+02 
5.489640e-01 8.363621e+02 
5.671990e-01 8.089567e+02 
5.838690e-01 7.856257e+02 
6.018840e-01 7.621286e+02 
6.202330e-01 7.397942e+02 
6.379250e-01 7.196720e+02 
6.545410e-01 7.019158e+02 
6.714560e-01 6.848119e+02 
6.892080e-01 6.679067e+02 
7.066010e-01 6.521647e+02 
7.240540e-01 6.371447e+02 
7.420450e-01 6.224082e+02 
7.593780e-01 6.088472e+02 
7.764720e-01 5.960145e+02 
7.942840e-01 5.831710e+02 
8.116170e-01 5.710958e+02 
8.288310e-01 5.595279e+02 
8.462240e-01 5.482231e+02 
8.631980e-01 5.375215e+02 
8.810700e-01 5.265943e+02 
8.989410e-01 5.159941e+02 
9.166330e-01 5.057862e+02 
9.345640e-01 4.957034e+02 
9.515980e-01 4.863697e+02 
9.688720e-01 4.771300e+02 
9.865640e-01 4.678744e+02 
1.031870e+00 4.452626e+02 
1.063490e+00 4.301888e+02 
1.097920e+00 4.145620e+02 
1.134370e+00 3.986890e+02 
1.167730e+00 3.848087e+02 
1.203830e+00 3.704163e+02 
1.240470e+00 3.565112e+02 
1.275790e+00 3.436439e+02 
1.309140e+00 3.320677e+02 
1.342970e+00 3.207219e+02 
1.378420e+00 3.094158e+02 
1.413200e+00 2.987894e+02 
1.448110e+00 2.885408e+02 
1.484090e+00 2.784843e+02 
1.518820e+00 2.691609e+02 
1.552880e+00 2.604254e+02 
1.588630e+00 2.516272e+02 
1.623230e+00 2.434985e+02 
1.657720e+00 2.357270e+02 
1.692450e+00 2.282668e+02 
1.726400e+00 2.212092e+02 
1.762200e+00 2.140714e+02 
1.797880e+00 2.072899e+02 
1.833270e+00 2.008184e+02 
1.869070e+00 1.945615e+02 
1.903200e+00 1.888348e+02 
1.937740e+00 1.832646e+02 
1.973190e+00 1.777629e+02 
2.007440e+00 1.726696e+02 
2.042160e+00 1.677154e+02 
2.077900e+00 1.627896e+02 
2.112390e+00 1.582435e+02 
2.146220e+00 1.539185e+02 
2.181600e+00 1.495800e+02 
2.216930e+00 1.454189e+02 
2.250760e+00 1.415633e+02 
2.286500e+00 1.376345e+02 
2.321770e+00 1.339226e+02 
2.355950e+00 1.304694e+02 
2.391280e+00 1.269981e+02 
2.426240e+00 1.236865e+02 
2.460670e+00 1.205398e+02 
2.495640e+00 1.174545e+02 
2.531080e+00 1.144497e+02 
2.566220e+00 1.115617e+02 
2.600830e+00 1.088167e+02 
2.635080e+00 1.061987e+02 
2.670340e+00 1.035738e+02 
2.705970e+00 1.010222e+02 
2.740040e+00 9.866782e+01 
2.774520e+00 9.635574e+01 
2.809730e+00 9.407191e+01 
2.844390e+00 9.189647e+01 
2.879960e+00 8.973419e+01 
2.914860e+00 8.768020e+01 
2.949410e+00 8.571027e+01 
2.984440e+00 8.377357e+01 
3.019760e+00 8.188758e+01 
3.054730e+00 8.008079e+01 
3.089030e+00 7.835223e+01 
3.124060e+00 7.664355e+01 
3.159560e+00 7.496952e+01 
3.194710e+00 7.335394e+01 
3.229010e+00 7.182187e+01 
3.263320e+00 7.034094e+01 
3.297930e+00 6.888952e+01 
3.332830e+00 6.746745e+01 
3.368040e+00 6.607360e+01 
3.403300e+00 6.471734e+01 
3.438450e+00 6.340367e+01 
3.473060e+00 6.214586e+01 
3.508440e+00 6.090248e+01 
3.543110e+00 5.971634e+01 
3.577470e+00 5.856742e+01 
3.613040e+00 5.741138e+01 
3.648120e+00 5.630642e+01 
3.682910e+00 5.523951e+01 
3.718050e+00 5.419041e+01 
3.753320e+00 5.316507e+01 
3.787980e+00 5.218372e+01 
3.822290e+00 5.123895e+01 
3.857020e+00 5.031002e+01 
3.891920e+00 4.939811e+01 
3.926650e+00 4.851023e+01 
3.961970e+00 4.763115e+01 
3.997360e+00 4.677627e+01 
4.031670e+00 4.596752e+01 
4.066330e+00 4.517070e+01 
4.101420e+00 4.438315e+01 
4.136200e+00 4.362523e+01 
4.170810e+00 4.288839e+01 
4.206250e+00 4.215207e+01 
4.241580e+00 4.143514e+01 
4.276300e+00 4.074825e+01 
4.310970e+00 4.007857e+01 
4.346120e+00 3.941572e+01 
4.380600e+00 3.878146e+01 
4.414730e+00 3.816724e+01 
4.450350e+00 3.754224e+01 
4.485320e+00 3.694205e+01 
4.519810e+00 3.636446e+01 
4.555430e+00 3.578148e+01 
4.590870e+00 3.521462e+01 
4.625480e+00 3.467415e+01 
4.659910e+00 3.414757e+01 
4.695230e+00 3.362051e+01 
4.729960e+00 3.311324e+01 
4.764450e+00 3.262046e+01 
4.799530e+00 3.213070e+01 
4.834910e+00 3.164677e+01 
4.869700e+00 3.118225e+01 
4.904370e+00 3.072876e+01 
4.939450e+00 3.027948e+01 
4.973940e+00 2.984781e+01 
5.008430e+00 2.942442e+01 
5.043810e+00 2.899980e+01 
5.078840e+00 2.858825e+01 
5.113500e+00 2.818877e+01 
5.148890e+00 2.779024e+01 
5.184210e+00 2.740012e+01 
5.219060e+00 2.702287e+01 
5.253660e+00 2.665655e+01 
5.288570e+00 2.629371e+01 
5.323420e+00 2.593894e+01 
5.358440e+00 2.558982e+01 
5.393590e+00 2.524576e+01 
5.428310e+00 2.491307e+01 
5.462800e+00 2.458899e+01 
5.497640e+00 2.426736e+01 
5.532670e+00 2.395085e+01 
5.567280e+00 2.364397e+01 
5.602000e+00 2.334141e+01 
5.637270e+00 2.304051e+01 
5.672410e+00 2.274615e+01 
5.707020e+00 2.246117e+01 
5.742040e+00 2.217889e+01 
5.777430e+00 2.189872e+01 
5.812210e+00 2.162802e+01 
5.846820e+00 2.136395e+01 
5.881610e+00 2.110310e+01 
5.916510e+00 2.084573e+01 
5.951600e+00 2.059214e+01 
5.986560e+00 2.034404e+01 
6.021830e+00 2.009781e+01 
6.056490e+00 1.986033e+01 
6.091160e+00 1.962706e+01 
6.125830e+00 1.939747e+01 
6.161090e+00 1.916796e+01 
6.195760e+00 1.894649e+01 
6.230420e+00 1.872852e+01 
6.265690e+00 1.851021e+01 
6.300950e+00 1.829649e+01 
6.335620e+00 1.808958e+01 
6.370880e+00 1.788238e+01 
6.405550e+00 1.768227e+01 
6.440220e+00 1.748538e+01 
6.475480e+00 1.728817e+01 
6.510150e+00 1.709744e+01 
6.544810e+00 1.691023e+01 
6.580080e+00 1.672255e+01 
6.614750e+00 1.654079e+01 
6.649410e+00 1.636235e+01 
6.684080e+00 1.618657e+01 
6.719340e+00 1.601039e+01 
6.754010e+00 1.583987e+01 
6.788680e+00 1.567225e+01 
6.823940e+00 1.550422e+01 
6.859800e+00 1.533580e+01 
6.894470e+00 1.517577e+01 
6.929140e+00 1.501814e+01 
6.963800e+00 1.486275e+01 
6.999070e+00 1.470688e+01 
7.033730e+00 1.455645e+01 
7.068400e+00 1.440804e+01 
7.103660e+00 1.425919e+01 
7.138330e+00 1.411501e+01 
7.173600e+00 1.397070e+01 
7.208260e+00 1.383081e+01 
7.243530e+00 1.369039e+01 
7.277600e+00 1.355681e+01 
7.312860e+00 1.342063e+01 
7.348120e+00 1.328629e+01 
7.382790e+00 1.315595e+01 
7.417460e+00 1.302763e+01 
7.452720e+00 1.289901e+01 
7.487390e+00 1.277420e+01 
7.522650e+00 1.264892e+01 
7.557320e+00 1.252765e+01 
7.591990e+00 1.240804e+01 
7.627250e+00 1.228797e+01 
7.662510e+00 1.216945e+01 
7.697180e+00 1.205469e+01 
7.731850e+00 1.194149e+01 
7.766510e+00 1.182974e+01 
7.801180e+00 1.171936e+01 
7.836440e+00 1.160871e+01 
7.871110e+00 1.150141e+01 
7.906380e+00 1.139360e+01 
7.941040e+00 1.128897e+01 
7.976310e+00 1.118395e+01 
8.011570e+00 1.108043e+01 
8.046240e+00 1.097989e+01 
8.080900e+00 1.088059e+01 
8.115570e+00 1.078254e+01 
8.150830e+00 1.068434e+01 
8.185500e+00 1.058895e+01 
8.220770e+00 1.049307e+01 
8.255430e+00 1.039997e+01 
8.290100e+00 1.030813e+01 
8.324770e+00 1.021740e+01 
8.359430e+00 1.012776e+01 
8.394700e+00 1.003761e+01 
8.429960e+00 9.948692e+00 
8.464630e+00 9.862422e+00 
8.499890e+00 9.775705e+00 
8.534560e+00 9.691425e+00 
8.569200e+00 9.608182e+00 
