# Parameters:
# omega_b = 0.022366, omega_m = 0.146457, n_s = 0.979134, h = 67.283465, w = -1.000000, sigma_8 = 0.860630
# z = 0.900000
#
# k[1/Mpc] # P(k):
8.694000e-04 5.975438e+03 
2.077466e-03 1.297667e+04 
3.285532e-03 1.856170e+04 
4.493598e-03 2.295583e+04 
5.701664e-03 2.630225e+04 
6.909730e-03 2.875316e+04 
8.117797e-03 3.049263e+04 
9.325863e-03 3.161445e+04 
1.053393e-02 3.221465e+04 
1.174199e-02 3.238375e+04 
1.295006e-02 3.217947e+04 
1.415813e-02 3.168198e+04 
1.536619e-02 3.095970e+04 
1.657426e-02 3.005847e+04 
1.778233e-02 2.900919e+04 
1.899039e-02 2.787028e+04 
2.019846e-02 2.669936e+04 
2.140652e-02 2.554349e+04 
2.261459e-02 2.441331e+04 
2.382266e-02 2.332676e+04 
2.503072e-02 2.229990e+04 
2.623879e-02 2.133996e+04 
2.744685e-02 2.045014e+04 
2.865492e-02 1.963473e+04 
2.986299e-02 1.889214e+04 
3.100100e-02 1.825821e+04 
3.220400e-02 1.765317e+04 
3.288100e-02 1.734152e+04 
3.424300e-02 1.677069e+04 
3.555100e-02 1.628349e+04 
3.686000e-02 1.584886e+04 
3.795000e-02 1.551992e+04 
3.929100e-02 1.515079e+04 
4.039800e-02 1.486737e+04 
4.164000e-02 1.456567e+04 
4.294400e-02 1.425803e+04 
4.415000e-02 1.397955e+04 
4.542900e-02 1.367916e+04 
4.660900e-02 1.340034e+04 
4.782300e-02 1.309832e+04 
4.892900e-02 1.281725e+04 
5.031200e-02 1.245267e+04 
5.155900e-02 1.211022e+04 
5.238100e-02 1.187934e+04 
5.378200e-02 1.147895e+04 
5.513400e-02 1.108515e+04 
5.627600e-02 1.075031e+04 
5.735300e-02 1.043630e+04 
5.870100e-02 1.004893e+04 
5.988700e-02 9.717301e+03 
6.113500e-02 9.379735e+03 
6.225900e-02 9.087936e+03 
6.340100e-02 8.805537e+03 
6.480200e-02 8.479544e+03 
6.601100e-02 8.218327e+03 
6.725500e-02 7.969512e+03 
6.829100e-02 7.779358e+03 
6.958600e-02 7.559838e+03 
7.071100e-02 7.387064e+03 
7.192300e-02 7.217641e+03 
7.307400e-02 7.071701e+03 
7.412300e-02 6.950232e+03 
7.550400e-02 6.806584e+03 
7.663100e-02 6.699649e+03 
7.791200e-02 6.590030e+03 
7.912700e-02 6.494576e+03 
8.027600e-02 6.409446e+03 
8.138400e-02 6.330654e+03 
8.272200e-02 6.238223e+03 
8.406100e-02 6.146790e+03 
8.534100e-02 6.057722e+03 
8.653800e-02 5.971387e+03 
8.759800e-02 5.892947e+03 
8.900300e-02 5.784986e+03 
9.009000e-02 5.697408e+03 
9.113300e-02 5.609388e+03 
9.239600e-02 5.500535e+03 
9.358000e-02 5.395134e+03 
9.496100e-02 5.267872e+03 
9.608400e-02 5.163639e+03 
9.727500e-02 5.053329e+03 
9.852600e-02 4.935776e+03 
9.973800e-02 4.824229e+03 
1.009000e-01 4.719524e+03 
1.020900e-01 4.614987e+03 
1.034000e-01 4.504262e+03 
1.046000e-01 4.406852e+03 
1.057200e-01 4.321150e+03 
1.069100e-01 4.233860e+03 
1.082500e-01 4.142404e+03 
1.093900e-01 4.069765e+03 
1.105400e-01 4.000101e+03 
1.116900e-01 3.936641e+03 
1.129600e-01 3.869966e+03 
1.142000e-01 3.810589e+03 
1.153300e-01 3.759398e+03 
1.166400e-01 3.703972e+03 
1.177800e-01 3.658797e+03 
1.190000e-01 3.612481e+03 
1.201200e-01 3.572157e+03 
1.213400e-01 3.529480e+03 
1.227100e-01 3.483163e+03 
1.238900e-01 3.444111e+03 
1.250700e-01 3.405331e+03 
1.263200e-01 3.364696e+03 
1.275500e-01 3.324505e+03 
1.287500e-01 3.285366e+03 
1.299900e-01 3.244534e+03 
1.311300e-01 3.206838e+03 
1.323500e-01 3.165888e+03 
1.335900e-01 3.124162e+03 
1.347100e-01 3.085905e+03 
1.359800e-01 3.042656e+03 
1.372100e-01 3.000084e+03 
1.384300e-01 2.958250e+03 
1.395700e-01 2.918683e+03 
1.407700e-01 2.877794e+03 
1.420300e-01 2.834567e+03 
1.432800e-01 2.792651e+03 
1.444500e-01 2.753676e+03 
1.456300e-01 2.715190e+03 
1.468900e-01 2.675243e+03 
1.480500e-01 2.639323e+03 
1.491700e-01 2.605713e+03 
1.503800e-01 2.570619e+03 
1.516400e-01 2.535097e+03 
1.528200e-01 2.503641e+03 
1.540200e-01 2.472280e+03 
1.551900e-01 2.443546e+03 
1.564300e-01 2.413986e+03 
1.576600e-01 2.385881e+03 
1.588700e-01 2.359535e+03 
1.600900e-01 2.333526e+03 
1.612700e-01 2.309844e+03 
1.625400e-01 2.284829e+03 
1.637600e-01 2.261575e+03 
1.649500e-01 2.239490e+03 
1.662200e-01 2.216353e+03 
1.674000e-01 2.195260e+03 
1.685000e-01 2.175924e+03 
1.697500e-01 2.154108e+03 
1.710300e-01 2.131959e+03 
1.722200e-01 2.111730e+03 
1.734400e-01 2.090646e+03 
1.746400e-01 2.070233e+03 
1.758700e-01 2.049426e+03 
1.770900e-01 2.028647e+03 
1.782700e-01 2.008886e+03 
1.794600e-01 1.988916e+03 
1.807000e-01 1.968209e+03 
1.819100e-01 1.948343e+03 
1.830100e-01 1.930247e+03 
1.842200e-01 1.910600e+03 
1.855000e-01 1.890161e+03 
1.867000e-01 1.871178e+03 
1.879200e-01 1.852193e+03 
1.890900e-01 1.834290e+03 
1.902800e-01 1.816446e+03 
1.915200e-01 1.798148e+03 
1.926900e-01 1.781216e+03 
1.939000e-01 1.764172e+03 
1.951700e-01 1.746568e+03 
1.963100e-01 1.731089e+03 
1.975100e-01 1.715251e+03 
1.987800e-01 1.698749e+03 
2.000100e-01 1.683114e+03 
2.012500e-01 1.667819e+03 
2.023400e-01 1.654567e+03 
2.036100e-01 1.639401e+03 
2.048900e-01 1.624547e+03 
2.060400e-01 1.611397e+03 
2.072200e-01 1.598105e+03 
2.084200e-01 1.584925e+03 
2.096900e-01 1.571181e+03 
2.109200e-01 1.558064e+03 
2.121100e-01 1.545587e+03 
2.132700e-01 1.533592e+03 
2.145200e-01 1.520846e+03 
2.157200e-01 1.508771e+03 
2.168800e-01 1.497251e+03 
2.180700e-01 1.485590e+03 
2.193400e-01 1.473281e+03 
2.206000e-01 1.461175e+03 
2.217500e-01 1.450274e+03 
2.229500e-01 1.439047e+03 
2.241400e-01 1.427955e+03 
2.253500e-01 1.416823e+03 
2.264900e-01 1.406469e+03 
2.277100e-01 1.395469e+03 
2.289900e-01 1.384016e+03 
2.301500e-01 1.373773e+03 
2.313600e-01 1.363223e+03 
2.325600e-01 1.352789e+03 
2.337700e-01 1.342403e+03 
2.350000e-01 1.331982e+03 
2.362000e-01 1.321913e+03 
2.374100e-01 1.311850e+03 
2.386500e-01 1.301669e+03 
2.399100e-01 1.291459e+03 
2.410400e-01 1.282384e+03 
2.422500e-01 1.272779e+03 
2.435000e-01 1.262982e+03 
2.447300e-01 1.253466e+03 
2.458700e-01 1.244764e+03 
2.470600e-01 1.235788e+03 
2.483300e-01 1.226327e+03 
2.495600e-01 1.217296e+03 
2.507600e-01 1.208618e+03 
2.519600e-01 1.200044e+03 
2.532200e-01 1.191149e+03 
2.543700e-01 1.183175e+03 
2.555500e-01 1.175120e+03 
2.568000e-01 1.166686e+03 
2.580100e-01 1.158620e+03 
2.592400e-01 1.150583e+03 
2.604100e-01 1.143056e+03 
2.616100e-01 1.135422e+03 
2.628400e-01 1.127688e+03 
2.640600e-01 1.120171e+03 
2.652200e-01 1.113129e+03 
2.664300e-01 1.105865e+03 
2.676500e-01 1.098624e+03 
2.688400e-01 1.091693e+03 
2.700700e-01 1.084642e+03 
2.712400e-01 1.078009e+03 
2.724800e-01 1.071056e+03 
2.736700e-01 1.064489e+03 
2.748800e-01 1.057916e+03 
2.761000e-01 1.051361e+03 
2.773200e-01 1.044877e+03 
2.785400e-01 1.038479e+03 
2.797000e-01 1.032491e+03 
2.808900e-01 1.026412e+03 
2.821400e-01 1.020095e+03 
2.833900e-01 1.013847e+03 
2.845500e-01 1.008134e+03 
2.857800e-01 1.002139e+03 
2.870300e-01 9.961113e+02 
2.882100e-01 9.904800e+02 
2.893900e-01 9.849183e+02 
2.906300e-01 9.791406e+02 
2.918900e-01 9.733316e+02 
2.930500e-01 9.680381e+02 
2.942500e-01 9.626172e+02 
2.954200e-01 9.573871e+02 
2.966500e-01 9.519437e+02 
2.978900e-01 9.465120e+02 
2.990400e-01 9.415241e+02 
3.002700e-01 9.362434e+02 
3.015100e-01 9.309745e+02 
3.026800e-01 9.260518e+02 
3.038500e-01 9.211758e+02 
3.050300e-01 9.163047e+02 
3.062600e-01 9.112780e+02 
3.075000e-01 9.062605e+02 
3.087000e-01 9.014521e+02 
3.099100e-01 8.966501e+02 
3.111200e-01 8.918960e+02 
3.123100e-01 8.872684e+02 
3.135300e-01 8.825689e+02 
3.147300e-01 8.779902e+02 
3.159900e-01 8.732286e+02 
3.171800e-01 8.687774e+02 
3.183700e-01 8.643693e+02 
3.196300e-01 8.597458e+02 
3.208400e-01 8.553479e+02 
3.220300e-01 8.510623e+02 
3.232000e-01 8.468925e+02 
3.244300e-01 8.425511e+02 
3.256700e-01 8.382151e+02 
3.269200e-01 8.338852e+02 
3.280800e-01 8.299033e+02 
3.292500e-01 8.259316e+02 
3.304800e-01 8.217966e+02 
3.317100e-01 8.176992e+02 
3.328900e-01 8.138034e+02 
3.340700e-01 8.099414e+02 
3.353600e-01 8.057677e+02 
3.365300e-01 8.020201e+02 
3.377100e-01 7.982728e+02 
3.389200e-01 7.944635e+02 
3.401600e-01 7.905942e+02 
3.413700e-01 7.868630e+02 
3.425300e-01 7.833240e+02 
3.437700e-01 7.795733e+02 
3.449800e-01 7.759453e+02 
3.461800e-01 7.723781e+02 
3.473600e-01 7.689049e+02 
3.485800e-01 7.653569e+02 
3.498100e-01 7.618106e+02 
3.510200e-01 7.583516e+02 
3.522000e-01 7.550065e+02 
3.533900e-01 7.516608e+02 
3.546400e-01 7.481923e+02 
3.558400e-01 7.448916e+02 
3.570600e-01 7.415637e+02 
3.582700e-01 7.382906e+02 
3.595000e-01 7.349911e+02 
3.607100e-01 7.317812e+02 
3.618900e-01 7.286835e+02 
3.631200e-01 7.254808e+02 
3.643200e-01 7.223817e+02 
3.655500e-01 7.192311e+02 
3.667300e-01 7.162328e+02 
3.679500e-01 7.131741e+02 
3.691900e-01 7.100907e+02 
3.703600e-01 7.072045e+02 
3.715700e-01 7.042431e+02 
3.727700e-01 7.013294e+02 
3.739900e-01 6.983969e+02 
3.752000e-01 6.955231e+02 
3.763900e-01 6.927189e+02 
3.775800e-01 6.899363e+02 
3.788200e-01 6.870595e+02 
3.800300e-01 6.842746e+02 
3.812100e-01 6.815852e+02 
3.824200e-01 6.788523e+02 
3.836100e-01 6.761853e+02 
3.848600e-01 6.734055e+02 
3.860400e-01 6.708016e+02 
3.872400e-01 6.681735e+02 
3.884600e-01 6.655314e+02 
3.896500e-01 6.629773e+02 
3.908700e-01 6.603786e+02 
3.920600e-01 6.578628e+02 
3.933100e-01 6.552403e+02 
3.945300e-01 6.527004e+02 
3.957200e-01 6.502490e+02 
3.969300e-01 6.477770e+02 
3.981700e-01 6.452629e+02 
3.993500e-01 6.428881e+02 
4.094840e-01 6.231743e+02 
4.272360e-01 5.915318e+02 
4.454600e-01 5.621944e+02 
4.630560e-01 5.364438e+02 
4.804610e-01 5.131285e+02 
4.980690e-01 4.914448e+02 
5.159230e-01 4.712028e+02 
5.317440e-01 4.545791e+02 
5.489640e-01 4.377694e+02 
5.671990e-01 4.213100e+02 
5.838690e-01 4.073430e+02 
6.018840e-01 3.933093e+02 
6.202330e-01 3.800480e+02 
6.379250e-01 3.681466e+02 
6.545410e-01 3.577172e+02 
6.714560e-01 3.477337e+02 
6.892080e-01 3.379234e+02 
7.066010e-01 3.288879e+02 
7.240540e-01 3.203485e+02 
7.420450e-01 3.120514e+02 
7.593780e-01 3.044924e+02 
7.764720e-01 2.974146e+02 
7.942840e-01 2.904123e+02 
8.116170e-01 2.839204e+02 
8.288310e-01 2.777670e+02 
8.462240e-01 2.718166e+02 
8.631980e-01 2.662456e+02 
8.810700e-01 2.606195e+02 
8.989410e-01 2.552194e+02 
9.166330e-01 2.500733e+02 
9.345640e-01 2.450486e+02 
9.515980e-01 2.404356e+02 
9.688720e-01 2.359098e+02 
9.865640e-01 2.314174e+02 
1.031870e+00 2.205569e+02 
1.063490e+00 2.134387e+02 
1.097920e+00 2.061056e+02 
1.134370e+00 1.987362e+02 
1.167730e+00 1.923362e+02 
1.203830e+00 1.857284e+02 
1.240470e+00 1.793662e+02 
1.275790e+00 1.734990e+02 
1.309140e+00 1.682288e+02 
1.342970e+00 1.630755e+02 
1.378420e+00 1.579295e+02 
1.413200e+00 1.530875e+02 
1.448110e+00 1.484238e+02 
1.484090e+00 1.438315e+02 
1.518820e+00 1.395738e+02 
1.552880e+00 1.355627e+02 
1.588630e+00 1.315185e+02 
1.623230e+00 1.277655e+02 
1.657720e+00 1.241686e+02 
1.692450e+00 1.206955e+02 
1.726400e+00 1.174101e+02 
1.762200e+00 1.140753e+02 
1.797880e+00 1.108879e+02 
1.833270e+00 1.078393e+02 
1.869070e+00 1.048744e+02 
1.903200e+00 1.021527e+02 
1.937740e+00 9.949510e+01 
1.973190e+00 9.686110e+01 
2.007440e+00 9.440960e+01 
2.042160e+00 9.201352e+01 
2.077900e+00 8.962637e+01 
2.112390e+00 8.740994e+01 
2.146220e+00 8.529806e+01 
2.181600e+00 8.316759e+01 
2.216930e+00 8.111408e+01 
2.250760e+00 7.920922e+01 
2.286500e+00 7.726175e+01 
2.321770e+00 7.540769e+01 
2.355950e+00 7.367165e+01 
2.391280e+00 7.192749e+01 
2.426240e+00 7.025731e+01 
2.460670e+00 6.866484e+01 
2.495640e+00 6.709837e+01 
2.531080e+00 6.555962e+01 
2.566220e+00 6.407948e+01 
2.600830e+00 6.266750e+01 
2.635080e+00 6.131434e+01 
2.670340e+00 5.995782e+01 
2.705970e+00 5.863065e+01 
2.740040e+00 5.740014e+01 
2.774520e+00 5.618796e+01 
2.809730e+00 5.498676e+01 
2.844390e+00 5.383951e+01 
2.879960e+00 5.269536e+01 
2.914860e+00 5.160420e+01 
2.949410e+00 5.055494e+01 
2.984440e+00 4.952007e+01 
3.019760e+00 4.850694e+01 
3.054730e+00 4.753290e+01 
3.089030e+00 4.660036e+01 
3.124060e+00 4.567483e+01 
3.159560e+00 4.476316e+01 
3.194710e+00 4.388340e+01 
3.229010e+00 4.304815e+01 
3.263320e+00 4.223516e+01 
3.297930e+00 4.143660e+01 
3.332830e+00 4.065142e+01 
3.368040e+00 3.987997e+01 
3.403300e+00 3.912778e+01 
3.438450e+00 3.839703e+01 
3.473060e+00 3.769634e+01 
3.508440e+00 3.699862e+01 
3.543110e+00 3.633243e+01 
3.577470e+00 3.568700e+01 
3.613040e+00 3.503591e+01 
3.648120e+00 3.441005e+01 
3.682910e+00 3.380477e+01 
3.718050e+00 3.320823e+01 
3.753320e+00 3.262424e+01 
3.787980e+00 3.206416e+01 
3.822290e+00 3.152324e+01 
3.857020e+00 3.098901e+01 
3.891920e+00 3.046441e+01 
3.926650e+00 2.995364e+01 
3.961970e+00 2.944678e+01 
3.997360e+00 2.895158e+01 
4.031670e+00 2.848256e+01 
4.066330e+00 2.801925e+01 
4.101420e+00 2.756095e+01 
4.136200e+00 2.711754e+01 
4.170810e+00 2.668619e+01 
4.206250e+00 2.625410e+01 
4.241580e+00 2.583298e+01 
4.276300e+00 2.542855e+01 
4.310970e+00 2.503362e+01 
4.346120e+00 2.464211e+01 
4.380600e+00 2.426664e+01 
4.414730e+00 2.390282e+01 
4.450350e+00 2.353149e+01 
4.485320e+00 2.317473e+01 
4.519810e+00 2.283049e+01 
4.555430e+00 2.248253e+01 
4.590870e+00 2.214380e+01 
4.625480e+00 2.182020e+01 
4.659910e+00 2.150478e+01 
4.695230e+00 2.118814e+01 
4.729960e+00 2.088313e+01 
4.764450e+00 2.058643e+01 
4.799530e+00 2.029096e+01 
4.834910e+00 1.999889e+01 
4.869700e+00 1.971786e+01 
4.904370e+00 1.944329e+01 
4.939450e+00 1.917102e+01 
4.973940e+00 1.890893e+01 
5.008430e+00 1.865176e+01 
5.043810e+00 1.839330e+01 
5.078840e+00 1.814246e+01 
5.113500e+00 1.789888e+01 
5.148890e+00 1.765546e+01 
5.184210e+00 1.741707e+01 
5.219060e+00 1.718635e+01 
5.253660e+00 1.696188e+01 
5.288570e+00 1.673948e+01 
5.323420e+00 1.652176e+01 
5.358440e+00 1.630723e+01 
5.393590e+00 1.609574e+01 
5.428310e+00 1.589096e+01 
5.462800e+00 1.569130e+01 
5.497640e+00 1.549311e+01 
5.532670e+00 1.529774e+01 
5.567280e+00 1.510817e+01 
5.602000e+00 1.492123e+01 
5.637270e+00 1.473507e+01 
5.672410e+00 1.455287e+01 
5.707020e+00 1.437644e+01 
5.742040e+00 1.420138e+01 
5.777430e+00 1.402753e+01 
5.812210e+00 1.385952e+01 
5.846820e+00 1.369546e+01 
5.881610e+00 1.353333e+01 
5.916510e+00 1.337332e+01 
5.951600e+00 1.321547e+01 
5.986560e+00 1.306092e+01 
6.021830e+00 1.290750e+01 
6.056490e+00 1.275943e+01 
6.091160e+00 1.261389e+01 
6.125830e+00 1.247062e+01 
6.161090e+00 1.232735e+01 
6.195760e+00 1.218900e+01 
6.230420e+00 1.205281e+01 
6.265690e+00 1.191637e+01 
6.300950e+00 1.178259e+01 
6.335620e+00 1.165304e+01 
6.370880e+00 1.152328e+01 
6.405550e+00 1.139794e+01 
6.440220e+00 1.127458e+01 
6.475480e+00 1.115099e+01 
6.510150e+00 1.103140e+01 
6.544810e+00 1.091389e+01 
6.580080e+00 1.079606e+01 
6.614750e+00 1.068192e+01 
6.649410e+00 1.056987e+01 
6.684080e+00 1.045947e+01 
6.719340e+00 1.034881e+01 
6.754010e+00 1.024165e+01 
6.788680e+00 1.013626e+01 
6.823940e+00 1.003058e+01 
6.859800e+00 9.924645e+00 
6.894470e+00 9.823954e+00 
6.929140e+00 9.724757e+00 
6.963800e+00 9.626951e+00 
6.999070e+00 9.528818e+00 
7.033730e+00 9.434020e+00 
7.068400e+00 9.340478e+00 
7.103660e+00 9.246637e+00 
7.138330e+00 9.155736e+00 
7.173600e+00 9.064756e+00 
7.208260e+00 8.976547e+00 
7.243530e+00 8.887984e+00 
7.277600e+00 8.803736e+00 
7.312860e+00 8.717848e+00 
7.348120e+00 8.633100e+00 
7.382790e+00 8.550860e+00 
7.417460e+00 8.469869e+00 
7.452720e+00 8.388665e+00 
7.487390e+00 8.309851e+00 
7.522650e+00 8.230727e+00 
7.557320e+00 8.154115e+00 
7.591990e+00 8.078542e+00 
7.627250e+00 8.002658e+00 
7.662510e+00 7.927742e+00 
7.697180e+00 7.855206e+00 
7.731850e+00 7.783648e+00 
7.766510e+00 7.712995e+00 
7.801180e+00 7.643192e+00 
7.836440e+00 7.573246e+00 
7.871110e+00 7.505421e+00 
7.906380e+00 7.437267e+00 
7.941040e+00 7.371110e+00 
7.976310e+00 7.304693e+00 
8.011570e+00 7.239208e+00 
8.046240e+00 7.175595e+00 
8.080900e+00 7.112757e+00 
8.115570e+00 7.050695e+00 
8.150830e+00 6.988517e+00 
8.185500e+00 6.928103e+00 
8.220770e+00 6.867369e+00 
8.255430e+00 6.808387e+00 
8.290100e+00 6.750238e+00 
8.324770e+00 6.692780e+00 
8.359430e+00 6.636000e+00 
8.394700e+00 6.578889e+00 
8.429960e+00 6.522562e+00 
8.464630e+00 6.467918e+00 
8.499890e+00 6.412979e+00 
8.534560e+00 6.359575e+00 
8.569200e+00 6.306817e+00 
