# Parameters:
# omega_b = 0.021831, omega_m = 0.151969, n_s = 1.023228, h = 55.944882, w = -1.000000, sigma_8 = 0.843307
# z = 0.900000
#
# k[1/Mpc] # P(k):
8.694000e-04 4.653188e+03 
2.077466e-03 1.053350e+04 
3.285532e-03 1.546227e+04 
4.493598e-03 1.948856e+04 
5.701664e-03 2.268474e+04 
6.909730e-03 2.513383e+04 
8.117797e-03 2.696281e+04 
9.325863e-03 2.823691e+04 
1.053393e-02 2.903301e+04 
1.174199e-02 2.943002e+04 
1.295006e-02 2.947446e+04 
1.415813e-02 2.923470e+04 
1.536619e-02 2.877369e+04 
1.657426e-02 2.814306e+04 
1.778233e-02 2.743742e+04 
1.899039e-02 2.675020e+04 
2.019846e-02 2.600362e+04 
2.140652e-02 2.516181e+04 
2.261459e-02 2.427092e+04 
2.382266e-02 2.337924e+04 
2.503072e-02 2.251081e+04 
2.623879e-02 2.167574e+04 
2.744685e-02 2.087745e+04 
2.865492e-02 2.012629e+04 
2.986299e-02 1.942483e+04 
3.100100e-02 1.881018e+04 
3.220400e-02 1.820993e+04 
3.288100e-02 1.789457e+04 
3.424300e-02 1.730762e+04 
3.555100e-02 1.679822e+04 
3.686000e-02 1.633827e+04 
3.795000e-02 1.598839e+04 
3.929100e-02 1.559678e+04 
4.039800e-02 1.529954e+04 
4.164000e-02 1.498808e+04 
4.294400e-02 1.468074e+04 
4.415000e-02 1.440963e+04 
4.542900e-02 1.412799e+04 
4.660900e-02 1.387283e+04 
4.782300e-02 1.360468e+04 
4.892900e-02 1.335863e+04 
5.031200e-02 1.304310e+04 
5.155900e-02 1.274796e+04 
5.238100e-02 1.254852e+04 
5.378200e-02 1.220061e+04 
5.513400e-02 1.185369e+04 
5.627600e-02 1.155376e+04 
5.735300e-02 1.126769e+04 
5.870100e-02 1.090747e+04 
5.988700e-02 1.059213e+04 
6.113500e-02 1.026375e+04 
6.225900e-02 9.972801e+03 
6.340100e-02 9.684469e+03 
6.480200e-02 9.343991e+03 
6.601100e-02 9.062986e+03 
6.725500e-02 8.788642e+03 
6.829100e-02 8.573381e+03 
6.958600e-02 8.320325e+03 
7.071100e-02 8.116591e+03 
7.192300e-02 7.913279e+03 
7.307400e-02 7.735475e+03 
7.412300e-02 7.585880e+03 
7.550400e-02 7.407485e+03 
7.663100e-02 7.274522e+03 
7.791200e-02 7.139318e+03 
7.912700e-02 7.024176e+03 
8.027600e-02 6.924326e+03 
8.138400e-02 6.834790e+03 
8.272200e-02 6.734199e+03 
8.406100e-02 6.639561e+03 
8.534100e-02 6.552624e+03 
8.653800e-02 6.471945e+03 
8.759800e-02 6.400379e+03 
8.900300e-02 6.303970e+03 
9.009000e-02 6.226762e+03 
9.113300e-02 6.149212e+03 
9.239600e-02 6.052984e+03 
9.358000e-02 5.958939e+03 
9.496100e-02 5.843204e+03 
9.608400e-02 5.746783e+03 
9.727500e-02 5.643352e+03 
9.852600e-02 5.529317e+03 
9.973800e-02 5.419127e+03 
1.009000e-01 5.314052e+03 
1.020900e-01 5.204991e+03 
1.034000e-01 5.087440e+03 
1.046000e-01 4.981913e+03 
1.057200e-01 4.885614e+03 
1.069100e-01 4.786300e+03 
1.082500e-01 4.678794e+03 
1.093900e-01 4.591471e+03 
1.105400e-01 4.506586e+03 
1.116900e-01 4.427027e+03 
1.129600e-01 4.342837e+03 
1.142000e-01 4.266562e+03 
1.153300e-01 4.200741e+03 
1.166400e-01 4.129340e+03 
1.177800e-01 4.071893e+03 
1.190000e-01 4.013361e+03 
1.201200e-01 3.964403e+03 
1.213400e-01 3.912957e+03 
1.227100e-01 3.860904e+03 
1.238900e-01 3.817844e+03 
1.250700e-01 3.777754e+03 
1.263200e-01 3.736682e+03 
1.275500e-01 3.698113e+03 
1.287500e-01 3.661304e+03 
1.299900e-01 3.624062e+03 
1.311300e-01 3.589892e+03 
1.323500e-01 3.553073e+03 
1.335900e-01 3.515248e+03 
1.347100e-01 3.480166e+03 
1.359800e-01 3.439927e+03 
1.372100e-01 3.399187e+03 
1.384300e-01 3.358514e+03 
1.395700e-01 3.318571e+03 
1.407700e-01 3.277061e+03 
1.420300e-01 3.231016e+03 
1.432800e-01 3.186347e+03 
1.444500e-01 3.142827e+03 
1.456300e-01 3.099847e+03 
1.468900e-01 3.054074e+03 
1.480500e-01 3.012572e+03 
1.491700e-01 2.973338e+03 
1.503800e-01 2.931857e+03 
1.516400e-01 2.889805e+03 
1.528200e-01 2.852239e+03 
1.540200e-01 2.814795e+03 
1.551900e-01 2.780536e+03 
1.564300e-01 2.745309e+03 
1.576600e-01 2.712004e+03 
1.588700e-01 2.681009e+03 
1.600900e-01 2.650447e+03 
1.612700e-01 2.623232e+03 
1.625400e-01 2.594487e+03 
1.637600e-01 2.568211e+03 
1.649500e-01 2.543520e+03 
1.662200e-01 2.517754e+03 
1.674000e-01 2.494835e+03 
1.685000e-01 2.473823e+03 
1.697500e-01 2.450366e+03 
1.710300e-01 2.426795e+03 
1.722200e-01 2.405266e+03 
1.734400e-01 2.383097e+03 
1.746400e-01 2.361643e+03 
1.758700e-01 2.339781e+03 
1.770900e-01 2.317967e+03 
1.782700e-01 2.297218e+03 
1.794600e-01 2.276166e+03 
1.807000e-01 2.254279e+03 
1.819100e-01 2.233277e+03 
1.830100e-01 2.213928e+03 
1.842200e-01 2.192880e+03 
1.855000e-01 2.170964e+03 
1.867000e-01 2.150295e+03 
1.879200e-01 2.129619e+03 
1.890900e-01 2.110068e+03 
1.902800e-01 2.090314e+03 
1.915200e-01 2.070056e+03 
1.926900e-01 2.051244e+03 
1.939000e-01 2.032103e+03 
1.951700e-01 2.012331e+03 
1.963100e-01 1.994897e+03 
1.975100e-01 1.976930e+03 
1.987800e-01 1.958209e+03 
2.000100e-01 1.940449e+03 
2.012500e-01 1.923022e+03 
2.023400e-01 1.907923e+03 
2.036100e-01 1.890645e+03 
2.048900e-01 1.873742e+03 
2.060400e-01 1.858777e+03 
2.072200e-01 1.843656e+03 
2.084200e-01 1.828742e+03 
2.096900e-01 1.813187e+03 
2.109200e-01 1.798343e+03 
2.121100e-01 1.784328e+03 
2.132700e-01 1.770859e+03 
2.145200e-01 1.756546e+03 
2.157200e-01 1.743051e+03 
2.168800e-01 1.730205e+03 
2.180700e-01 1.717202e+03 
2.193400e-01 1.703492e+03 
2.206000e-01 1.690038e+03 
2.217500e-01 1.677922e+03 
2.229500e-01 1.665444e+03 
2.241400e-01 1.653106e+03 
2.253500e-01 1.640723e+03 
2.264900e-01 1.629206e+03 
2.277100e-01 1.616932e+03 
2.289900e-01 1.604112e+03 
2.301500e-01 1.592646e+03 
2.313600e-01 1.580835e+03 
2.325600e-01 1.569039e+03 
2.337700e-01 1.557297e+03 
2.350000e-01 1.545515e+03 
2.362000e-01 1.534069e+03 
2.374100e-01 1.522557e+03 
2.386500e-01 1.510911e+03 
2.399100e-01 1.499231e+03 
2.410400e-01 1.488744e+03 
2.422500e-01 1.477632e+03 
2.435000e-01 1.466297e+03 
2.447300e-01 1.455270e+03 
2.458700e-01 1.445113e+03 
2.470600e-01 1.434635e+03 
2.483300e-01 1.423592e+03 
2.495600e-01 1.413030e+03 
2.507600e-01 1.402851e+03 
2.519600e-01 1.392793e+03 
2.532200e-01 1.382361e+03 
2.543700e-01 1.373008e+03 
2.555500e-01 1.363558e+03 
2.568000e-01 1.353665e+03 
2.580100e-01 1.344203e+03 
2.592400e-01 1.334802e+03 
2.604100e-01 1.326007e+03 
2.616100e-01 1.317088e+03 
2.628400e-01 1.308052e+03 
2.640600e-01 1.299316e+03 
2.652200e-01 1.291151e+03 
2.664300e-01 1.282728e+03 
2.676500e-01 1.274331e+03 
2.688400e-01 1.266340e+03 
2.700700e-01 1.258239e+03 
2.712400e-01 1.250618e+03 
2.724800e-01 1.242629e+03 
2.736700e-01 1.235118e+03 
2.748800e-01 1.227636e+03 
2.761000e-01 1.220174e+03 
2.773200e-01 1.212793e+03 
2.785400e-01 1.205528e+03 
2.797000e-01 1.198768e+03 
2.808900e-01 1.191905e+03 
2.821400e-01 1.184772e+03 
2.833900e-01 1.177720e+03 
2.845500e-01 1.171311e+03 
2.857800e-01 1.164585e+03 
2.870300e-01 1.157822e+03 
2.882100e-01 1.151504e+03 
2.893900e-01 1.145282e+03 
2.906300e-01 1.138828e+03 
2.918900e-01 1.132339e+03 
2.930500e-01 1.126425e+03 
2.942500e-01 1.120372e+03 
2.954200e-01 1.114543e+03 
2.966500e-01 1.108475e+03 
2.978900e-01 1.102421e+03 
2.990400e-01 1.096861e+03 
3.002700e-01 1.090978e+03 
3.015100e-01 1.085109e+03 
3.026800e-01 1.079627e+03 
3.038500e-01 1.074195e+03 
3.050300e-01 1.068770e+03 
3.062600e-01 1.063169e+03 
3.075000e-01 1.057579e+03 
3.087000e-01 1.052222e+03 
3.099100e-01 1.046871e+03 
3.111200e-01 1.041572e+03 
3.123100e-01 1.036410e+03 
3.135300e-01 1.031168e+03 
3.147300e-01 1.026061e+03 
3.159900e-01 1.020749e+03 
3.171800e-01 1.015779e+03 
3.183700e-01 1.010853e+03 
3.196300e-01 1.005687e+03 
3.208400e-01 1.000773e+03 
3.220300e-01 9.959835e+02 
3.232000e-01 9.913182e+02 
3.244300e-01 9.864584e+02 
3.256700e-01 9.816047e+02 
3.269200e-01 9.767575e+02 
3.280800e-01 9.722998e+02 
3.292500e-01 9.678480e+02 
3.304800e-01 9.632111e+02 
3.317100e-01 9.586164e+02 
3.328900e-01 9.542476e+02 
3.340700e-01 9.499166e+02 
3.353600e-01 9.452304e+02 
3.365300e-01 9.410203e+02 
3.377100e-01 9.368105e+02 
3.389200e-01 9.325309e+02 
3.401600e-01 9.281839e+02 
3.413700e-01 9.239887e+02 
3.425300e-01 9.200075e+02 
3.437700e-01 9.157880e+02 
3.449800e-01 9.117065e+02 
3.461800e-01 9.076932e+02 
3.473600e-01 9.037845e+02 
3.485800e-01 8.997887e+02 
3.498100e-01 8.957947e+02 
3.510200e-01 8.918990e+02 
3.522000e-01 8.881315e+02 
3.533900e-01 8.843633e+02 
3.546400e-01 8.804538e+02 
3.558400e-01 8.767332e+02 
3.570600e-01 8.729819e+02 
3.582700e-01 8.692923e+02 
3.595000e-01 8.655729e+02 
3.607100e-01 8.619537e+02 
3.618900e-01 8.584601e+02 
3.631200e-01 8.548482e+02 
3.643200e-01 8.513530e+02 
3.655500e-01 8.477997e+02 
3.667300e-01 8.444182e+02 
3.679500e-01 8.409676e+02 
3.691900e-01 8.374891e+02 
3.703600e-01 8.342330e+02 
3.715700e-01 8.308920e+02 
3.727700e-01 8.276049e+02 
3.739900e-01 8.242967e+02 
3.752000e-01 8.210549e+02 
3.763900e-01 8.178915e+02 
3.775800e-01 8.147525e+02 
3.788200e-01 8.115073e+02 
3.800300e-01 8.083656e+02 
3.812100e-01 8.053318e+02 
3.824200e-01 8.022491e+02 
3.836100e-01 7.992405e+02 
3.848600e-01 7.961048e+02 
3.860400e-01 7.931675e+02 
3.872400e-01 7.902029e+02 
3.884600e-01 7.872227e+02 
3.896500e-01 7.843418e+02 
3.908700e-01 7.814107e+02 
3.920600e-01 7.785731e+02 
3.933100e-01 7.756151e+02 
3.945300e-01 7.727502e+02 
3.957200e-01 7.699855e+02 
3.969300e-01 7.671977e+02 
3.981700e-01 7.643623e+02 
3.993500e-01 7.616840e+02 
4.094840e-01 7.394458e+02 
4.272360e-01 7.037420e+02 
4.454600e-01 6.705864e+02 
4.630560e-01 6.414198e+02 
4.804610e-01 6.149454e+02 
4.980690e-01 5.902592e+02 
5.159230e-01 5.671602e+02 
5.317440e-01 5.481546e+02 
5.489640e-01 5.289071e+02 
5.671990e-01 5.100404e+02 
5.838690e-01 4.940196e+02 
6.018840e-01 4.779123e+02 
6.202330e-01 4.626838e+02 
6.379250e-01 4.490163e+02 
6.545410e-01 4.370345e+02 
6.714560e-01 4.255564e+02 
6.892080e-01 4.142761e+02 
7.066010e-01 4.038726e+02 
7.240540e-01 3.940325e+02 
7.420450e-01 3.844540e+02 
7.593780e-01 3.757117e+02 
7.764720e-01 3.675102e+02 
7.942840e-01 3.593791e+02 
8.116170e-01 3.518164e+02 
8.288310e-01 3.446266e+02 
8.462240e-01 3.376530e+02 
8.631980e-01 3.311022e+02 
8.810700e-01 3.244656e+02 
8.989410e-01 3.180728e+02 
9.166330e-01 3.119588e+02 
9.345640e-01 3.059670e+02 
9.515980e-01 3.004445e+02 
9.688720e-01 2.950068e+02 
9.865640e-01 2.895869e+02 
1.031870e+00 2.764130e+02 
1.063490e+00 2.677114e+02 
1.097920e+00 2.586957e+02 
1.134370e+00 2.495852e+02 
1.167730e+00 2.416311e+02 
1.203830e+00 2.333771e+02 
1.240470e+00 2.253995e+02 
1.275790e+00 2.180092e+02 
1.309140e+00 2.113548e+02 
1.342970e+00 2.048236e+02 
1.378420e+00 1.982888e+02 
1.413200e+00 1.921248e+02 
1.448110e+00 1.861758e+02 
1.484090e+00 1.803090e+02 
1.518820e+00 1.748621e+02 
1.552880e+00 1.697237e+02 
1.588630e+00 1.645392e+02 
1.623230e+00 1.597237e+02 
1.657720e+00 1.551061e+02 
1.692450e+00 1.506455e+02 
1.726400e+00 1.464238e+02 
1.762200e+00 1.421376e+02 
1.797880e+00 1.380412e+02 
1.833270e+00 1.341227e+02 
1.869070e+00 1.303118e+02 
1.903200e+00 1.268149e+02 
1.937740e+00 1.234010e+02 
1.973190e+00 1.200181e+02 
2.007440e+00 1.168712e+02 
2.042160e+00 1.137968e+02 
2.077900e+00 1.107352e+02 
2.112390e+00 1.078942e+02 
2.146220e+00 1.051887e+02 
2.181600e+00 1.024610e+02 
2.216930e+00 9.983368e+01 
2.250760e+00 9.739820e+01 
2.286500e+00 9.490991e+01 
2.321770e+00 9.254263e+01 
2.355950e+00 9.032773e+01 
2.391280e+00 8.810430e+01 
2.426240e+00 8.597720e+01 
2.460670e+00 8.395073e+01 
2.495640e+00 8.195871e+01 
2.531080e+00 8.000365e+01 
2.566220e+00 7.812495e+01 
2.600830e+00 7.633432e+01 
2.635080e+00 7.461966e+01 
2.670340e+00 7.290277e+01 
2.705970e+00 7.122440e+01 
2.740040e+00 6.966947e+01 
2.774520e+00 6.813898e+01 
2.809730e+00 6.662409e+01 
2.844390e+00 6.517854e+01 
2.879960e+00 6.373835e+01 
2.914860e+00 6.236624e+01 
2.949410e+00 6.104791e+01 
2.984440e+00 5.974922e+01 
3.019760e+00 5.847883e+01 
3.054730e+00 5.725831e+01 
3.089030e+00 5.609161e+01 
3.124060e+00 5.493446e+01 
3.159560e+00 5.379556e+01 
3.194710e+00 5.269794e+01 
3.229010e+00 5.165664e+01 
3.263320e+00 5.064446e+01 
3.297930e+00 4.965087e+01 
3.332830e+00 4.867477e+01 
3.368040e+00 4.771682e+01 
3.403300e+00 4.678366e+01 
3.438450e+00 4.587825e+01 
3.473060e+00 4.501060e+01 
3.508440e+00 4.414768e+01 
3.543110e+00 4.332425e+01 
3.577470e+00 4.252766e+01 
3.613040e+00 4.172456e+01 
3.648120e+00 4.095335e+01 
3.682910e+00 4.020808e+01 
3.718050e+00 3.947438e+01 
3.753320e+00 3.875670e+01 
3.787980e+00 3.806914e+01 
3.822290e+00 3.740563e+01 
3.857020e+00 3.675100e+01 
3.891920e+00 3.610865e+01 
3.926650e+00 3.548394e+01 
3.961970e+00 3.486440e+01 
3.997360e+00 3.425984e+01 
4.031670e+00 3.368755e+01 
4.066330e+00 3.312290e+01 
4.101420e+00 3.256454e+01 
4.136200e+00 3.202510e+01 
4.170810e+00 3.150048e+01 
4.206250e+00 3.097562e+01 
4.241580e+00 3.046435e+01 
4.276300e+00 2.997384e+01 
4.310970e+00 2.949521e+01 
4.346120e+00 2.902105e+01 
4.380600e+00 2.856679e+01 
4.414730e+00 2.812674e+01 
4.450350e+00 2.767830e+01 
4.485320e+00 2.724754e+01 
4.519810e+00 2.683235e+01 
4.555430e+00 2.641292e+01 
4.590870e+00 2.600487e+01 
4.625480e+00 2.561545e+01 
4.659910e+00 2.523594e+01 
4.695230e+00 2.485548e+01 
4.729960e+00 2.448912e+01 
4.764450e+00 2.413298e+01 
4.799530e+00 2.377866e+01 
4.834910e+00 2.342847e+01 
4.869700e+00 2.309193e+01 
4.904370e+00 2.276326e+01 
4.939450e+00 2.243750e+01 
4.973940e+00 2.212424e+01 
5.008430e+00 2.181692e+01 
5.043810e+00 2.150835e+01 
5.078840e+00 2.120906e+01 
5.113500e+00 2.091849e+01 
5.148890e+00 2.062844e+01 
5.184210e+00 2.034446e+01 
5.219060e+00 2.006973e+01 
5.253660e+00 1.980273e+01 
5.288570e+00 1.953822e+01 
5.323420e+00 1.927945e+01 
5.358440e+00 1.902465e+01 
5.393590e+00 1.877351e+01 
5.428310e+00 1.853054e+01 
5.462800e+00 1.829377e+01 
5.497640e+00 1.805877e+01 
5.532670e+00 1.782732e+01 
5.567280e+00 1.760283e+01 
5.602000e+00 1.738148e+01 
5.637270e+00 1.716126e+01 
5.672410e+00 1.694580e+01 
5.707020e+00 1.673717e+01 
5.742040e+00 1.653037e+01 
5.777430e+00 1.632506e+01 
5.812210e+00 1.612666e+01 
5.846820e+00 1.593309e+01 
5.881610e+00 1.574185e+01 
5.916510e+00 1.555313e+01 
5.951600e+00 1.536709e+01 
5.986560e+00 1.518502e+01 
6.021830e+00 1.500430e+01 
6.056490e+00 1.482998e+01 
6.091160e+00 1.465872e+01 
6.125830e+00 1.449014e+01 
6.161090e+00 1.432162e+01 
6.195760e+00 1.415899e+01 
6.230420e+00 1.399891e+01 
6.265690e+00 1.383856e+01 
6.300950e+00 1.368147e+01 
6.335620e+00 1.352937e+01 
6.370880e+00 1.337703e+01 
6.405550e+00 1.322994e+01 
6.440220e+00 1.308524e+01 
6.475480e+00 1.294027e+01 
6.510150e+00 1.280003e+01 
6.544810e+00 1.266231e+01 
6.580080e+00 1.252423e+01 
6.614750e+00 1.239048e+01 
6.649410e+00 1.225926e+01 
6.684080e+00 1.212999e+01 
6.719340e+00 1.200042e+01 
6.754010e+00 1.187499e+01 
6.788680e+00 1.175167e+01 
6.823940e+00 1.162803e+01 
6.859800e+00 1.150409e+01 
6.894470e+00 1.138635e+01 
6.929140e+00 1.127037e+01 
6.963800e+00 1.115603e+01 
6.999070e+00 1.104131e+01 
7.033730e+00 1.093056e+01 
7.068400e+00 1.082128e+01 
7.103660e+00 1.071165e+01 
7.138330e+00 1.060548e+01 
7.173600e+00 1.049925e+01 
7.208260e+00 1.039627e+01 
7.243530e+00 1.029287e+01 
7.277600e+00 1.019454e+01 
7.312860e+00 1.009431e+01 
7.348120e+00 9.995421e+00 
7.382790e+00 9.899463e+00 
7.417460e+00 9.804988e+00 
7.452720e+00 9.710279e+00 
7.487390e+00 9.618362e+00 
7.522650e+00 9.526087e+00 
7.557320e+00 9.436764e+00 
7.591990e+00 9.348663e+00 
7.627250e+00 9.260204e+00 
7.662510e+00 9.172876e+00 
7.697180e+00 9.088344e+00 
7.731850e+00 9.004962e+00 
7.766510e+00 8.922638e+00 
7.801180e+00 8.841307e+00 
7.836440e+00 8.759824e+00 
7.871110e+00 8.680821e+00 
7.906380e+00 8.601439e+00 
7.941040e+00 8.524385e+00 
7.976310e+00 8.447034e+00 
8.011570e+00 8.370776e+00 
8.046240e+00 8.296700e+00 
8.080900e+00 8.223529e+00 
8.115570e+00 8.151269e+00 
8.150830e+00 8.078886e+00 
8.185500e+00 8.008561e+00 
8.220770e+00 7.937866e+00 
8.255430e+00 7.869213e+00 
8.290100e+00 7.801531e+00 
8.324770e+00 7.734657e+00 
8.359430e+00 7.668575e+00 
8.394700e+00 7.602110e+00 
8.429960e+00 7.536561e+00 
8.464630e+00 7.472976e+00 
8.499890e+00 7.409051e+00 
8.534560e+00 7.346913e+00 
8.569200e+00 7.285529e+00 
