# Parameters:
# omega_b = 0.022161, omega_m = 0.130197, n_s = 0.982283, h = 63.740157, w = -1.000000, sigma_8 = 0.715748
# z = 0.900000
#
# k[1/Mpc] # P(k):
8.694000e-04 6.250715e+03 
2.077466e-03 1.345258e+04 
3.285532e-03 1.903415e+04 
4.493598e-03 2.326234e+04 
5.701664e-03 2.634709e+04 
6.909730e-03 2.847716e+04 
8.117797e-03 2.986358e+04 
9.325863e-03 3.061676e+04 
1.053393e-02 3.084824e+04 
1.174199e-02 3.066184e+04 
1.295006e-02 3.012265e+04 
1.415813e-02 2.931744e+04 
1.536619e-02 2.832122e+04 
1.657426e-02 2.719234e+04 
1.778233e-02 2.601614e+04 
1.899039e-02 2.488461e+04 
2.019846e-02 2.375502e+04 
2.140652e-02 2.260868e+04 
2.261459e-02 2.148244e+04 
2.382266e-02 2.041404e+04 
2.503072e-02 1.941989e+04 
2.623879e-02 1.850433e+04 
2.744685e-02 1.766894e+04 
2.865492e-02 1.691324e+04 
2.986299e-02 1.623304e+04 
3.100100e-02 1.565875e+04 
3.220400e-02 1.511528e+04 
3.288100e-02 1.483704e+04 
3.424300e-02 1.432909e+04 
3.555100e-02 1.389606e+04 
3.686000e-02 1.350873e+04 
3.795000e-02 1.321390e+04 
3.929100e-02 1.287928e+04 
4.039800e-02 1.261909e+04 
4.164000e-02 1.233898e+04 
4.294400e-02 1.204880e+04 
4.415000e-02 1.178394e+04 
4.542900e-02 1.149617e+04 
4.660900e-02 1.122872e+04 
4.782300e-02 1.093969e+04 
4.892900e-02 1.067203e+04 
5.031200e-02 1.032758e+04 
5.155900e-02 1.000757e+04 
5.238100e-02 9.793779e+03 
5.378200e-02 9.426598e+03 
5.513400e-02 9.070280e+03 
5.627600e-02 8.770969e+03 
5.735300e-02 8.493090e+03 
5.870100e-02 8.154024e+03 
5.988700e-02 7.866817e+03 
6.113500e-02 7.577439e+03 
6.225900e-02 7.329884e+03 
6.340100e-02 7.092599e+03 
6.480200e-02 6.821205e+03 
6.601100e-02 6.606346e+03 
6.725500e-02 6.403766e+03 
6.829100e-02 6.250696e+03 
6.958600e-02 6.075446e+03 
7.071100e-02 5.938961e+03 
7.192300e-02 5.806253e+03 
7.307400e-02 5.692785e+03 
7.412300e-02 5.598818e+03 
7.550400e-02 5.488032e+03 
7.663100e-02 5.405475e+03 
7.791200e-02 5.320101e+03 
7.912700e-02 5.244394e+03 
8.027600e-02 5.175466e+03 
8.138400e-02 5.110264e+03 
8.272200e-02 5.031643e+03 
8.406100e-02 4.951590e+03 
8.534100e-02 4.871236e+03 
8.653800e-02 4.791847e+03 
8.759800e-02 4.719081e+03 
8.900300e-02 4.618299e+03 
9.009000e-02 4.536442e+03 
9.113300e-02 4.454561e+03 
9.239600e-02 4.353862e+03 
9.358000e-02 4.257270e+03 
9.496100e-02 4.142431e+03 
9.608400e-02 4.049595e+03 
9.727500e-02 3.952360e+03 
9.852600e-02 3.851249e+03 
9.973800e-02 3.756531e+03 
1.009000e-01 3.668628e+03 
1.020900e-01 3.583195e+03 
1.034000e-01 3.493762e+03 
1.046000e-01 3.416163e+03 
1.057200e-01 3.349499e+03 
1.069100e-01 3.282138e+03 
1.082500e-01 3.213001e+03 
1.093900e-01 3.158796e+03 
1.105400e-01 3.107229e+03 
1.116900e-01 3.060923e+03 
1.129600e-01 3.012416e+03 
1.142000e-01 2.969413e+03 
1.153300e-01 2.932196e+03 
1.166400e-01 2.891678e+03 
1.177800e-01 2.858058e+03 
1.190000e-01 2.823299e+03 
1.201200e-01 2.791909e+03 
1.213400e-01 2.758480e+03 
1.227100e-01 2.720337e+03 
1.238900e-01 2.687804e+03 
1.250700e-01 2.654311e+03 
1.263200e-01 2.618849e+03 
1.275500e-01 2.582968e+03 
1.287500e-01 2.547796e+03 
1.299900e-01 2.510742e+03 
1.311300e-01 2.476573e+03 
1.323500e-01 2.439510e+03 
1.335900e-01 2.402026e+03 
1.347100e-01 2.368012e+03 
1.359800e-01 2.329921e+03 
1.372100e-01 2.293112e+03 
1.384300e-01 2.257297e+03 
1.395700e-01 2.224214e+03 
1.407700e-01 2.190153e+03 
1.420300e-01 2.155218e+03 
1.432800e-01 2.121360e+03 
1.444500e-01 2.090805e+03 
1.456300e-01 2.060639e+03 
1.468900e-01 2.029832e+03 
1.480500e-01 2.002281e+03 
1.491700e-01 1.976652e+03 
1.503800e-01 1.950082e+03 
1.516400e-01 1.923203e+03 
1.528200e-01 1.899461e+03 
1.540200e-01 1.875789e+03 
1.551900e-01 1.853980e+03 
1.564300e-01 1.831514e+03 
1.576600e-01 1.810019e+03 
1.588700e-01 1.789702e+03 
1.600900e-01 1.769627e+03 
1.612700e-01 1.750984e+03 
1.625400e-01 1.731293e+03 
1.637600e-01 1.712763e+03 
1.649500e-01 1.695032e+03 
1.662200e-01 1.676412e+03 
1.674000e-01 1.659180e+03 
1.685000e-01 1.643386e+03 
1.697500e-01 1.625482e+03 
1.710300e-01 1.607224e+03 
1.722200e-01 1.590553e+03 
1.734400e-01 1.573127e+03 
1.746400e-01 1.556259e+03 
1.758700e-01 1.539089e+03 
1.770900e-01 1.521990e+03 
1.782700e-01 1.505734e+03 
1.794600e-01 1.489382e+03 
1.807000e-01 1.472478e+03 
1.819100e-01 1.456268e+03 
1.830100e-01 1.441637e+03 
1.842200e-01 1.425778e+03 
1.855000e-01 1.409292e+03 
1.867000e-01 1.394143e+03 
1.879200e-01 1.378996e+03 
1.890900e-01 1.364740e+03 
1.902800e-01 1.350653e+03 
1.915200e-01 1.336212e+03 
1.926900e-01 1.322878e+03 
1.939000e-01 1.309542e+03 
1.951700e-01 1.295770e+03 
1.963100e-01 1.283681e+03 
1.975100e-01 1.271361e+03 
1.987800e-01 1.258528e+03 
2.000100e-01 1.246375e+03 
2.012500e-01 1.234500e+03 
2.023400e-01 1.224213e+03 
2.036100e-01 1.212435e+03 
2.048900e-01 1.200882e+03 
2.060400e-01 1.190656e+03 
2.072200e-01 1.180315e+03 
2.084200e-01 1.170013e+03 
2.096900e-01 1.159270e+03 
2.109200e-01 1.149020e+03 
2.121100e-01 1.139202e+03 
2.132700e-01 1.129760e+03 
2.145200e-01 1.119730e+03 
2.157200e-01 1.110170e+03 
2.168800e-01 1.101023e+03 
2.180700e-01 1.091768e+03 
2.193400e-01 1.081970e+03 
2.206000e-01 1.072280e+03 
2.217500e-01 1.063557e+03 
2.229500e-01 1.054576e+03 
2.241400e-01 1.045619e+03 
2.253500e-01 1.036630e+03 
2.264900e-01 1.028272e+03 
2.277100e-01 1.019358e+03 
2.289900e-01 1.010039e+03 
2.301500e-01 1.001709e+03 
2.313600e-01 9.931310e+02 
2.325600e-01 9.845824e+02 
2.337700e-01 9.760765e+02 
2.350000e-01 9.675452e+02 
2.362000e-01 9.592814e+02 
2.374100e-01 9.509981e+02 
2.386500e-01 9.426217e+02 
2.399100e-01 9.342245e+02 
2.410400e-01 9.267417e+02 
2.422500e-01 9.188230e+02 
2.435000e-01 9.107495e+02 
2.447300e-01 9.029114e+02 
2.458700e-01 8.957465e+02 
2.470600e-01 8.883586e+02 
2.483300e-01 8.805750e+02 
2.495600e-01 8.731608e+02 
2.507600e-01 8.660543e+02 
2.519600e-01 8.590351e+02 
2.532200e-01 8.517574e+02 
2.543700e-01 8.452630e+02 
2.555500e-01 8.387228e+02 
2.568000e-01 8.318788e+02 
2.580100e-01 8.253349e+02 
2.592400e-01 8.188584e+02 
2.604100e-01 8.128123e+02 
2.616100e-01 8.066828e+02 
2.628400e-01 8.004743e+02 
2.640600e-01 7.944857e+02 
2.652200e-01 7.888948e+02 
2.664300e-01 7.831287e+02 
2.676500e-01 7.773820e+02 
2.688400e-01 7.719141e+02 
2.700700e-01 7.663724e+02 
2.712400e-01 7.611599e+02 
2.724800e-01 7.556973e+02 
2.736700e-01 7.505581e+02 
2.748800e-01 7.454355e+02 
2.761000e-01 7.403277e+02 
2.773200e-01 7.352765e+02 
2.785400e-01 7.303006e+02 
2.797000e-01 7.256611e+02 
2.808900e-01 7.209516e+02 
2.821400e-01 7.160584e+02 
2.833900e-01 7.112206e+02 
2.845500e-01 7.068092e+02 
2.857800e-01 7.021806e+02 
2.870300e-01 6.975277e+02 
2.882100e-01 6.931817e+02 
2.893900e-01 6.888928e+02 
2.906300e-01 6.844397e+02 
2.918900e-01 6.799633e+02 
2.930500e-01 6.758848e+02 
2.942500e-01 6.717093e+02 
2.954200e-01 6.676833e+02 
2.966500e-01 6.634938e+02 
2.978900e-01 6.593140e+02 
2.990400e-01 6.554763e+02 
3.002700e-01 6.514139e+02 
3.015100e-01 6.473612e+02 
3.026800e-01 6.435754e+02 
3.038500e-01 6.398260e+02 
3.050300e-01 6.360811e+02 
3.062600e-01 6.322173e+02 
3.075000e-01 6.283613e+02 
3.087000e-01 6.246665e+02 
3.099100e-01 6.209772e+02 
3.111200e-01 6.173260e+02 
3.123100e-01 6.137734e+02 
3.135300e-01 6.101662e+02 
3.147300e-01 6.066523e+02 
3.159900e-01 6.029986e+02 
3.171800e-01 5.995855e+02 
3.183700e-01 5.962070e+02 
3.196300e-01 5.926640e+02 
3.208400e-01 5.892944e+02 
3.220300e-01 5.860113e+02 
3.232000e-01 5.828204e+02 
3.244300e-01 5.794998e+02 
3.256700e-01 5.761839e+02 
3.269200e-01 5.728731e+02 
3.280800e-01 5.698288e+02 
3.292500e-01 5.667956e+02 
3.304800e-01 5.636390e+02 
3.317100e-01 5.605115e+02 
3.328900e-01 5.575383e+02 
3.340700e-01 5.545914e+02 
3.353600e-01 5.514113e+02 
3.365300e-01 5.485580e+02 
3.377100e-01 5.457052e+02 
3.389200e-01 5.428057e+02 
3.401600e-01 5.398609e+02 
3.413700e-01 5.370247e+02 
3.425300e-01 5.343371e+02 
3.437700e-01 5.314892e+02 
3.449800e-01 5.287348e+02 
3.461800e-01 5.260268e+02 
3.473600e-01 5.233921e+02 
3.485800e-01 5.207046e+02 
3.498100e-01 5.180188e+02 
3.510200e-01 5.153995e+02 
3.522000e-01 5.128666e+02 
3.533900e-01 5.103337e+02 
3.546400e-01 5.077136e+02 
3.558400e-01 5.052208e+02 
3.570600e-01 5.027078e+02 
3.582700e-01 5.002364e+02 
3.595000e-01 4.977453e+02 
3.607100e-01 4.953251e+02 
3.618900e-01 4.929918e+02 
3.631200e-01 4.905796e+02 
3.643200e-01 4.882457e+02 
3.655500e-01 4.858732e+02 
3.667300e-01 4.836158e+02 
3.679500e-01 4.813182e+02 
3.691900e-01 4.790023e+02 
3.703600e-01 4.768347e+02 
3.715700e-01 4.746108e+02 
3.727700e-01 4.724230e+02 
3.739900e-01 4.702227e+02 
3.752000e-01 4.680692e+02 
3.763900e-01 4.659680e+02 
3.775800e-01 4.638832e+02 
3.788200e-01 4.617280e+02 
3.800300e-01 4.596418e+02 
3.812100e-01 4.576299e+02 
3.824200e-01 4.555876e+02 
3.836100e-01 4.535945e+02 
3.848600e-01 4.515174e+02 
3.860400e-01 4.495718e+02 
3.872400e-01 4.476083e+02 
3.884600e-01 4.456372e+02 
3.896500e-01 4.437330e+02 
3.908700e-01 4.417956e+02 
3.920600e-01 4.399201e+02 
3.933100e-01 4.379653e+02 
3.945300e-01 4.360720e+02 
3.957200e-01 4.342482e+02 
3.969300e-01 4.324101e+02 
3.981700e-01 4.305408e+02 
3.993500e-01 4.287752e+02 
4.094840e-01 4.141426e+02 
4.272360e-01 3.907536e+02 
4.454600e-01 3.691802e+02 
4.630560e-01 3.503395e+02 
4.804610e-01 3.333556e+02 
4.980690e-01 3.176289e+02 
5.159230e-01 3.030041e+02 
5.317440e-01 2.910362e+02 
5.489640e-01 2.789755e+02 
5.671990e-01 2.672037e+02 
5.838690e-01 2.572442e+02 
6.018840e-01 2.472719e+02 
6.202330e-01 2.378866e+02 
6.379250e-01 2.294825e+02 
6.545410e-01 2.221497e+02 
6.714560e-01 2.151575e+02 
6.892080e-01 2.083054e+02 
7.066010e-01 2.020295e+02 
7.240540e-01 1.961168e+02 
7.420450e-01 1.904064e+02 
7.593780e-01 1.852301e+02 
7.764720e-01 1.804063e+02 
7.942840e-01 1.756572e+02 
8.116170e-01 1.712851e+02 
8.288310e-01 1.671659e+02 
8.462240e-01 1.632052e+02 
8.631980e-01 1.595213e+02 
8.810700e-01 1.558212e+02 
8.989410e-01 1.522917e+02 
9.166330e-01 1.489491e+02 
9.345640e-01 1.457059e+02 
9.515980e-01 1.427485e+02 
9.688720e-01 1.398642e+02 
9.865640e-01 1.370206e+02 
1.031870e+00 1.302051e+02 
1.063490e+00 1.257942e+02 
1.097920e+00 1.212911e+02 
1.134370e+00 1.168065e+02 
1.167730e+00 1.129462e+02 
1.203830e+00 1.089919e+02 
1.240470e+00 1.052094e+02 
1.275790e+00 1.017472e+02 
1.309140e+00 9.864913e+01 
1.342970e+00 9.563944e+01 
1.378420e+00 9.264486e+01 
1.413200e+00 8.983900e+01 
1.448110e+00 8.714595e+01 
1.484090e+00 8.450223e+01 
1.518820e+00 8.205714e+01 
1.552880e+00 7.975910e+01 
1.588630e+00 7.744536e+01 
1.623230e+00 7.530291e+01 
1.657720e+00 7.325189e+01 
1.692450e+00 7.127283e+01 
1.726400e+00 6.940374e+01 
1.762200e+00 6.750872e+01 
1.797880e+00 6.569659e+01 
1.833270e+00 6.396504e+01 
1.869070e+00 6.228197e+01 
1.903200e+00 6.073570e+01 
1.937740e+00 5.922605e+01 
1.973190e+00 5.773067e+01 
2.007440e+00 5.633771e+01 
2.042160e+00 5.497541e+01 
2.077900e+00 5.361819e+01 
2.112390e+00 5.235667e+01 
2.146220e+00 5.115470e+01 
2.181600e+00 4.994105e+01 
2.216930e+00 4.877012e+01 
2.250760e+00 4.768330e+01 
2.286500e+00 4.657146e+01 
2.321770e+00 4.551192e+01 
2.355950e+00 4.451858e+01 
2.391280e+00 4.352000e+01 
2.426240e+00 4.256227e+01 
2.460670e+00 4.164811e+01 
2.495640e+00 4.074828e+01 
2.531080e+00 3.986365e+01 
2.566220e+00 3.901127e+01 
2.600830e+00 3.819707e+01 
2.635080e+00 3.741589e+01 
2.670340e+00 3.663141e+01 
2.705970e+00 3.586317e+01 
2.740040e+00 3.515031e+01 
2.774520e+00 3.444763e+01 
2.809730e+00 3.374981e+01 
2.844390e+00 3.308237e+01 
2.879960e+00 3.241573e+01 
2.914860e+00 3.177931e+01 
2.949410e+00 3.116666e+01 
2.984440e+00 3.056109e+01 
3.019760e+00 2.996780e+01 
3.054730e+00 2.939697e+01 
3.089030e+00 2.884896e+01 
3.124060e+00 2.830469e+01 
3.159560e+00 2.776814e+01 
3.194710e+00 2.724926e+01 
3.229010e+00 2.675606e+01 
3.263320e+00 2.627489e+01 
3.297930e+00 2.580194e+01 
3.332830e+00 2.533652e+01 
3.368040e+00 2.487845e+01 
3.403300e+00 2.443118e+01 
3.438450e+00 2.399573e+01 
3.473060e+00 2.357784e+01 
3.508440e+00 2.316105e+01 
3.543110e+00 2.276278e+01 
3.577470e+00 2.237601e+01 
3.613040e+00 2.198557e+01 
3.648120e+00 2.160977e+01 
3.682910e+00 2.124593e+01 
3.718050e+00 2.088671e+01 
3.753320e+00 2.053462e+01 
3.787980e+00 2.019641e+01 
3.822290e+00 1.986939e+01 
3.857020e+00 1.954590e+01 
3.891920e+00 1.922791e+01 
3.926650e+00 1.891778e+01 
3.961970e+00 1.860973e+01 
3.997360e+00 1.830825e+01 
4.031670e+00 1.802251e+01 
4.066330e+00 1.773972e+01 
4.101420e+00 1.745988e+01 
4.136200e+00 1.718856e+01 
4.170810e+00 1.692454e+01 
4.206250e+00 1.665960e+01 
4.241580e+00 1.640125e+01 
4.276300e+00 1.615269e+01 
4.310970e+00 1.590972e+01 
4.346120e+00 1.566861e+01 
4.380600e+00 1.543704e+01 
4.414730e+00 1.521257e+01 
4.450350e+00 1.498296e+01 
4.485320e+00 1.476228e+01 
4.519810e+00 1.454902e+01 
4.555430e+00 1.433326e+01 
4.590870e+00 1.412306e+01 
4.625480e+00 1.392194e+01 
4.659910e+00 1.372585e+01 
4.695230e+00 1.352863e+01 
4.729960e+00 1.333857e+01 
4.764450e+00 1.315352e+01 
4.799530e+00 1.296897e+01 
4.834910e+00 1.278651e+01 
4.869700e+00 1.261064e+01 
4.904370e+00 1.243874e+01 
4.939450e+00 1.226816e+01 
4.973940e+00 1.210371e+01 
5.008430e+00 1.194231e+01 
5.043810e+00 1.177990e+01 
5.078840e+00 1.162214e+01 
5.113500e+00 1.146893e+01 
5.148890e+00 1.131554e+01 
5.184210e+00 1.116529e+01 
5.219060e+00 1.101979e+01 
5.253660e+00 1.087804e+01 
5.288570e+00 1.073758e+01 
5.323420e+00 1.059995e+01 
5.358440e+00 1.046420e+01 
5.393590e+00 1.033037e+01 
5.428310e+00 1.020063e+01 
5.462800e+00 1.007405e+01 
5.497640e+00 9.948390e+00 
5.532670e+00 9.824365e+00 
5.567280e+00 9.703966e+00 
5.602000e+00 9.585225e+00 
5.637270e+00 9.466843e+00 
5.672410e+00 9.350943e+00 
5.707020e+00 9.238697e+00 
5.742040e+00 9.127188e+00 
5.777430e+00 9.016416e+00 
5.812210e+00 8.909352e+00 
5.846820e+00 8.804706e+00 
5.881610e+00 8.701256e+00 
5.916510e+00 8.599154e+00 
5.951600e+00 8.498339e+00 
5.986560e+00 8.399594e+00 
6.021830e+00 8.301566e+00 
6.056490e+00 8.206897e+00 
6.091160e+00 8.113796e+00 
6.125830e+00 8.022141e+00 
6.161090e+00 7.930454e+00 
6.195760e+00 7.841861e+00 
6.230420e+00 7.754647e+00 
6.265690e+00 7.667269e+00 
6.300950e+00 7.581507e+00 
6.335620e+00 7.498460e+00 
6.370880e+00 7.415273e+00 
6.405550e+00 7.334877e+00 
6.440220e+00 7.255741e+00 
6.475480e+00 7.176453e+00 
6.510150e+00 7.099712e+00 
6.544810e+00 7.024263e+00 
6.580080e+00 6.948610e+00 
6.614750e+00 6.875326e+00 
6.649410e+00 6.803352e+00 
6.684080e+00 6.732432e+00 
6.719340e+00 6.661338e+00 
6.754010e+00 6.592493e+00 
6.788680e+00 6.524759e+00 
6.823940e+00 6.456845e+00 
6.859800e+00 6.388764e+00 
6.894470e+00 6.324038e+00 
6.929140e+00 6.260268e+00 
6.963800e+00 6.197391e+00 
6.999070e+00 6.134302e+00 
7.033730e+00 6.073341e+00 
7.068400e+00 6.013187e+00 
7.103660e+00 5.952841e+00 
7.138330e+00 5.894385e+00 
7.173600e+00 5.835879e+00 
7.208260e+00 5.779154e+00 
7.243530e+00 5.722201e+00 
7.277600e+00 5.668024e+00 
7.312860e+00 5.612793e+00 
7.348120e+00 5.558293e+00 
7.382790e+00 5.505407e+00 
7.417460e+00 5.453330e+00 
7.452720e+00 5.401119e+00 
7.487390e+00 5.350445e+00 
7.522650e+00 5.299570e+00 
7.557320e+00 5.250322e+00 
7.591990e+00 5.201747e+00 
7.627250e+00 5.152972e+00 
7.662510e+00 5.104817e+00 
7.697180e+00 5.058202e+00 
7.731850e+00 5.012219e+00 
7.766510e+00 4.966817e+00 
7.801180e+00 4.921961e+00 
7.836440e+00 4.877027e+00 
7.871110e+00 4.833465e+00 
7.906380e+00 4.789692e+00 
7.941040e+00 4.747199e+00 
7.976310e+00 4.704553e+00 
8.011570e+00 4.662521e+00 
8.046240e+00 4.621689e+00 
8.080900e+00 4.581353e+00 
8.115570e+00 4.541521e+00 
8.150830e+00 4.501633e+00 
8.185500e+00 4.462876e+00 
8.220770e+00 4.423913e+00 
8.255430e+00 4.386073e+00 
8.290100e+00 4.348796e+00 
8.324770e+00 4.311964e+00 
8.359430e+00 4.275565e+00 
8.394700e+00 4.238954e+00 
8.429960e+00 4.202861e+00 
8.464630e+00 4.167862e+00 
8.499890e+00 4.132673e+00 
8.534560e+00 4.098466e+00 
8.569200e+00 4.064671e+00 
