# Parameters:
# omega_b = 0.023390, omega_m = 0.147283, n_s = 0.919291, h = 61.141732, w = -1.000000, sigma_8 = 0.874803
# z = 0.900000
#
# k[1/Mpc] # P(k):
8.694000e-04 8.844664e+03 
2.077466e-03 1.823087e+04 
3.285532e-03 2.538803e+04 
4.493598e-03 3.083761e+04 
5.701664e-03 3.485159e+04 
6.909730e-03 3.767915e+04 
8.117797e-03 3.958865e+04 
9.325863e-03 4.071647e+04 
1.053393e-02 4.119516e+04 
1.174199e-02 4.114559e+04 
1.295006e-02 4.064442e+04 
1.415813e-02 3.979532e+04 
1.536619e-02 3.868692e+04 
1.657426e-02 3.738396e+04 
1.778233e-02 3.596735e+04 
1.899039e-02 3.454815e+04 
2.019846e-02 3.312012e+04 
2.140652e-02 3.167733e+04 
2.261459e-02 3.024853e+04 
2.382266e-02 2.887303e+04 
2.503072e-02 2.757311e+04 
2.623879e-02 2.635672e+04 
2.744685e-02 2.522601e+04 
2.865492e-02 2.418603e+04 
2.986299e-02 2.323435e+04 
3.100100e-02 2.241623e+04 
3.220400e-02 2.162916e+04 
3.288100e-02 2.122016e+04 
3.424300e-02 2.046418e+04 
3.555100e-02 1.981117e+04 
3.686000e-02 1.922104e+04 
3.795000e-02 1.876982e+04 
3.929100e-02 1.825810e+04 
4.039800e-02 1.786339e+04 
4.164000e-02 1.744329e+04 
4.294400e-02 1.701850e+04 
4.415000e-02 1.663825e+04 
4.542900e-02 1.623696e+04 
4.660900e-02 1.587123e+04 
4.782300e-02 1.548654e+04 
4.892900e-02 1.513549e+04 
5.031200e-02 1.469049e+04 
5.155900e-02 1.428186e+04 
5.238100e-02 1.401027e+04 
5.378200e-02 1.354507e+04 
5.513400e-02 1.309326e+04 
5.627600e-02 1.271194e+04 
5.735300e-02 1.235546e+04 
5.870100e-02 1.191598e+04 
5.988700e-02 1.153883e+04 
6.113500e-02 1.115313e+04 
6.225900e-02 1.081723e+04 
6.340100e-02 1.048916e+04 
6.480200e-02 1.010656e+04 
6.601100e-02 9.795226e+03 
6.725500e-02 9.494335e+03 
6.829100e-02 9.260389e+03 
6.958600e-02 8.986847e+03 
7.071100e-02 8.767828e+03 
7.192300e-02 8.549928e+03 
7.307400e-02 8.359618e+03 
7.412300e-02 8.199406e+03 
7.550400e-02 8.007684e+03 
7.663100e-02 7.864008e+03 
7.791200e-02 7.716090e+03 
7.912700e-02 7.587809e+03 
8.027600e-02 7.474400e+03 
8.138400e-02 7.370637e+03 
8.272200e-02 7.250982e+03 
8.406100e-02 7.135093e+03 
8.534100e-02 7.025059e+03 
8.653800e-02 6.920610e+03 
8.759800e-02 6.826909e+03 
8.900300e-02 6.699618e+03 
9.009000e-02 6.597514e+03 
9.113300e-02 6.495676e+03 
9.239600e-02 6.370310e+03 
9.358000e-02 6.249507e+03 
9.496100e-02 6.104298e+03 
9.608400e-02 5.985663e+03 
9.727500e-02 5.860320e+03 
9.852600e-02 5.727170e+03 
9.973800e-02 5.600898e+03 
1.009000e-01 5.482424e+03 
1.020900e-01 5.364062e+03 
1.034000e-01 5.238481e+03 
1.046000e-01 5.127768e+03 
1.057200e-01 5.029663e+03 
1.069100e-01 4.929395e+03 
1.082500e-01 4.823223e+03 
1.093900e-01 4.738010e+03 
1.105400e-01 4.655759e+03 
1.116900e-01 4.579414e+03 
1.129600e-01 4.498690e+03 
1.142000e-01 4.425430e+03 
1.153300e-01 4.361774e+03 
1.166400e-01 4.292049e+03 
1.177800e-01 4.234702e+03 
1.190000e-01 4.175656e+03 
1.201200e-01 4.124168e+03 
1.213400e-01 4.069663e+03 
1.227100e-01 4.011091e+03 
1.238900e-01 3.961937e+03 
1.250700e-01 3.913908e+03 
1.263200e-01 3.863987e+03 
1.275500e-01 3.815500e+03 
1.287500e-01 3.768794e+03 
1.299900e-01 3.720859e+03 
1.311300e-01 3.677062e+03 
1.323500e-01 3.630149e+03 
1.335900e-01 3.582711e+03 
1.347100e-01 3.539682e+03 
1.359800e-01 3.491227e+03 
1.372100e-01 3.443907e+03 
1.384300e-01 3.397469e+03 
1.395700e-01 3.353706e+03 
1.407700e-01 3.308470e+03 
1.420300e-01 3.260611e+03 
1.432800e-01 3.214190e+03 
1.444500e-01 3.170742e+03 
1.456300e-01 3.127828e+03 
1.468900e-01 3.082910e+03 
1.480500e-01 3.042402e+03 
1.491700e-01 3.004237e+03 
1.503800e-01 2.964051e+03 
1.516400e-01 2.923247e+03 
1.528200e-01 2.886561e+03 
1.540200e-01 2.849987e+03 
1.551900e-01 2.815959e+03 
1.564300e-01 2.780825e+03 
1.576600e-01 2.747191e+03 
1.588700e-01 2.715377e+03 
1.600900e-01 2.683961e+03 
1.612700e-01 2.655072e+03 
1.625400e-01 2.624564e+03 
1.637600e-01 2.596208e+03 
1.649500e-01 2.569285e+03 
1.662200e-01 2.541121e+03 
1.674000e-01 2.515672e+03 
1.685000e-01 2.492344e+03 
1.697500e-01 2.466263e+03 
1.710300e-01 2.440018e+03 
1.722200e-01 2.416050e+03 
1.734400e-01 2.391587e+03 
1.746400e-01 2.367925e+03 
1.758700e-01 2.343956e+03 
1.770900e-01 2.320323e+03 
1.782700e-01 2.297847e+03 
1.794600e-01 2.275323e+03 
1.807000e-01 2.252092e+03 
1.819100e-01 2.229804e+03 
1.830100e-01 2.209619e+03 
1.842200e-01 2.187723e+03 
1.855000e-01 2.164941e+03 
1.867000e-01 2.143779e+03 
1.879200e-01 2.122611e+03 
1.890900e-01 2.102630e+03 
1.902800e-01 2.082615e+03 
1.915200e-01 2.062089e+03 
1.926900e-01 2.043053e+03 
1.939000e-01 2.023757e+03 
1.951700e-01 2.003826e+03 
1.963100e-01 1.986251e+03 
1.975100e-01 1.968135e+03 
1.987800e-01 1.949259e+03 
2.000100e-01 1.931329e+03 
2.012500e-01 1.913680e+03 
2.023400e-01 1.898388e+03 
2.036100e-01 1.880866e+03 
2.048900e-01 1.863624e+03 
2.060400e-01 1.848359e+03 
2.072200e-01 1.832926e+03 
2.084200e-01 1.817584e+03 
2.096900e-01 1.801585e+03 
2.109200e-01 1.786317e+03 
2.121100e-01 1.771784e+03 
2.132700e-01 1.757814e+03 
2.145200e-01 1.742969e+03 
2.157200e-01 1.728903e+03 
2.168800e-01 1.715482e+03 
2.180700e-01 1.701898e+03 
2.193400e-01 1.687549e+03 
2.206000e-01 1.673417e+03 
2.217500e-01 1.660693e+03 
2.229500e-01 1.647590e+03 
2.241400e-01 1.634575e+03 
2.253500e-01 1.621512e+03 
2.264900e-01 1.609364e+03 
2.277100e-01 1.596398e+03 
2.289900e-01 1.582832e+03 
2.301500e-01 1.570702e+03 
2.313600e-01 1.558208e+03 
2.325600e-01 1.545698e+03 
2.337700e-01 1.533247e+03 
2.350000e-01 1.520756e+03 
2.362000e-01 1.508615e+03 
2.374100e-01 1.496395e+03 
2.386500e-01 1.484034e+03 
2.399100e-01 1.471640e+03 
2.410400e-01 1.460513e+03 
2.422500e-01 1.448724e+03 
2.435000e-01 1.436702e+03 
2.447300e-01 1.425013e+03 
2.458700e-01 1.414263e+03 
2.470600e-01 1.403177e+03 
2.483300e-01 1.391494e+03 
2.495600e-01 1.380342e+03 
2.507600e-01 1.369621e+03 
2.519600e-01 1.359031e+03 
2.532200e-01 1.348048e+03 
2.543700e-01 1.338236e+03 
2.555500e-01 1.328348e+03 
2.568000e-01 1.317998e+03 
2.580100e-01 1.308101e+03 
2.592400e-01 1.298316e+03 
2.604100e-01 1.289186e+03 
2.616100e-01 1.279928e+03 
2.628400e-01 1.270550e+03 
2.640600e-01 1.261531e+03 
2.652200e-01 1.253121e+03 
2.664300e-01 1.244447e+03 
2.676500e-01 1.235801e+03 
2.688400e-01 1.227607e+03 
2.700700e-01 1.219323e+03 
2.712400e-01 1.211530e+03 
2.724800e-01 1.203361e+03 
2.736700e-01 1.195703e+03 
2.748800e-01 1.188096e+03 
2.761000e-01 1.180510e+03 
2.773200e-01 1.173007e+03 
2.785400e-01 1.165630e+03 
2.797000e-01 1.158784e+03 
2.808900e-01 1.151834e+03 
2.821400e-01 1.144611e+03 
2.833900e-01 1.137471e+03 
2.845500e-01 1.130997e+03 
2.857800e-01 1.124203e+03 
2.870300e-01 1.117372e+03 
2.882100e-01 1.110990e+03 
2.893900e-01 1.104712e+03 
2.906300e-01 1.098202e+03 
2.918900e-01 1.091657e+03 
2.930500e-01 1.085693e+03 
2.942500e-01 1.079590e+03 
2.954200e-01 1.073718e+03 
2.966500e-01 1.067606e+03 
2.978900e-01 1.061507e+03 
2.990400e-01 1.055907e+03 
3.002700e-01 1.049985e+03 
3.015100e-01 1.044080e+03 
3.026800e-01 1.038563e+03 
3.038500e-01 1.033099e+03 
3.050300e-01 1.027640e+03 
3.062600e-01 1.022011e+03 
3.075000e-01 1.016392e+03 
3.087000e-01 1.011008e+03 
3.099100e-01 1.005630e+03 
3.111200e-01 1.000307e+03 
3.123100e-01 9.951268e+02 
3.135300e-01 9.898659e+02 
3.147300e-01 9.847401e+02 
3.159900e-01 9.794096e+02 
3.171800e-01 9.744271e+02 
3.183700e-01 9.694931e+02 
3.196300e-01 9.643181e+02 
3.208400e-01 9.593955e+02 
3.220300e-01 9.545987e+02 
3.232000e-01 9.499305e+02 
3.244300e-01 9.450698e+02 
3.256700e-01 9.402152e+02 
3.269200e-01 9.353674e+02 
3.280800e-01 9.309092e+02 
3.292500e-01 9.264620e+02 
3.304800e-01 9.218317e+02 
3.317100e-01 9.172436e+02 
3.328900e-01 9.128812e+02 
3.340700e-01 9.085567e+02 
3.353600e-01 9.038827e+02 
3.365300e-01 8.996857e+02 
3.377100e-01 8.954890e+02 
3.389200e-01 8.912229e+02 
3.401600e-01 8.868897e+02 
3.413700e-01 8.827103e+02 
3.425300e-01 8.787458e+02 
3.437700e-01 8.745441e+02 
3.449800e-01 8.704798e+02 
3.461800e-01 8.664836e+02 
3.473600e-01 8.625927e+02 
3.485800e-01 8.586178e+02 
3.498100e-01 8.546448e+02 
3.510200e-01 8.507697e+02 
3.522000e-01 8.470221e+02 
3.533900e-01 8.432739e+02 
3.546400e-01 8.393876e+02 
3.558400e-01 8.356894e+02 
3.570600e-01 8.319607e+02 
3.582700e-01 8.282933e+02 
3.595000e-01 8.245964e+02 
3.607100e-01 8.210001e+02 
3.618900e-01 8.175294e+02 
3.631200e-01 8.139411e+02 
3.643200e-01 8.104690e+02 
3.655500e-01 8.069390e+02 
3.667300e-01 8.035798e+02 
3.679500e-01 8.001532e+02 
3.691900e-01 7.966989e+02 
3.703600e-01 7.934655e+02 
3.715700e-01 7.901479e+02 
3.727700e-01 7.868837e+02 
3.739900e-01 7.835986e+02 
3.752000e-01 7.803793e+02 
3.763900e-01 7.772379e+02 
3.775800e-01 7.741208e+02 
3.788200e-01 7.708982e+02 
3.800300e-01 7.677784e+02 
3.812100e-01 7.647661e+02 
3.824200e-01 7.617053e+02 
3.836100e-01 7.587182e+02 
3.848600e-01 7.556048e+02 
3.860400e-01 7.526884e+02 
3.872400e-01 7.497450e+02 
3.884600e-01 7.467862e+02 
3.896500e-01 7.439261e+02 
3.908700e-01 7.410160e+02 
3.920600e-01 7.381989e+02 
3.933100e-01 7.352622e+02 
3.945300e-01 7.324179e+02 
3.957200e-01 7.296731e+02 
3.969300e-01 7.269054e+02 
3.981700e-01 7.240903e+02 
3.993500e-01 7.214314e+02 
4.094840e-01 6.993607e+02 
4.272360e-01 6.639462e+02 
4.454600e-01 6.311156e+02 
4.630560e-01 6.022944e+02 
4.804610e-01 5.761996e+02 
4.980690e-01 5.519297e+02 
5.159230e-01 5.292824e+02 
5.317440e-01 5.106889e+02 
5.489640e-01 4.918970e+02 
5.671990e-01 4.735124e+02 
5.838690e-01 4.579222e+02 
6.018840e-01 4.422661e+02 
6.202330e-01 4.274780e+02 
6.379250e-01 4.142151e+02 
6.545410e-01 4.025938e+02 
6.714560e-01 3.914661e+02 
6.892080e-01 3.805333e+02 
7.066010e-01 3.704520e+02 
7.240540e-01 3.609209e+02 
7.420450e-01 3.516456e+02 
7.593780e-01 3.431837e+02 
7.764720e-01 3.352489e+02 
7.942840e-01 3.273868e+02 
8.116170e-01 3.200796e+02 
8.288310e-01 3.131384e+02 
8.462240e-01 3.064124e+02 
8.631980e-01 3.000994e+02 
8.810700e-01 2.937116e+02 
8.989410e-01 2.875662e+02 
9.166330e-01 2.816962e+02 
9.345640e-01 2.759515e+02 
9.515980e-01 2.706650e+02 
9.688720e-01 2.654674e+02 
9.865640e-01 2.602960e+02 
1.031870e+00 2.477618e+02 
1.063490e+00 2.395152e+02 
1.097920e+00 2.309964e+02 
1.134370e+00 2.224201e+02 
1.167730e+00 2.149555e+02 
1.203830e+00 2.072397e+02 
1.240470e+00 1.998038e+02 
1.275790e+00 1.929413e+02 
1.309140e+00 1.867769e+02 
1.342970e+00 1.807493e+02 
1.378420e+00 1.747310e+02 
1.413200e+00 1.690708e+02 
1.448110e+00 1.636240e+02 
1.484090e+00 1.582636e+02 
1.518820e+00 1.533004e+02 
1.552880e+00 1.486296e+02 
1.588630e+00 1.439275e+02 
1.623230e+00 1.395684e+02 
1.657720e+00 1.353963e+02 
1.692450e+00 1.313739e+02 
1.726400e+00 1.275752e+02 
1.762200e+00 1.237248e+02 
1.797880e+00 1.200518e+02 
1.833270e+00 1.165437e+02 
1.869070e+00 1.131377e+02 
1.903200e+00 1.100171e+02 
1.937740e+00 1.069748e+02 
1.973190e+00 1.039644e+02 
2.007440e+00 1.011679e+02 
2.042160e+00 9.843954e+01 
2.077900e+00 9.572596e+01 
2.112390e+00 9.321072e+01 
2.146220e+00 9.081852e+01 
2.181600e+00 8.840944e+01 
2.216930e+00 8.609173e+01 
2.250760e+00 8.394542e+01 
2.286500e+00 8.175466e+01 
2.321770e+00 7.967248e+01 
2.355950e+00 7.772614e+01 
2.391280e+00 7.577456e+01 
2.426240e+00 7.390910e+01 
2.460670e+00 7.213328e+01 
2.495640e+00 7.038897e+01 
2.531080e+00 6.867852e+01 
2.566220e+00 6.703636e+01 
2.600830e+00 6.547231e+01 
2.635080e+00 6.397560e+01 
2.670340e+00 6.247851e+01 
2.705970e+00 6.101584e+01 
2.740040e+00 5.966143e+01 
2.774520e+00 5.832909e+01 
2.809730e+00 5.701140e+01 
2.844390e+00 5.575475e+01 
2.879960e+00 5.450362e+01 
2.914860e+00 5.331226e+01 
2.949410e+00 5.216807e+01 
2.984440e+00 5.104173e+01 
3.019760e+00 4.994041e+01 
3.054730e+00 4.888271e+01 
3.089030e+00 4.787247e+01 
3.124060e+00 4.687083e+01 
3.159560e+00 4.588541e+01 
3.194710e+00 4.493623e+01 
3.229010e+00 4.403602e+01 
3.263320e+00 4.316155e+01 
3.297930e+00 4.230340e+01 
3.332830e+00 4.146075e+01 
3.368040e+00 4.063400e+01 
3.403300e+00 3.982886e+01 
3.438450e+00 3.904807e+01 
3.473060e+00 3.830003e+01 
3.508440e+00 3.755646e+01 
3.543110e+00 3.684705e+01 
3.577470e+00 3.616107e+01 
3.613040e+00 3.546962e+01 
3.648120e+00 3.480585e+01 
3.682910e+00 3.416456e+01 
3.718050e+00 3.353347e+01 
3.753320e+00 3.291631e+01 
3.787980e+00 3.232522e+01 
3.822290e+00 3.175493e+01 
3.857020e+00 3.119243e+01 
3.891920e+00 3.064060e+01 
3.926650e+00 3.010408e+01 
3.961970e+00 2.957210e+01 
3.997360e+00 2.905306e+01 
4.031670e+00 2.856182e+01 
4.066330e+00 2.807736e+01 
4.101420e+00 2.759836e+01 
4.136200e+00 2.713564e+01 
4.170810e+00 2.668569e+01 
4.206250e+00 2.623563e+01 
4.241580e+00 2.579728e+01 
4.276300e+00 2.537686e+01 
4.310970e+00 2.496671e+01 
4.346120e+00 2.456046e+01 
4.380600e+00 2.417130e+01 
4.414730e+00 2.379437e+01 
4.450350e+00 2.341030e+01 
4.485320e+00 2.304143e+01 
4.519810e+00 2.268598e+01 
4.555430e+00 2.232696e+01 
4.590870e+00 2.197772e+01 
4.625480e+00 2.164448e+01 
4.659910e+00 2.131977e+01 
4.695230e+00 2.099427e+01 
4.729960e+00 2.068090e+01 
4.764450e+00 2.037630e+01 
4.799530e+00 2.007330e+01 
4.834910e+00 1.977389e+01 
4.869700e+00 1.948617e+01 
4.904370e+00 1.920521e+01 
4.939450e+00 1.892678e+01 
4.973940e+00 1.865907e+01 
5.008430e+00 1.839647e+01 
5.043810e+00 1.813282e+01 
5.078840e+00 1.787712e+01 
5.113500e+00 1.762891e+01 
5.148890e+00 1.738122e+01 
5.184210e+00 1.713873e+01 
5.219060e+00 1.690417e+01 
5.253660e+00 1.667622e+01 
5.288570e+00 1.645043e+01 
5.323420e+00 1.622955e+01 
5.358440e+00 1.601210e+01 
5.393590e+00 1.579779e+01 
5.428310e+00 1.559049e+01 
5.462800e+00 1.538851e+01 
5.497640e+00 1.518806e+01 
5.532670e+00 1.499068e+01 
5.567280e+00 1.479925e+01 
5.602000e+00 1.461052e+01 
5.637270e+00 1.442278e+01 
5.672410e+00 1.423912e+01 
5.707020e+00 1.406131e+01 
5.742040e+00 1.388509e+01 
5.777430e+00 1.371016e+01 
5.812210e+00 1.354113e+01 
5.846820e+00 1.337626e+01 
5.881610e+00 1.321340e+01 
5.916510e+00 1.305270e+01 
5.951600e+00 1.289431e+01 
5.986560e+00 1.273931e+01 
6.021830e+00 1.258548e+01 
6.056490e+00 1.243712e+01 
6.091160e+00 1.229140e+01 
6.125830e+00 1.214797e+01 
6.161090e+00 1.200462e+01 
6.195760e+00 1.186632e+01 
6.230420e+00 1.173020e+01 
6.265690e+00 1.159386e+01 
6.300950e+00 1.146033e+01 
6.335620e+00 1.133104e+01 
6.370880e+00 1.120157e+01 
6.405550e+00 1.107661e+01 
6.440220e+00 1.095370e+01 
6.475480e+00 1.083057e+01 
6.510150e+00 1.071148e+01 
6.544810e+00 1.059456e+01 
6.580080e+00 1.047734e+01 
6.614750e+00 1.036382e+01 
6.649410e+00 1.025248e+01 
6.684080e+00 1.014281e+01 
6.719340e+00 1.003289e+01 
6.754010e+00 9.926512e+00 
6.788680e+00 9.821967e+00 
6.823940e+00 9.717162e+00 
6.859800e+00 9.612115e+00 
6.894470e+00 9.512350e+00 
6.929140e+00 9.414102e+00 
6.963800e+00 9.317247e+00 
6.999070e+00 9.220088e+00 
7.033730e+00 9.126325e+00 
7.068400e+00 9.033818e+00 
7.103660e+00 8.941029e+00 
7.138330e+00 8.851186e+00 
7.173600e+00 8.761336e+00 
7.208260e+00 8.674234e+00 
7.243530e+00 8.586794e+00 
7.277600e+00 8.503667e+00 
7.312860e+00 8.418972e+00 
7.348120e+00 8.335410e+00 
7.382790e+00 8.254333e+00 
7.417460e+00 8.174544e+00 
7.452720e+00 8.094578e+00 
7.487390e+00 8.016976e+00 
7.522650e+00 7.939078e+00 
7.557320e+00 7.863713e+00 
7.591990e+00 7.789399e+00 
7.627250e+00 7.714787e+00 
7.662510e+00 7.641136e+00 
7.697180e+00 7.569880e+00 
7.731850e+00 7.499610e+00 
7.766510e+00 7.430237e+00 
7.801180e+00 7.361706e+00 
7.836440e+00 7.293079e+00 
7.871110e+00 7.226563e+00 
7.906380e+00 7.159732e+00 
7.941040e+00 7.094865e+00 
7.976310e+00 7.029780e+00 
8.011570e+00 6.965648e+00 
8.046240e+00 6.903356e+00 
8.080900e+00 6.841829e+00 
8.115570e+00 6.781079e+00 
8.150830e+00 6.720261e+00 
8.185500e+00 6.661175e+00 
8.220770e+00 6.601782e+00 
8.255430e+00 6.544107e+00 
8.290100e+00 6.487304e+00 
8.324770e+00 6.431187e+00 
8.359430e+00 6.375738e+00 
8.394700e+00 6.319971e+00 
8.429960e+00 6.264995e+00 
8.464630e+00 6.211689e+00 
8.499890e+00 6.158100e+00 
8.534560e+00 6.106013e+00 
8.569200e+00 6.054559e+00 
