# Parameters:
# omega_b = 0.022602, omega_m = 0.121378, n_s = 0.861024, h = 71.062992, w = -1.000000, sigma_8 = 0.830709
# z = 0.900000
#
# k[1/Mpc] # P(k):
8.694000e-04 1.771301e+04 
2.077466e-03 3.396883e+04 
3.285532e-03 4.511349e+04 
4.493598e-03 5.265413e+04 
5.701664e-03 5.746562e+04 
6.909730e-03 6.019403e+04 
8.117797e-03 6.142357e+04 
9.325863e-03 6.145199e+04 
1.053393e-02 6.054751e+04 
1.174199e-02 5.894014e+04 
1.295006e-02 5.677435e+04 
1.415813e-02 5.423031e+04 
1.536619e-02 5.145447e+04 
1.657426e-02 4.854965e+04 
1.778233e-02 4.563109e+04 
1.899039e-02 4.283853e+04 
2.019846e-02 4.016434e+04 
2.140652e-02 3.761058e+04 
2.261459e-02 3.521393e+04 
2.382266e-02 3.301234e+04 
2.503072e-02 3.101820e+04 
2.623879e-02 2.922708e+04 
2.744685e-02 2.763443e+04 
2.865492e-02 2.622572e+04 
2.986299e-02 2.498402e+04 
3.100100e-02 2.395733e+04 
3.220400e-02 2.300333e+04 
3.288100e-02 2.252227e+04 
3.424300e-02 2.165465e+04 
3.555100e-02 2.092431e+04 
3.686000e-02 2.027626e+04 
3.795000e-02 1.978455e+04 
3.929100e-02 1.922467e+04 
4.039800e-02 1.878595e+04 
4.164000e-02 1.830940e+04 
4.294400e-02 1.780791e+04 
4.415000e-02 1.734580e+04 
4.542900e-02 1.683814e+04 
4.660900e-02 1.636443e+04 
4.782300e-02 1.585137e+04 
4.892900e-02 1.537769e+04 
5.031200e-02 1.477210e+04 
5.155900e-02 1.421568e+04 
5.238100e-02 1.384792e+04 
5.378200e-02 1.322423e+04 
5.513400e-02 1.263040e+04 
5.627600e-02 1.214080e+04 
5.735300e-02 1.169384e+04 
5.870100e-02 1.115871e+04 
5.988700e-02 1.071411e+04 
6.113500e-02 1.027449e+04 
6.225900e-02 9.905504e+03 
6.340100e-02 9.557976e+03 
6.480200e-02 9.166877e+03 
6.601100e-02 8.863264e+03 
6.725500e-02 8.581386e+03 
6.829100e-02 8.371558e+03 
6.958600e-02 8.133595e+03 
7.071100e-02 7.950219e+03 
7.192300e-02 7.773097e+03 
7.307400e-02 7.622251e+03 
7.412300e-02 7.497426e+03 
7.550400e-02 7.349744e+03 
7.663100e-02 7.238927e+03 
7.791200e-02 7.122514e+03 
7.912700e-02 7.017086e+03 
8.027600e-02 6.919185e+03 
8.138400e-02 6.824911e+03 
8.272200e-02 6.709007e+03 
8.406100e-02 6.588911e+03 
8.534100e-02 6.466425e+03 
8.653800e-02 6.344431e+03 
8.759800e-02 6.232302e+03 
8.900300e-02 6.076849e+03 
9.009000e-02 5.950814e+03 
9.113300e-02 5.825297e+03 
9.239600e-02 5.671679e+03 
9.358000e-02 5.525405e+03 
9.496100e-02 5.353418e+03 
9.608400e-02 5.215760e+03 
9.727500e-02 5.072759e+03 
9.852600e-02 4.926867e+03 
9.973800e-02 4.791756e+03 
1.009000e-01 4.667653e+03 
1.020900e-01 4.550081e+03 
1.034000e-01 4.428559e+03 
1.046000e-01 4.324718e+03 
1.057200e-01 4.238075e+03 
1.069100e-01 4.151456e+03 
1.082500e-01 4.065117e+03 
1.093900e-01 3.998862e+03 
1.105400e-01 3.936699e+03 
1.116900e-01 3.882468e+03 
1.129600e-01 3.826089e+03 
1.142000e-01 3.776910e+03 
1.153300e-01 3.734274e+03 
1.166400e-01 3.687745e+03 
1.177800e-01 3.648257e+03 
1.190000e-01 3.607012e+03 
1.201200e-01 3.567867e+03 
1.213400e-01 3.525841e+03 
1.227100e-01 3.474662e+03 
1.238900e-01 3.430388e+03 
1.250700e-01 3.382838e+03 
1.263200e-01 3.331913e+03 
1.275500e-01 3.279122e+03 
1.287500e-01 3.227069e+03 
1.299900e-01 3.171758e+03 
1.311300e-01 3.120904e+03 
1.323500e-01 3.065944e+03 
1.335900e-01 3.010910e+03 
1.347100e-01 2.961645e+03 
1.359800e-01 2.907145e+03 
1.372100e-01 2.855722e+03 
1.384300e-01 2.806310e+03 
1.395700e-01 2.762061e+03 
1.407700e-01 2.716713e+03 
1.420300e-01 2.672082e+03 
1.432800e-01 2.628837e+03 
1.444500e-01 2.591383e+03 
1.456300e-01 2.554404e+03 
1.468900e-01 2.517417e+03 
1.480500e-01 2.484570e+03 
1.491700e-01 2.454182e+03 
1.503800e-01 2.422899e+03 
1.516400e-01 2.391211e+03 
1.528200e-01 2.363085e+03 
1.540200e-01 2.335036e+03 
1.551900e-01 2.308728e+03 
1.564300e-01 2.281507e+03 
1.576600e-01 2.255100e+03 
1.588700e-01 2.229702e+03 
1.600900e-01 2.204562e+03 
1.612700e-01 2.180433e+03 
1.625400e-01 2.154951e+03 
1.637600e-01 2.130591e+03 
1.649500e-01 2.107063e+03 
1.662200e-01 2.082307e+03 
1.674000e-01 2.059115e+03 
1.685000e-01 2.037864e+03 
1.697500e-01 2.013775e+03 
1.710300e-01 1.989209e+03 
1.722200e-01 1.966787e+03 
1.734400e-01 1.943576e+03 
1.746400e-01 1.921126e+03 
1.758700e-01 1.898405e+03 
1.770900e-01 1.876029e+03 
1.782700e-01 1.854763e+03 
1.794600e-01 1.833616e+03 
1.807000e-01 1.811920e+03 
1.819100e-01 1.791118e+03 
1.830100e-01 1.772638e+03 
1.842200e-01 1.752661e+03 
1.855000e-01 1.731910e+03 
1.867000e-01 1.713123e+03 
1.879200e-01 1.694340e+03 
1.890900e-01 1.676692e+03 
1.902800e-01 1.659403e+03 
1.915200e-01 1.641681e+03 
1.926900e-01 1.625336e+03 
1.939000e-01 1.609054e+03 
1.951700e-01 1.592241e+03 
1.963100e-01 1.577478e+03 
1.975100e-01 1.562426e+03 
1.987800e-01 1.546745e+03 
2.000100e-01 1.531873e+03 
2.012500e-01 1.517286e+03 
2.023400e-01 1.504650e+03 
2.036100e-01 1.490159e+03 
2.048900e-01 1.475851e+03 
2.060400e-01 1.463185e+03 
2.072200e-01 1.450371e+03 
2.084200e-01 1.437500e+03 
2.096900e-01 1.424079e+03 
2.109200e-01 1.411275e+03 
2.121100e-01 1.398922e+03 
2.132700e-01 1.387040e+03 
2.145200e-01 1.374418e+03 
2.157200e-01 1.362354e+03 
2.168800e-01 1.350796e+03 
2.180700e-01 1.339102e+03 
2.193400e-01 1.326719e+03 
2.206000e-01 1.314466e+03 
2.217500e-01 1.303436e+03 
2.229500e-01 1.292082e+03 
2.241400e-01 1.280778e+03 
2.253500e-01 1.269436e+03 
2.264900e-01 1.258891e+03 
2.277100e-01 1.247664e+03 
2.289900e-01 1.235948e+03 
2.301500e-01 1.225474e+03 
2.313600e-01 1.214692e+03 
2.325600e-01 1.203992e+03 
2.337700e-01 1.193347e+03 
2.350000e-01 1.182671e+03 
2.362000e-01 1.172350e+03 
2.374100e-01 1.162027e+03 
2.386500e-01 1.151589e+03 
2.399100e-01 1.141127e+03 
2.410400e-01 1.131831e+03 
2.422500e-01 1.121999e+03 
2.435000e-01 1.111974e+03 
2.447300e-01 1.102248e+03 
2.458700e-01 1.093379e+03 
2.470600e-01 1.084234e+03 
2.483300e-01 1.074600e+03 
2.495600e-01 1.065433e+03 
2.507600e-01 1.056660e+03 
2.519600e-01 1.047996e+03 
2.532200e-01 1.039012e+03 
2.543700e-01 1.031007e+03 
2.555500e-01 1.022953e+03 
2.568000e-01 1.014524e+03 
2.580100e-01 1.006466e+03 
2.592400e-01 9.985041e+02 
2.604100e-01 9.910775e+02 
2.616100e-01 9.835487e+02 
2.628400e-01 9.759230e+02 
2.640600e-01 9.685775e+02 
2.652200e-01 9.617238e+02 
2.664300e-01 9.546555e+02 
2.676500e-01 9.476110e+02 
2.688400e-01 9.409162e+02 
2.700700e-01 9.341362e+02 
2.712400e-01 9.277590e+02 
2.724800e-01 9.210759e+02 
2.736700e-01 9.147925e+02 
2.748800e-01 9.085337e+02 
2.761000e-01 9.022931e+02 
2.773200e-01 8.961216e+02 
2.785400e-01 8.900435e+02 
2.797000e-01 8.843791e+02 
2.808900e-01 8.786292e+02 
2.821400e-01 8.726550e+02 
2.833900e-01 8.667488e+02 
2.845500e-01 8.613671e+02 
2.857800e-01 8.557205e+02 
2.870300e-01 8.500442e+02 
2.882100e-01 8.447423e+02 
2.893900e-01 8.395129e+02 
2.906300e-01 8.340847e+02 
2.918900e-01 8.286281e+02 
2.930500e-01 8.236565e+02 
2.942500e-01 8.185678e+02 
2.954200e-01 8.136650e+02 
2.966500e-01 8.085630e+02 
2.978900e-01 8.034728e+02 
2.990400e-01 7.987993e+02 
3.002700e-01 7.938569e+02 
3.015100e-01 7.889286e+02 
3.026800e-01 7.843248e+02 
3.038500e-01 7.797653e+02 
3.050300e-01 7.752113e+02 
3.062600e-01 7.705194e+02 
3.075000e-01 7.658369e+02 
3.087000e-01 7.613502e+02 
3.099100e-01 7.568701e+02 
3.111200e-01 7.524390e+02 
3.123100e-01 7.481325e+02 
3.135300e-01 7.437597e+02 
3.147300e-01 7.395000e+02 
3.159900e-01 7.350707e+02 
3.171800e-01 7.309383e+02 
3.183700e-01 7.268512e+02 
3.196300e-01 7.225651e+02 
3.208400e-01 7.184887e+02 
3.220300e-01 7.145169e+02 
3.232000e-01 7.106601e+02 
3.244300e-01 7.066478e+02 
3.256700e-01 7.026412e+02 
3.269200e-01 6.986407e+02 
3.280800e-01 6.949622e+02 
3.292500e-01 6.913011e+02 
3.304800e-01 6.874922e+02 
3.317100e-01 6.837185e+02 
3.328900e-01 6.801309e+02 
3.340700e-01 6.765749e+02 
3.353600e-01 6.727403e+02 
3.365300e-01 6.693007e+02 
3.377100e-01 6.658617e+02 
3.389200e-01 6.623662e+02 
3.401600e-01 6.588161e+02 
3.413700e-01 6.553970e+02 
3.425300e-01 6.521572e+02 
3.437700e-01 6.487240e+02 
3.449800e-01 6.454034e+02 
3.461800e-01 6.421388e+02 
3.473600e-01 6.389624e+02 
3.485800e-01 6.357223e+02 
3.498100e-01 6.324841e+02 
3.510200e-01 6.293260e+02 
3.522000e-01 6.262722e+02 
3.533900e-01 6.232181e+02 
3.546400e-01 6.200569e+02 
3.558400e-01 6.170491e+02 
3.570600e-01 6.140168e+02 
3.582700e-01 6.110347e+02 
3.595000e-01 6.080289e+02 
3.607100e-01 6.051069e+02 
3.618900e-01 6.022887e+02 
3.631200e-01 5.993752e+02 
3.643200e-01 5.965563e+02 
3.655500e-01 5.936906e+02 
3.667300e-01 5.909639e+02 
3.679500e-01 5.881851e+02 
3.691900e-01 5.853841e+02 
3.703600e-01 5.827625e+02 
3.715700e-01 5.800727e+02 
3.727700e-01 5.774265e+02 
3.739900e-01 5.747637e+02 
3.752000e-01 5.721548e+02 
3.763900e-01 5.696093e+02 
3.775800e-01 5.670836e+02 
3.788200e-01 5.644726e+02 
3.800300e-01 5.619451e+02 
3.812100e-01 5.595054e+02 
3.824200e-01 5.570272e+02 
3.836100e-01 5.546087e+02 
3.848600e-01 5.520881e+02 
3.860400e-01 5.497272e+02 
3.872400e-01 5.473445e+02 
3.884600e-01 5.449501e+02 
3.896500e-01 5.426358e+02 
3.908700e-01 5.402813e+02 
3.920600e-01 5.380021e+02 
3.933100e-01 5.356262e+02 
3.945300e-01 5.333254e+02 
3.957200e-01 5.311056e+02 
3.969300e-01 5.288676e+02 
3.981700e-01 5.265914e+02 
3.993500e-01 5.244416e+02 
4.094840e-01 5.066144e+02 
4.272360e-01 4.780647e+02 
4.454600e-01 4.517127e+02 
4.630560e-01 4.286980e+02 
4.804610e-01 4.079758e+02 
4.980690e-01 3.888113e+02 
5.159230e-01 3.710229e+02 
5.317440e-01 3.564829e+02 
5.489640e-01 3.418448e+02 
5.671990e-01 3.275713e+02 
5.838690e-01 3.154978e+02 
6.018840e-01 3.034030e+02 
6.202330e-01 2.920051e+02 
6.379250e-01 2.817966e+02 
6.545410e-01 2.728691e+02 
6.714560e-01 2.643403e+02 
6.892080e-01 2.559715e+02 
7.066010e-01 2.482784e+02 
7.240540e-01 2.410210e+02 
7.420450e-01 2.339848e+02 
7.593780e-01 2.275888e+02 
7.764720e-01 2.216131e+02 
7.942840e-01 2.157155e+02 
8.116170e-01 2.102648e+02 
8.288310e-01 2.051139e+02 
8.462240e-01 2.001485e+02 
8.631980e-01 1.955144e+02 
8.810700e-01 1.908507e+02 
8.989410e-01 1.863910e+02 
9.166330e-01 1.821566e+02 
9.345640e-01 1.780384e+02 
9.515980e-01 1.742736e+02 
9.688720e-01 1.705945e+02 
9.865640e-01 1.669594e+02 
1.031870e+00 1.582315e+02 
1.063490e+00 1.525657e+02 
1.097920e+00 1.467707e+02 
1.134370e+00 1.409956e+02 
1.167730e+00 1.360168e+02 
1.203830e+00 1.309194e+02 
1.240470e+00 1.260430e+02 
1.275790e+00 1.215822e+02 
1.309140e+00 1.175952e+02 
1.342970e+00 1.137272e+02 
1.378420e+00 1.098817e+02 
1.413200e+00 1.062848e+02 
1.448110e+00 1.028402e+02 
1.484090e+00 9.946263e+01 
1.518820e+00 9.634755e+01 
1.552880e+00 9.342635e+01 
1.588630e+00 9.049342e+01 
1.623230e+00 8.778146e+01 
1.657720e+00 8.519141e+01 
1.692450e+00 8.269916e+01 
1.726400e+00 8.035109e+01 
1.762200e+00 7.797479e+01 
1.797880e+00 7.571070e+01 
1.833270e+00 7.355094e+01 
1.869070e+00 7.145681e+01 
1.903200e+00 6.953894e+01 
1.937740e+00 6.767062e+01 
1.973190e+00 6.582351e+01 
2.007440e+00 6.410792e+01 
2.042160e+00 6.243475e+01 
2.077900e+00 6.077113e+01 
2.112390e+00 5.922909e+01 
2.146220e+00 5.776281e+01 
2.181600e+00 5.628605e+01 
2.216930e+00 5.486508e+01 
2.250760e+00 5.354894e+01 
2.286500e+00 5.220522e+01 
2.321770e+00 5.092767e+01 
2.355950e+00 4.973291e+01 
2.391280e+00 4.853464e+01 
2.426240e+00 4.738831e+01 
2.460670e+00 4.629639e+01 
2.495640e+00 4.522340e+01 
2.531080e+00 4.417065e+01 
2.566220e+00 4.315908e+01 
2.600830e+00 4.219489e+01 
2.635080e+00 4.127156e+01 
2.670340e+00 4.034714e+01 
2.705970e+00 3.944327e+01 
2.740040e+00 3.860571e+01 
2.774520e+00 3.778123e+01 
2.809730e+00 3.696486e+01 
2.844390e+00 3.618560e+01 
2.879960e+00 3.540901e+01 
2.914860e+00 3.466875e+01 
2.949410e+00 3.395717e+01 
2.984440e+00 3.325578e+01 
3.019760e+00 3.256943e+01 
3.054730e+00 3.190978e+01 
3.089030e+00 3.127863e+01 
3.124060e+00 3.065242e+01 
3.159560e+00 3.003584e+01 
3.194710e+00 2.944103e+01 
3.229010e+00 2.887640e+01 
3.263320e+00 2.832706e+01 
3.297930e+00 2.778761e+01 
3.332830e+00 2.725744e+01 
3.368040e+00 2.673652e+01 
3.403300e+00 2.622862e+01 
3.438450e+00 2.573534e+01 
3.473060e+00 2.526240e+01 
3.508440e+00 2.479164e+01 
3.543110e+00 2.434220e+01 
3.577470e+00 2.390678e+01 
3.613040e+00 2.346758e+01 
3.648120e+00 2.304545e+01 
3.682910e+00 2.263724e+01 
3.718050e+00 2.223496e+01 
3.753320e+00 2.184116e+01 
3.787980e+00 2.146348e+01 
3.822290e+00 2.109873e+01 
3.857020e+00 2.073847e+01 
3.891920e+00 2.038473e+01 
3.926650e+00 2.004032e+01 
3.961970e+00 1.969851e+01 
3.997360e+00 1.936449e+01 
4.031670e+00 1.904817e+01 
4.066330e+00 1.873576e+01 
4.101420e+00 1.842674e+01 
4.136200e+00 1.812763e+01 
4.170810e+00 1.783668e+01 
4.206250e+00 1.754516e+01 
4.241580e+00 1.726105e+01 
4.276300e+00 1.698821e+01 
4.310970e+00 1.672179e+01 
4.346120e+00 1.645766e+01 
4.380600e+00 1.620430e+01 
4.414730e+00 1.595881e+01 
4.450350e+00 1.570814e+01 
4.485320e+00 1.546733e+01 
4.519810e+00 1.523496e+01 
4.555430e+00 1.500008e+01 
4.590870e+00 1.477142e+01 
4.625480e+00 1.455293e+01 
4.659910e+00 1.433998e+01 
4.695230e+00 1.412614e+01 
4.729960e+00 1.392016e+01 
4.764450e+00 1.371978e+01 
4.799530e+00 1.352021e+01 
4.834910e+00 1.332294e+01 
4.869700e+00 1.313308e+01 
4.904370e+00 1.294759e+01 
4.939450e+00 1.276365e+01 
4.973940e+00 1.258654e+01 
5.008430e+00 1.241279e+01 
5.043810e+00 1.223811e+01 
5.078840e+00 1.206857e+01 
5.113500e+00 1.190396e+01 
5.148890e+00 1.173945e+01 
5.184210e+00 1.157836e+01 
5.219060e+00 1.142244e+01 
5.253660e+00 1.127070e+01 
5.288570e+00 1.112038e+01 
5.323420e+00 1.097320e+01 
5.358440e+00 1.082817e+01 
5.393590e+00 1.068522e+01 
5.428310e+00 1.054679e+01 
5.462800e+00 1.041183e+01 
5.497640e+00 1.027788e+01 
5.532670e+00 1.014582e+01 
5.567280e+00 1.001768e+01 
5.602000e+00 9.891346e+00 
5.637270e+00 9.765522e+00 
5.672410e+00 9.642389e+00 
5.707020e+00 9.523166e+00 
5.742040e+00 9.404862e+00 
5.777430e+00 9.287389e+00 
5.812210e+00 9.173874e+00 
5.846820e+00 9.063040e+00 
5.881610e+00 8.953522e+00 
5.916510e+00 8.845454e+00 
5.951600e+00 8.738836e+00 
5.986560e+00 8.634459e+00 
6.021830e+00 8.530861e+00 
6.056490e+00 8.430884e+00 
6.091160e+00 8.332627e+00 
6.125830e+00 8.235914e+00 
6.161090e+00 8.139219e+00 
6.195760e+00 8.045871e+00 
6.230420e+00 7.953994e+00 
6.265690e+00 7.861964e+00 
6.300950e+00 7.771722e+00 
6.335620e+00 7.684353e+00 
6.370880e+00 7.596854e+00 
6.405550e+00 7.512367e+00 
6.440220e+00 7.429244e+00 
6.475480e+00 7.345977e+00 
6.510150e+00 7.265418e+00 
6.544810e+00 7.186273e+00 
6.580080e+00 7.106928e+00 
6.614750e+00 7.030081e+00 
6.649410e+00 6.954671e+00 
6.684080e+00 6.880388e+00 
6.719340e+00 6.805936e+00 
6.754010e+00 6.733871e+00 
6.788680e+00 6.663029e+00 
6.823940e+00 6.592011e+00 
6.859800e+00 6.520828e+00 
6.894470e+00 6.453202e+00 
6.929140e+00 6.386595e+00 
6.963800e+00 6.320933e+00 
6.999070e+00 6.255062e+00 
7.033730e+00 6.191469e+00 
7.068400e+00 6.128728e+00 
7.103660e+00 6.065795e+00 
7.138330e+00 6.004859e+00 
7.173600e+00 5.943913e+00 
7.208260e+00 5.884832e+00 
7.243530e+00 5.825521e+00 
7.277600e+00 5.769135e+00 
7.312860e+00 5.711684e+00 
7.348120e+00 5.655001e+00 
7.382790e+00 5.600005e+00 
7.417460e+00 5.545881e+00 
7.452720e+00 5.491639e+00 
7.487390e+00 5.438999e+00 
7.522650e+00 5.386159e+00 
7.557320e+00 5.335045e+00 
7.591990e+00 5.284646e+00 
7.627250e+00 5.234046e+00 
7.662510e+00 5.184096e+00 
7.697180e+00 5.135776e+00 
7.731850e+00 5.088128e+00 
7.766510e+00 5.041087e+00 
7.801180e+00 4.994617e+00 
7.836440e+00 4.948091e+00 
7.871110e+00 4.903002e+00 
7.906380e+00 4.857699e+00 
7.941040e+00 4.813727e+00 
7.976310e+00 4.769620e+00 
8.011570e+00 4.726176e+00 
8.046240e+00 4.683977e+00 
8.080900e+00 4.642296e+00 
8.115570e+00 4.601144e+00 
8.150830e+00 4.559956e+00 
8.185500e+00 4.519941e+00 
8.220770e+00 4.479717e+00 
8.255430e+00 4.440658e+00 
8.290100e+00 4.402218e+00 
8.324770e+00 4.364246e+00 
8.359430e+00 4.326725e+00 
8.394700e+00 4.288989e+00 
8.429960e+00 4.251798e+00 
8.464630e+00 4.215749e+00 
8.499890e+00 4.179507e+00 
8.534560e+00 4.144280e+00 
8.569200e+00 4.109481e+00 
