# Parameters:
# omega_b = 0.021516, omega_m = 0.136535, n_s = 0.889370, h = 83.110236, w = -1.000000, sigma_8 = 0.783465
# z = 0.900000
#
# k[1/Mpc] # P(k):
8.694000e-04 8.111325e+03 
2.077466e-03 1.612214e+04 
3.285532e-03 2.198275e+04 
4.493598e-03 2.624047e+04 
5.701664e-03 2.922385e+04 
6.909730e-03 3.118935e+04 
8.117797e-03 3.238898e+04 
9.325863e-03 3.295322e+04 
1.053393e-02 3.300456e+04 
1.174199e-02 3.265139e+04 
1.295006e-02 3.196298e+04 
1.415813e-02 3.102798e+04 
1.536619e-02 2.991730e+04 
1.657426e-02 2.867024e+04 
1.778233e-02 2.726750e+04 
1.899039e-02 2.572199e+04 
2.019846e-02 2.418283e+04 
2.140652e-02 2.276351e+04 
2.261459e-02 2.144940e+04 
2.382266e-02 2.023057e+04 
2.503072e-02 1.911162e+04 
2.623879e-02 1.809368e+04 
2.744685e-02 1.717720e+04 
2.865492e-02 1.635869e+04 
2.986299e-02 1.563173e+04 
3.100100e-02 1.502758e+04 
3.220400e-02 1.446540e+04 
3.288100e-02 1.418269e+04 
3.424300e-02 1.367606e+04 
3.555100e-02 1.325518e+04 
3.686000e-02 1.288921e+04 
3.795000e-02 1.261739e+04 
3.929100e-02 1.231698e+04 
4.039800e-02 1.208708e+04 
4.164000e-02 1.184112e+04 
4.294400e-02 1.158477e+04 
4.415000e-02 1.134750e+04 
4.542900e-02 1.108213e+04 
4.660900e-02 1.082948e+04 
4.782300e-02 1.054594e+04 
4.892900e-02 1.027702e+04 
5.031200e-02 9.921732e+03 
5.155900e-02 9.583622e+03 
5.238100e-02 9.354656e+03 
5.378200e-02 8.957377e+03 
5.513400e-02 8.568782e+03 
5.627600e-02 8.241787e+03 
5.735300e-02 7.939055e+03 
5.870100e-02 7.572179e+03 
5.988700e-02 7.264744e+03 
6.113500e-02 6.959066e+03 
6.225900e-02 6.701881e+03 
6.340100e-02 6.459815e+03 
6.480200e-02 6.188239e+03 
6.601100e-02 5.978976e+03 
6.725500e-02 5.786462e+03 
6.829100e-02 5.645006e+03 
6.958600e-02 5.486365e+03 
7.071100e-02 5.366106e+03 
7.192300e-02 5.251743e+03 
7.307400e-02 5.155938e+03 
7.412300e-02 5.077842e+03 
7.550400e-02 4.987064e+03 
7.663100e-02 4.919791e+03 
7.791200e-02 4.850038e+03 
7.912700e-02 4.787233e+03 
8.027600e-02 4.728982e+03 
8.138400e-02 4.672825e+03 
8.272200e-02 4.603551e+03 
8.406100e-02 4.531423e+03 
8.534100e-02 4.457470e+03 
8.653800e-02 4.383440e+03 
8.759800e-02 4.315127e+03 
8.900300e-02 4.219935e+03 
9.009000e-02 4.142257e+03 
9.113300e-02 4.064273e+03 
9.239600e-02 3.968126e+03 
9.358000e-02 3.875589e+03 
9.496100e-02 3.764973e+03 
9.608400e-02 3.675180e+03 
9.727500e-02 3.580858e+03 
9.852600e-02 3.481858e+03 
9.973800e-02 3.388827e+03 
1.009000e-01 3.302267e+03 
1.020900e-01 3.217618e+03 
1.034000e-01 3.129013e+03 
1.046000e-01 3.052130e+03 
1.057200e-01 2.986385e+03 
1.069100e-01 2.920214e+03 
1.082500e-01 2.853096e+03 
1.093900e-01 2.801260e+03 
1.105400e-01 2.752425e+03 
1.116900e-01 2.709940e+03 
1.129600e-01 2.665974e+03 
1.142000e-01 2.628464e+03 
1.153300e-01 2.596583e+03 
1.166400e-01 2.562805e+03 
1.177800e-01 2.535446e+03 
1.190000e-01 2.507486e+03 
1.201200e-01 2.482502e+03 
1.213400e-01 2.455948e+03 
1.227100e-01 2.425257e+03 
1.238900e-01 2.398889e+03 
1.250700e-01 2.371075e+03 
1.263200e-01 2.341262e+03 
1.275500e-01 2.310305e+03 
1.287500e-01 2.279485e+03 
1.299900e-01 2.246291e+03 
1.311300e-01 2.215244e+03 
1.323500e-01 2.180930e+03 
1.335900e-01 2.145852e+03 
1.347100e-01 2.113536e+03 
1.359800e-01 2.077128e+03 
1.372100e-01 2.041494e+03 
1.384300e-01 2.006723e+03 
1.395700e-01 1.974337e+03 
1.407700e-01 1.941005e+03 
1.420300e-01 1.906681e+03 
1.432800e-01 1.873447e+03 
1.444500e-01 1.843573e+03 
1.456300e-01 1.814107e+03 
1.468900e-01 1.784306e+03 
1.480500e-01 1.757756e+03 
1.491700e-01 1.733297e+03 
1.503800e-01 1.708243e+03 
1.516400e-01 1.683031e+03 
1.528200e-01 1.661303e+03 
1.540200e-01 1.639645e+03 
1.551900e-01 1.620223e+03 
1.564300e-01 1.600349e+03 
1.576600e-01 1.581585e+03 
1.588700e-01 1.564153e+03 
1.600900e-01 1.546945e+03 
1.612700e-01 1.531295e+03 
1.625400e-01 1.514763e+03 
1.637600e-01 1.499244e+03 
1.649500e-01 1.484415e+03 
1.662200e-01 1.468811e+03 
1.674000e-01 1.454206e+03 
1.685000e-01 1.440818e+03 
1.697500e-01 1.425449e+03 
1.710300e-01 1.409586e+03 
1.722200e-01 1.395102e+03 
1.734400e-01 1.379524e+03 
1.746400e-01 1.364428e+03 
1.758700e-01 1.348937e+03 
1.770900e-01 1.333253e+03 
1.782700e-01 1.318346e+03 
1.794600e-01 1.303193e+03 
1.807000e-01 1.287426e+03 
1.819100e-01 1.272311e+03 
1.830100e-01 1.258574e+03 
1.842200e-01 1.243675e+03 
1.855000e-01 1.228194e+03 
1.867000e-01 1.213983e+03 
1.879200e-01 1.199780e+03 
1.890900e-01 1.186435e+03 
1.902800e-01 1.173340e+03 
1.915200e-01 1.159921e+03 
1.926900e-01 1.147570e+03 
1.939000e-01 1.135340e+03 
1.951700e-01 1.122713e+03 
1.963100e-01 1.111675e+03 
1.975100e-01 1.100540e+03 
1.987800e-01 1.088942e+03 
2.000100e-01 1.078000e+03 
2.012500e-01 1.067398e+03 
2.023400e-01 1.058214e+03 
2.036100e-01 1.047718e+03 
2.048900e-01 1.037488e+03 
2.060400e-01 1.028435e+03 
2.072200e-01 1.019284e+03 
2.084200e-01 1.010205e+03 
2.096900e-01 1.000738e+03 
2.109200e-01 9.917056e+02 
2.121100e-01 9.830776e+02 
2.132700e-01 9.747830e+02 
2.145200e-01 9.659711e+02 
2.157200e-01 9.576028e+02 
2.168800e-01 9.496105e+02 
2.180700e-01 9.415228e+02 
2.193400e-01 9.329956e+02 
2.206000e-01 9.246248e+02 
2.217500e-01 9.170896e+02 
2.229500e-01 9.093313e+02 
2.241400e-01 9.017402e+02 
2.253500e-01 8.941252e+02 
2.264900e-01 8.870447e+02 
2.277100e-01 8.795964e+02 
2.289900e-01 8.719227e+02 
2.301500e-01 8.650612e+02 
2.313600e-01 8.579973e+02 
2.325600e-01 8.511990e+02 
2.337700e-01 8.444327e+02 
2.350000e-01 8.376442e+02 
2.362000e-01 8.311765e+02 
2.374100e-01 8.248201e+02 
2.386500e-01 8.183896e+02 
2.399100e-01 8.119405e+02 
2.410400e-01 8.063503e+02 
2.422500e-01 8.004517e+02 
2.435000e-01 7.944347e+02 
2.447300e-01 7.886117e+02 
2.458700e-01 7.833724e+02 
2.470600e-01 7.779673e+02 
2.483300e-01 7.722695e+02 
2.495600e-01 7.668457e+02 
2.507600e-01 7.616532e+02 
2.519600e-01 7.565219e+02 
2.532200e-01 7.511987e+02 
2.543700e-01 7.464030e+02 
2.555500e-01 7.415415e+02 
2.568000e-01 7.364520e+02 
2.580100e-01 7.315833e+02 
2.592400e-01 7.266661e+02 
2.604100e-01 7.220310e+02 
2.616100e-01 7.173302e+02 
2.628400e-01 7.125670e+02 
2.640600e-01 7.078466e+02 
2.652200e-01 7.033885e+02 
2.664300e-01 6.987894e+02 
2.676500e-01 6.942045e+02 
2.688400e-01 6.897360e+02 
2.700700e-01 6.851397e+02 
2.712400e-01 6.808158e+02 
2.724800e-01 6.762836e+02 
2.736700e-01 6.719461e+02 
2.748800e-01 6.675467e+02 
2.761000e-01 6.631597e+02 
2.773200e-01 6.588207e+02 
2.785400e-01 6.545105e+02 
2.797000e-01 6.504168e+02 
2.808900e-01 6.462612e+02 
2.821400e-01 6.419433e+02 
2.833900e-01 6.376710e+02 
2.845500e-01 6.337051e+02 
2.857800e-01 6.295440e+02 
2.870300e-01 6.253610e+02 
2.882100e-01 6.214540e+02 
2.893900e-01 6.175687e+02 
2.906300e-01 6.135188e+02 
2.918900e-01 6.094478e+02 
2.930500e-01 6.057388e+02 
2.942500e-01 6.019361e+02 
2.954200e-01 5.982519e+02 
2.966500e-01 5.944182e+02 
2.978900e-01 5.905936e+02 
2.990400e-01 5.870823e+02 
3.002700e-01 5.833582e+02 
3.015100e-01 5.796397e+02 
3.026800e-01 5.761663e+02 
3.038500e-01 5.727265e+02 
3.050300e-01 5.692909e+02 
3.062600e-01 5.657439e+02 
3.075000e-01 5.622041e+02 
3.087000e-01 5.588125e+02 
3.099100e-01 5.554262e+02 
3.111200e-01 5.520756e+02 
3.123100e-01 5.488166e+02 
3.135300e-01 5.455077e+02 
3.147300e-01 5.422846e+02 
3.159900e-01 5.389334e+02 
3.171800e-01 5.358051e+02 
3.183700e-01 5.327101e+02 
3.196300e-01 5.294646e+02 
3.208400e-01 5.263780e+02 
3.220300e-01 5.233709e+02 
3.232000e-01 5.204510e+02 
3.244300e-01 5.174135e+02 
3.256700e-01 5.143806e+02 
3.269200e-01 5.113524e+02 
3.280800e-01 5.085682e+02 
3.292500e-01 5.057968e+02 
3.304800e-01 5.029135e+02 
3.317100e-01 5.000571e+02 
3.328900e-01 4.973417e+02 
3.340700e-01 4.946504e+02 
3.353600e-01 4.917487e+02 
3.365300e-01 4.891461e+02 
3.377100e-01 4.865441e+02 
3.389200e-01 4.838996e+02 
3.401600e-01 4.812139e+02 
3.413700e-01 4.786286e+02 
3.425300e-01 4.761797e+02 
3.437700e-01 4.735847e+02 
3.449800e-01 4.710751e+02 
3.461800e-01 4.686078e+02 
3.473600e-01 4.662078e+02 
3.485800e-01 4.637608e+02 
3.498100e-01 4.613153e+02 
3.510200e-01 4.589304e+02 
3.522000e-01 4.566243e+02 
3.533900e-01 4.543183e+02 
3.546400e-01 4.519335e+02 
3.558400e-01 4.496648e+02 
3.570600e-01 4.473777e+02 
3.582700e-01 4.451286e+02 
3.595000e-01 4.428616e+02 
3.607100e-01 4.406591e+02 
3.618900e-01 4.385358e+02 
3.631200e-01 4.363407e+02 
3.643200e-01 4.342170e+02 
3.655500e-01 4.320582e+02 
3.667300e-01 4.300042e+02 
3.679500e-01 4.279132e+02 
3.691900e-01 4.258055e+02 
3.703600e-01 4.238329e+02 
3.715700e-01 4.218092e+02 
3.727700e-01 4.198183e+02 
3.739900e-01 4.178158e+02 
3.752000e-01 4.158553e+02 
3.763900e-01 4.139424e+02 
3.775800e-01 4.120446e+02 
3.788200e-01 4.100827e+02 
3.800300e-01 4.081837e+02 
3.812100e-01 4.063519e+02 
3.824200e-01 4.044919e+02 
3.836100e-01 4.026769e+02 
3.848600e-01 4.007853e+02 
3.860400e-01 3.990136e+02 
3.872400e-01 3.972257e+02 
3.884600e-01 3.954302e+02 
3.896500e-01 3.936954e+02 
3.908700e-01 3.919304e+02 
3.920600e-01 3.902220e+02 
3.933100e-01 3.884412e+02 
3.945300e-01 3.867166e+02 
3.957200e-01 3.850545e+02 
3.969300e-01 3.833793e+02 
3.981700e-01 3.816755e+02 
3.993500e-01 3.800664e+02 
4.094840e-01 3.667315e+02 
4.272360e-01 3.454131e+02 
4.454600e-01 3.257689e+02 
4.630560e-01 3.086398e+02 
4.804610e-01 2.932285e+02 
4.980690e-01 2.789866e+02 
5.159230e-01 2.657665e+02 
5.317440e-01 2.549635e+02 
5.489640e-01 2.440886e+02 
5.671990e-01 2.334819e+02 
5.838690e-01 2.245118e+02 
6.018840e-01 2.155326e+02 
6.202330e-01 2.070824e+02 
6.379250e-01 1.995159e+02 
6.545410e-01 1.929130e+02 
6.714560e-01 1.866187e+02 
6.892080e-01 1.804507e+02 
7.066010e-01 1.748043e+02 
7.240540e-01 1.694873e+02 
7.420450e-01 1.643569e+02 
7.593780e-01 1.597111e+02 
7.764720e-01 1.553868e+02 
7.942840e-01 1.511351e+02 
8.116170e-01 1.472282e+02 
8.288310e-01 1.435542e+02 
8.462240e-01 1.400285e+02 
8.631980e-01 1.367561e+02 
8.810700e-01 1.334763e+02 
8.989410e-01 1.303552e+02 
9.166330e-01 1.274065e+02 
9.345640e-01 1.245526e+02 
9.515980e-01 1.219571e+02 
9.688720e-01 1.194321e+02 
9.865640e-01 1.169500e+02 
1.031870e+00 1.110242e+02 
1.063490e+00 1.072106e+02 
1.097920e+00 1.033342e+02 
1.134370e+00 9.948961e+01 
1.167730e+00 9.619379e+01 
1.203830e+00 9.283131e+01 
1.240470e+00 8.962448e+01 
1.275790e+00 8.669989e+01 
1.309140e+00 8.408825e+01 
1.342970e+00 8.155882e+01 
1.378420e+00 7.904618e+01 
1.413200e+00 7.669677e+01 
1.448110e+00 7.444558e+01 
1.484090e+00 7.223836e+01 
1.518820e+00 7.019941e+01 
1.552880e+00 6.828527e+01 
1.588630e+00 6.635922e+01 
1.623230e+00 6.457695e+01 
1.657720e+00 6.287151e+01 
1.692450e+00 6.122649e+01 
1.726400e+00 5.967341e+01 
1.762200e+00 5.809896e+01 
1.797880e+00 5.659333e+01 
1.833270e+00 5.515462e+01 
1.869070e+00 5.375604e+01 
1.903200e+00 5.247062e+01 
1.937740e+00 5.121538e+01 
1.973190e+00 4.997164e+01 
2.007440e+00 4.881246e+01 
2.042160e+00 4.767828e+01 
2.077900e+00 4.654771e+01 
2.112390e+00 4.549636e+01 
2.146220e+00 4.449393e+01 
2.181600e+00 4.348115e+01 
2.216930e+00 4.250332e+01 
2.250760e+00 4.159509e+01 
2.286500e+00 4.066529e+01 
2.321770e+00 3.977860e+01 
2.355950e+00 3.894671e+01 
2.391280e+00 3.810964e+01 
2.426240e+00 3.730605e+01 
2.460670e+00 3.653839e+01 
2.495640e+00 3.578224e+01 
2.531080e+00 3.503815e+01 
2.566220e+00 3.432046e+01 
2.600830e+00 3.363433e+01 
2.635080e+00 3.297550e+01 
2.670340e+00 3.231307e+01 
2.705970e+00 3.166379e+01 
2.740040e+00 3.106087e+01 
2.774520e+00 3.046600e+01 
2.809730e+00 2.987457e+01 
2.844390e+00 2.930839e+01 
2.879960e+00 2.874232e+01 
2.914860e+00 2.820132e+01 
2.949410e+00 2.768009e+01 
2.984440e+00 2.716427e+01 
3.019760e+00 2.665849e+01 
3.054730e+00 2.617151e+01 
3.089030e+00 2.570324e+01 
3.124060e+00 2.523785e+01 
3.159560e+00 2.477867e+01 
3.194710e+00 2.433403e+01 
3.229010e+00 2.391109e+01 
3.263320e+00 2.349789e+01 
3.297930e+00 2.309150e+01 
3.332830e+00 2.269119e+01 
3.368040e+00 2.229676e+01 
3.403300e+00 2.191128e+01 
3.438450e+00 2.153550e+01 
3.473060e+00 2.117467e+01 
3.508440e+00 2.081430e+01 
3.543110e+00 2.046976e+01 
3.577470e+00 2.013465e+01 
3.613040e+00 1.979617e+01 
3.648120e+00 1.947003e+01 
3.682910e+00 1.915403e+01 
3.718050e+00 1.884168e+01 
3.753320e+00 1.853529e+01 
3.787980e+00 1.824065e+01 
3.822290e+00 1.795554e+01 
3.857020e+00 1.767321e+01 
3.891920e+00 1.739546e+01 
3.926650e+00 1.712428e+01 
3.961970e+00 1.685474e+01 
3.997360e+00 1.659062e+01 
4.031670e+00 1.634017e+01 
4.066330e+00 1.609199e+01 
4.101420e+00 1.584632e+01 
4.136200e+00 1.560778e+01 
4.170810e+00 1.537560e+01 
4.206250e+00 1.514229e+01 
4.241580e+00 1.491467e+01 
4.276300e+00 1.469545e+01 
4.310970e+00 1.448100e+01 
4.346120e+00 1.426805e+01 
4.380600e+00 1.406331e+01 
4.414730e+00 1.386479e+01 
4.450350e+00 1.366141e+01 
4.485320e+00 1.346590e+01 
4.519810e+00 1.327675e+01 
4.555430e+00 1.308528e+01 
4.590870e+00 1.289861e+01 
4.625480e+00 1.271983e+01 
4.659910e+00 1.254548e+01 
4.695230e+00 1.236990e+01 
4.729960e+00 1.220062e+01 
4.764450e+00 1.203569e+01 
4.799530e+00 1.187106e+01 
4.834910e+00 1.170825e+01 
4.869700e+00 1.155113e+01 
4.904370e+00 1.139750e+01 
4.939450e+00 1.124498e+01 
4.973940e+00 1.109777e+01 
5.008430e+00 1.095327e+01 
5.043810e+00 1.080773e+01 
5.078840e+00 1.066627e+01 
5.113500e+00 1.052886e+01 
5.148890e+00 1.039113e+01 
5.184210e+00 1.025619e+01 
5.219060e+00 1.012544e+01 
5.253660e+00 9.997938e+00 
5.288570e+00 9.871568e+00 
5.323420e+00 9.747665e+00 
5.358440e+00 9.625371e+00 
5.393590e+00 9.504778e+00 
5.428310e+00 9.387776e+00 
5.462800e+00 9.273562e+00 
5.497640e+00 9.160156e+00 
5.532670e+00 9.048126e+00 
5.567280e+00 8.939328e+00 
5.602000e+00 8.832013e+00 
5.637270e+00 8.724921e+00 
5.672410e+00 8.620040e+00 
5.707020e+00 8.518452e+00 
5.742040e+00 8.417432e+00 
5.777430e+00 8.317050e+00 
5.812210e+00 8.220015e+00 
5.846820e+00 8.125090e+00 
5.881610e+00 8.031221e+00 
5.916510e+00 7.938563e+00 
5.951600e+00 7.847004e+00 
5.986560e+00 7.757285e+00 
6.021830e+00 7.668209e+00 
6.056490e+00 7.582133e+00 
6.091160e+00 7.497439e+00 
6.125830e+00 7.414052e+00 
6.161090e+00 7.330606e+00 
6.195760e+00 7.249922e+00 
6.230420e+00 7.170486e+00 
6.265690e+00 7.090889e+00 
6.300950e+00 7.012689e+00 
6.335620e+00 6.936957e+00 
6.370880e+00 6.861091e+00 
6.405550e+00 6.787726e+00 
6.440220e+00 6.715489e+00 
6.475480e+00 6.643107e+00 
6.510150e+00 6.573026e+00 
6.544810e+00 6.504080e+00 
6.580080e+00 6.434940e+00 
6.614750e+00 6.367961e+00 
6.649410e+00 6.302135e+00 
6.684080e+00 6.237259e+00 
6.719340e+00 6.172220e+00 
6.754010e+00 6.109221e+00 
6.788680e+00 6.047205e+00 
6.823940e+00 5.985020e+00 
6.859800e+00 5.922676e+00 
6.894470e+00 5.863373e+00 
6.929140e+00 5.804930e+00 
6.963800e+00 5.747302e+00 
6.999070e+00 5.689473e+00 
7.033730e+00 5.633557e+00 
7.068400e+00 5.578377e+00 
7.103660e+00 5.523017e+00 
7.138330e+00 5.469378e+00 
7.173600e+00 5.415668e+00 
7.208260e+00 5.363591e+00 
7.243530e+00 5.311301e+00 
7.277600e+00 5.261542e+00 
7.312860e+00 5.210799e+00 
7.348120e+00 5.160726e+00 
7.382790e+00 5.112132e+00 
7.417460e+00 5.064262e+00 
7.452720e+00 5.016258e+00 
7.487390e+00 4.969664e+00 
7.522650e+00 4.922883e+00 
7.557320e+00 4.877580e+00 
7.591990e+00 4.832888e+00 
7.627250e+00 4.788008e+00 
7.662510e+00 4.743698e+00 
7.697180e+00 4.700788e+00 
7.731850e+00 4.658451e+00 
7.766510e+00 4.616647e+00 
7.801180e+00 4.575343e+00 
7.836440e+00 4.533956e+00 
7.871110e+00 4.493823e+00 
7.906380e+00 4.453493e+00 
7.941040e+00 4.414341e+00 
7.976310e+00 4.375040e+00 
8.011570e+00 4.336296e+00 
8.046240e+00 4.298657e+00 
8.080900e+00 4.261474e+00 
8.115570e+00 4.224749e+00 
8.150830e+00 4.187960e+00 
8.185500e+00 4.152211e+00 
8.220770e+00 4.116271e+00 
8.255430e+00 4.081365e+00 
8.290100e+00 4.046969e+00 
8.324770e+00 4.012981e+00 
8.359430e+00 3.979391e+00 
8.394700e+00 3.945604e+00 
8.429960e+00 3.912288e+00 
8.464630e+00 3.879975e+00 
8.499890e+00 3.847485e+00 
8.534560e+00 3.815901e+00 
8.569200e+00 3.784696e+00 
