# Parameters:
# omega_b = 0.023154, omega_m = 0.148661, n_s = 1.010630, h = 71.299213, w = -1.000000, sigma_8 = 0.805512
# z = 0.900000
#
# k[1/Mpc] # P(k):
8.694000e-04 4.197064e+03 
2.077466e-03 9.380555e+03 
3.285532e-03 1.363168e+04 
4.493598e-03 1.705714e+04 
5.701664e-03 1.971902e+04 
6.909730e-03 2.171557e+04 
8.117797e-03 2.317761e+04 
9.325863e-03 2.416989e+04 
1.053393e-02 2.475923e+04 
1.174199e-02 2.500888e+04 
1.295006e-02 2.496082e+04 
1.415813e-02 2.467552e+04 
1.536619e-02 2.420368e+04 
1.657426e-02 2.357601e+04 
1.778233e-02 2.279120e+04 
1.899039e-02 2.188372e+04 
2.019846e-02 2.094818e+04 
2.140652e-02 2.004773e+04 
2.261459e-02 1.917625e+04 
2.382266e-02 1.833774e+04 
2.503072e-02 1.754349e+04 
2.623879e-02 1.679972e+04 
2.744685e-02 1.610965e+04 
2.865492e-02 1.547727e+04 
2.986299e-02 1.490192e+04 
3.100100e-02 1.441194e+04 
3.220400e-02 1.394603e+04 
3.288100e-02 1.370726e+04 
3.424300e-02 1.327261e+04 
3.555100e-02 1.290511e+04 
3.686000e-02 1.258115e+04 
3.795000e-02 1.233870e+04 
3.929100e-02 1.207048e+04 
4.039800e-02 1.186671e+04 
4.164000e-02 1.165112e+04 
4.294400e-02 1.143172e+04 
4.415000e-02 1.123227e+04 
4.542900e-02 1.101431e+04 
4.660900e-02 1.080939e+04 
4.782300e-02 1.058230e+04 
4.892900e-02 1.036753e+04 
5.031200e-02 1.008350e+04 
5.155900e-02 9.811376e+03 
5.238100e-02 9.625521e+03 
5.378200e-02 9.299476e+03 
5.513400e-02 8.974761e+03 
5.627600e-02 8.696373e+03 
5.735300e-02 8.434075e+03 
5.870100e-02 8.109590e+03 
5.988700e-02 7.831666e+03 
6.113500e-02 7.549177e+03 
6.225900e-02 7.305860e+03 
6.340100e-02 7.071598e+03 
6.480200e-02 6.802883e+03 
6.601100e-02 6.589741e+03 
6.725500e-02 6.388754e+03 
6.829100e-02 6.237058e+03 
6.958600e-02 6.063635e+03 
7.071100e-02 5.928957e+03 
7.192300e-02 5.798433e+03 
7.307400e-02 5.687302e+03 
7.412300e-02 5.595717e+03 
7.550400e-02 5.488564e+03 
7.663100e-02 5.409325e+03 
7.791200e-02 5.328509e+03 
7.912700e-02 5.258029e+03 
8.027600e-02 5.194849e+03 
8.138400e-02 5.135955e+03 
8.272200e-02 5.066126e+03 
8.406100e-02 4.996167e+03 
8.534100e-02 4.927022e+03 
8.653800e-02 4.859247e+03 
8.759800e-02 4.797265e+03 
8.900300e-02 4.711384e+03 
9.009000e-02 4.641304e+03 
9.113300e-02 4.570544e+03 
9.239600e-02 4.482748e+03 
9.358000e-02 4.397381e+03 
9.496100e-02 4.293733e+03 
9.608400e-02 4.208481e+03 
9.727500e-02 4.117974e+03 
9.852600e-02 4.020730e+03 
9.973800e-02 3.928127e+03 
1.009000e-01 3.840943e+03 
1.020900e-01 3.753314e+03 
1.034000e-01 3.660339e+03 
1.046000e-01 3.578384e+03 
1.057200e-01 3.506212e+03 
1.069100e-01 3.432757e+03 
1.082500e-01 3.356020e+03 
1.093900e-01 3.295382e+03 
1.105400e-01 3.237417e+03 
1.116900e-01 3.185244e+03 
1.129600e-01 3.130693e+03 
1.142000e-01 3.082868e+03 
1.153300e-01 3.041981e+03 
1.166400e-01 2.998258e+03 
1.177800e-01 2.963119e+03 
1.190000e-01 2.927336e+03 
1.201200e-01 2.896591e+03 
1.213400e-01 2.864129e+03 
1.227100e-01 2.829137e+03 
1.238900e-01 2.799617e+03 
1.250700e-01 2.770200e+03 
1.263200e-01 2.739250e+03 
1.275500e-01 2.708350e+03 
1.287500e-01 2.678019e+03 
1.299900e-01 2.645996e+03 
1.311300e-01 2.616138e+03 
1.323500e-01 2.583270e+03 
1.335900e-01 2.549463e+03 
1.347100e-01 2.518062e+03 
1.359800e-01 2.482328e+03 
1.372100e-01 2.446693e+03 
1.384300e-01 2.411529e+03 
1.395700e-01 2.377920e+03 
1.407700e-01 2.343167e+03 
1.420300e-01 2.306113e+03 
1.432800e-01 2.270196e+03 
1.444500e-01 2.236704e+03 
1.456300e-01 2.203646e+03 
1.468900e-01 2.169446e+03 
1.480500e-01 2.138734e+03 
1.491700e-01 2.110139e+03 
1.503800e-01 2.080462e+03 
1.516400e-01 2.050517e+03 
1.528200e-01 2.024380e+03 
1.540200e-01 1.998324e+03 
1.551900e-01 1.974863e+03 
1.564300e-01 1.950832e+03 
1.576600e-01 1.928196e+03 
1.588700e-01 1.907237e+03 
1.600900e-01 1.886562e+03 
1.612700e-01 1.868061e+03 
1.625400e-01 1.848518e+03 
1.637600e-01 1.830426e+03 
1.649500e-01 1.813288e+03 
1.662200e-01 1.795318e+03 
1.674000e-01 1.778859e+03 
1.685000e-01 1.763770e+03 
1.697500e-01 1.746609e+03 
1.710300e-01 1.729050e+03 
1.722200e-01 1.713014e+03 
1.734400e-01 1.695950e+03 
1.746400e-01 1.679416e+03 
1.758700e-01 1.662450e+03 
1.770900e-01 1.645285e+03 
1.782700e-01 1.628962e+03 
1.794600e-01 1.612313e+03 
1.807000e-01 1.594947e+03 
1.819100e-01 1.578290e+03 
1.830100e-01 1.563002e+03 
1.842200e-01 1.546387e+03 
1.855000e-01 1.529103e+03 
1.867000e-01 1.513016e+03 
1.879200e-01 1.496928e+03 
1.890900e-01 1.481770e+03 
1.902800e-01 1.466703e+03 
1.915200e-01 1.451256e+03 
1.926900e-01 1.436988e+03 
1.939000e-01 1.422703e+03 
1.951700e-01 1.407950e+03 
1.963100e-01 1.395012e+03 
1.975100e-01 1.381861e+03 
1.987800e-01 1.368159e+03 
2.000100e-01 1.355211e+03 
2.012500e-01 1.342621e+03 
2.023400e-01 1.331713e+03 
2.036100e-01 1.319247e+03 
2.048900e-01 1.307104e+03 
2.060400e-01 1.296356e+03 
2.072200e-01 1.285494e+03 
2.084200e-01 1.274768e+03 
2.096900e-01 1.263582e+03 
2.109200e-01 1.252908e+03 
2.121100e-01 1.242778e+03 
2.132700e-01 1.233041e+03 
2.145200e-01 1.222694e+03 
2.157200e-01 1.212904e+03 
2.168800e-01 1.203569e+03 
2.180700e-01 1.194121e+03 
2.193400e-01 1.184160e+03 
2.206000e-01 1.174383e+03 
2.217500e-01 1.165581e+03 
2.229500e-01 1.156516e+03 
2.241400e-01 1.147610e+03 
2.253500e-01 1.138673e+03 
2.264900e-01 1.130362e+03 
2.277100e-01 1.121573e+03 
2.289900e-01 1.112467e+03 
2.301500e-01 1.104324e+03 
2.313600e-01 1.095938e+03 
2.325600e-01 1.087746e+03 
2.337700e-01 1.079590e+03 
2.350000e-01 1.071407e+03 
2.362000e-01 1.063548e+03 
2.374100e-01 1.055751e+03 
2.386500e-01 1.047861e+03 
2.399100e-01 1.039948e+03 
2.410400e-01 1.032987e+03 
2.422500e-01 1.025629e+03 
2.435000e-01 1.018122e+03 
2.447300e-01 1.010840e+03 
2.458700e-01 1.004220e+03 
2.470600e-01 9.973898e+02 
2.483300e-01 9.901898e+02 
2.495600e-01 9.833191e+02 
2.507600e-01 9.767182e+02 
2.519600e-01 9.701950e+02 
2.532200e-01 9.634277e+02 
2.543700e-01 9.573377e+02 
2.555500e-01 9.511687e+02 
2.568000e-01 9.447101e+02 
2.580100e-01 9.385317e+02 
2.592400e-01 9.323249e+02 
2.604100e-01 9.264883e+02 
2.616100e-01 9.205689e+02 
2.628400e-01 9.145707e+02 
2.640600e-01 9.086772e+02 
2.652200e-01 9.031306e+02 
2.664300e-01 8.974086e+02 
2.676500e-01 8.917038e+02 
2.688400e-01 8.861890e+02 
2.700700e-01 8.805443e+02 
2.712400e-01 8.752337e+02 
2.724800e-01 8.696668e+02 
2.736700e-01 8.643708e+02 
2.748800e-01 8.590317e+02 
2.761000e-01 8.537068e+02 
2.773200e-01 8.484399e+02 
2.785400e-01 8.432239e+02 
2.797000e-01 8.383042e+02 
2.808900e-01 8.333093e+02 
2.821400e-01 8.281187e+02 
2.833900e-01 8.229838e+02 
2.845500e-01 8.182504e+02 
2.857800e-01 8.132834e+02 
2.870300e-01 8.082894e+02 
2.882100e-01 8.036242e+02 
2.893900e-01 7.989997e+02 
2.906300e-01 7.941867e+02 
2.918900e-01 7.893478e+02 
2.930500e-01 7.849384e+02 
2.942500e-01 7.804196e+02 
2.954200e-01 7.760490e+02 
2.966500e-01 7.715003e+02 
2.978900e-01 7.669617e+02 
2.990400e-01 7.627940e+02 
3.002700e-01 7.583758e+02 
3.015100e-01 7.539648e+02 
3.026800e-01 7.498438e+02 
3.038500e-01 7.457620e+02 
3.050300e-01 7.416845e+02 
3.062600e-01 7.374728e+02 
3.075000e-01 7.332691e+02 
3.087000e-01 7.292408e+02 
3.099100e-01 7.252179e+02 
3.111200e-01 7.212348e+02 
3.123100e-01 7.173567e+02 
3.135300e-01 7.134186e+02 
3.147300e-01 7.095818e+02 
3.159900e-01 7.055920e+02 
3.171800e-01 7.018620e+02 
3.183700e-01 6.981680e+02 
3.196300e-01 6.942937e+02 
3.208400e-01 6.906085e+02 
3.220300e-01 6.870176e+02 
3.232000e-01 6.835248e+02 
3.244300e-01 6.798888e+02 
3.256700e-01 6.762576e+02 
3.269200e-01 6.726315e+02 
3.280800e-01 6.692970e+02 
3.292500e-01 6.659718e+02 
3.304800e-01 6.625102e+02 
3.317100e-01 6.590802e+02 
3.328900e-01 6.558191e+02 
3.340700e-01 6.525864e+02 
3.353600e-01 6.490944e+02 
3.365300e-01 6.459594e+02 
3.377100e-01 6.428249e+02 
3.389200e-01 6.396385e+02 
3.401600e-01 6.364022e+02 
3.413700e-01 6.332829e+02 
3.425300e-01 6.303254e+02 
3.437700e-01 6.271911e+02 
3.449800e-01 6.241594e+02 
3.461800e-01 6.211786e+02 
3.473600e-01 6.182771e+02 
3.485800e-01 6.153146e+02 
3.498100e-01 6.123536e+02 
3.510200e-01 6.094657e+02 
3.522000e-01 6.066729e+02 
3.533900e-01 6.038797e+02 
3.546400e-01 6.009866e+02 
3.558400e-01 5.982337e+02 
3.570600e-01 5.954582e+02 
3.582700e-01 5.927284e+02 
3.595000e-01 5.899767e+02 
3.607100e-01 5.873011e+02 
3.618900e-01 5.847199e+02 
3.631200e-01 5.820513e+02 
3.643200e-01 5.794692e+02 
3.655500e-01 5.768441e+02 
3.667300e-01 5.743461e+02 
3.679500e-01 5.718001e+02 
3.691900e-01 5.692335e+02 
3.703600e-01 5.668312e+02 
3.715700e-01 5.643664e+02 
3.727700e-01 5.619413e+02 
3.739900e-01 5.595013e+02 
3.752000e-01 5.571116e+02 
3.763900e-01 5.547797e+02 
3.775800e-01 5.524658e+02 
3.788200e-01 5.500737e+02 
3.800300e-01 5.477580e+02 
3.812100e-01 5.455230e+02 
3.824200e-01 5.432527e+02 
3.836100e-01 5.410370e+02 
3.848600e-01 5.387278e+02 
3.860400e-01 5.365647e+02 
3.872400e-01 5.343815e+02 
3.884600e-01 5.321880e+02 
3.896500e-01 5.300681e+02 
3.908700e-01 5.279111e+02 
3.920600e-01 5.258230e+02 
3.933100e-01 5.236464e+02 
3.945300e-01 5.215383e+02 
3.957200e-01 5.195053e+02 
3.969300e-01 5.174557e+02 
3.981700e-01 5.153711e+02 
3.993500e-01 5.134021e+02 
4.094840e-01 4.970661e+02 
4.272360e-01 4.708826e+02 
4.454600e-01 4.466466e+02 
4.630560e-01 4.254091e+02 
4.804610e-01 4.062026e+02 
4.980690e-01 3.883613e+02 
5.159230e-01 3.717174e+02 
5.317440e-01 3.580588e+02 
5.489640e-01 3.442557e+02 
5.671990e-01 3.307448e+02 
5.838690e-01 3.192854e+02 
6.018840e-01 3.077812e+02 
6.202330e-01 2.969235e+02 
6.379250e-01 2.871825e+02 
6.545410e-01 2.786605e+02 
6.714560e-01 2.705166e+02 
6.892080e-01 2.625218e+02 
7.066010e-01 2.551807e+02 
7.240540e-01 2.482522e+02 
7.420450e-01 2.415437e+02 
7.593780e-01 2.354494e+02 
7.764720e-01 2.297589e+02 
7.942840e-01 2.241450e+02 
8.116170e-01 2.189629e+02 
8.288310e-01 2.140691e+02 
8.462240e-01 2.093532e+02 
8.631980e-01 2.049562e+02 
8.810700e-01 2.005301e+02 
8.989410e-01 1.962978e+02 
9.166330e-01 1.922800e+02 
9.345640e-01 1.883720e+02 
9.515980e-01 1.847986e+02 
9.688720e-01 1.813053e+02 
9.865640e-01 1.778515e+02 
1.031870e+00 1.695411e+02 
1.063490e+00 1.641323e+02 
1.097920e+00 1.585880e+02 
1.134370e+00 1.530398e+02 
1.167730e+00 1.482435e+02 
1.203830e+00 1.433078e+02 
1.240470e+00 1.385689e+02 
1.275790e+00 1.342113e+02 
1.309140e+00 1.303019e+02 
1.342970e+00 1.264867e+02 
1.378420e+00 1.226810e+02 
1.413200e+00 1.191034e+02 
1.448110e+00 1.156586e+02 
1.484090e+00 1.122684e+02 
1.518820e+00 1.091241e+02 
1.552880e+00 1.061613e+02 
1.588630e+00 1.031716e+02 
1.623230e+00 1.003971e+02 
1.657720e+00 9.773592e+01 
1.692450e+00 9.516348e+01 
1.726400e+00 9.272812e+01 
1.762200e+00 9.025441e+01 
1.797880e+00 8.788562e+01 
1.833270e+00 8.561831e+01 
1.869070e+00 8.341053e+01 
1.903200e+00 8.138003e+01 
1.937740e+00 7.939502e+01 
1.973190e+00 7.742555e+01 
2.007440e+00 7.558915e+01 
2.042160e+00 7.379122e+01 
2.077900e+00 7.199767e+01 
2.112390e+00 7.032944e+01 
2.146220e+00 6.873769e+01 
2.181600e+00 6.712919e+01 
2.216930e+00 6.557595e+01 
2.250760e+00 6.413298e+01 
2.286500e+00 6.265555e+01 
2.321770e+00 6.124667e+01 
2.355950e+00 5.992512e+01 
2.391280e+00 5.859507e+01 
2.426240e+00 5.731893e+01 
2.460670e+00 5.610023e+01 
2.495640e+00 5.489985e+01 
2.531080e+00 5.371880e+01 
2.566220e+00 5.258033e+01 
2.600830e+00 5.149246e+01 
2.635080e+00 5.044831e+01 
2.670340e+00 4.939909e+01 
2.705970e+00 4.837117e+01 
2.740040e+00 4.741698e+01 
2.774520e+00 4.647582e+01 
2.809730e+00 4.554101e+01 
2.844390e+00 4.464672e+01 
2.879960e+00 4.375321e+01 
2.914860e+00 4.289982e+01 
2.949410e+00 4.207814e+01 
2.984440e+00 4.126588e+01 
3.019760e+00 4.046977e+01 
3.054730e+00 3.970359e+01 
3.089030e+00 3.896797e+01 
3.124060e+00 3.823718e+01 
3.159560e+00 3.751649e+01 
3.194710e+00 3.681952e+01 
3.229010e+00 3.615702e+01 
3.263320e+00 3.551065e+01 
3.297930e+00 3.487518e+01 
3.332830e+00 3.424957e+01 
3.368040e+00 3.363388e+01 
3.403300e+00 3.303274e+01 
3.438450e+00 3.244748e+01 
3.473060e+00 3.188579e+01 
3.508440e+00 3.132542e+01 
3.543110e+00 3.078995e+01 
3.577470e+00 3.026996e+01 
3.613040e+00 2.974499e+01 
3.648120e+00 2.923964e+01 
3.682910e+00 2.875036e+01 
3.718050e+00 2.826729e+01 
3.753320e+00 2.779383e+01 
3.787980e+00 2.733904e+01 
3.822290e+00 2.689931e+01 
3.857020e+00 2.646435e+01 
3.891920e+00 2.603677e+01 
3.926650e+00 2.561978e+01 
3.961970e+00 2.520560e+01 
3.997360e+00 2.480030e+01 
4.031670e+00 2.441615e+01 
4.066330e+00 2.403594e+01 
4.101420e+00 2.365967e+01 
4.136200e+00 2.329496e+01 
4.170810e+00 2.294002e+01 
4.206250e+00 2.258387e+01 
4.241580e+00 2.223656e+01 
4.276300e+00 2.190245e+01 
4.310970e+00 2.157584e+01 
4.346120e+00 2.125176e+01 
4.380600e+00 2.094052e+01 
4.414730e+00 2.063882e+01 
4.450350e+00 2.033028e+01 
4.485320e+00 2.003374e+01 
4.519810e+00 1.974717e+01 
4.555430e+00 1.945725e+01 
4.590870e+00 1.917479e+01 
4.625480e+00 1.890457e+01 
4.659910e+00 1.864110e+01 
4.695230e+00 1.837615e+01 
4.729960e+00 1.812081e+01 
4.764450e+00 1.787219e+01 
4.799530e+00 1.762429e+01 
4.834910e+00 1.737915e+01 
4.869700e+00 1.714292e+01 
4.904370e+00 1.691201e+01 
4.939450e+00 1.668287e+01 
4.973940e+00 1.646198e+01 
5.008430e+00 1.624519e+01 
5.043810e+00 1.602705e+01 
5.078840e+00 1.581517e+01 
5.113500e+00 1.560938e+01 
5.148890e+00 1.540335e+01 
5.184210e+00 1.520153e+01 
5.219060e+00 1.500608e+01 
5.253660e+00 1.481569e+01 
5.288570e+00 1.462701e+01 
5.323420e+00 1.444214e+01 
5.358440e+00 1.425980e+01 
5.393590e+00 1.408001e+01 
5.428310e+00 1.390573e+01 
5.462800e+00 1.373569e+01 
5.497640e+00 1.356685e+01 
5.532670e+00 1.340022e+01 
5.567280e+00 1.323845e+01 
5.602000e+00 1.307890e+01 
5.637270e+00 1.291982e+01 
5.672410e+00 1.276406e+01 
5.707020e+00 1.261320e+01 
5.742040e+00 1.246333e+01 
5.777430e+00 1.231443e+01 
5.812210e+00 1.217051e+01 
5.846820e+00 1.202981e+01 
5.881610e+00 1.189071e+01 
5.916510e+00 1.175341e+01 
5.951600e+00 1.161782e+01 
5.986560e+00 1.148501e+01 
6.021830e+00 1.135315e+01 
6.056490e+00 1.122579e+01 
6.091160e+00 1.110052e+01 
6.125830e+00 1.097719e+01 
6.161090e+00 1.085379e+01 
6.195760e+00 1.073453e+01 
6.230420e+00 1.061712e+01 
6.265690e+00 1.049947e+01 
6.300950e+00 1.038397e+01 
6.335620e+00 1.027212e+01 
6.370880e+00 1.016007e+01 
6.405550e+00 1.005174e+01 
6.440220e+00 9.945087e+00 
6.475480e+00 9.838217e+00 
6.510150e+00 9.734762e+00 
6.544810e+00 9.633024e+00 
6.580080e+00 9.530999e+00 
6.614750e+00 9.432159e+00 
6.649410e+00 9.335046e+00 
6.684080e+00 9.239339e+00 
6.719340e+00 9.143388e+00 
6.754010e+00 9.050447e+00 
6.788680e+00 8.958963e+00 
6.823940e+00 8.867227e+00 
6.859800e+00 8.775253e+00 
6.894470e+00 8.687777e+00 
6.929140e+00 8.601570e+00 
6.963800e+00 8.516564e+00 
6.999070e+00 8.431260e+00 
7.033730e+00 8.348786e+00 
7.068400e+00 8.267397e+00 
7.103660e+00 8.185740e+00 
7.138330e+00 8.106614e+00 
7.173600e+00 8.027374e+00 
7.208260e+00 7.950540e+00 
7.243530e+00 7.873388e+00 
7.277600e+00 7.799963e+00 
7.312860e+00 7.725076e+00 
7.348120e+00 7.651175e+00 
7.382790e+00 7.579455e+00 
7.417460e+00 7.508790e+00 
7.452720e+00 7.437918e+00 
7.487390e+00 7.369126e+00 
7.522650e+00 7.300057e+00 
7.557320e+00 7.233146e+00 
7.591990e+00 7.167127e+00 
7.627250e+00 7.100831e+00 
7.662510e+00 7.035373e+00 
7.697180e+00 6.971964e+00 
7.731850e+00 6.909393e+00 
7.766510e+00 6.847609e+00 
7.801180e+00 6.786563e+00 
7.836440e+00 6.725369e+00 
7.871110e+00 6.666016e+00 
7.906380e+00 6.606371e+00 
7.941040e+00 6.548467e+00 
7.976310e+00 6.490318e+00 
8.011570e+00 6.432965e+00 
8.046240e+00 6.377245e+00 
8.080900e+00 6.322201e+00 
8.115570e+00 6.267828e+00 
8.150830e+00 6.213331e+00 
8.185500e+00 6.160377e+00 
8.220770e+00 6.107138e+00 
8.255430e+00 6.055431e+00 
8.290100e+00 6.004427e+00 
8.324770e+00 5.954023e+00 
8.359430e+00 5.904209e+00 
8.394700e+00 5.854102e+00 
8.429960e+00 5.804673e+00 
8.464630e+00 5.756710e+00 
8.499890e+00 5.708485e+00 
8.534560e+00 5.661603e+00 
8.569200e+00 5.615285e+00 
