# Parameters:
# omega_b = 0.021862, omega_m = 0.150591, n_s = 1.004331, h = 78.622047, w = -1.000000, sigma_8 = 0.868504
# z = 0.900000
#
# k[1/Mpc] # P(k):
8.694000e-04 4.302454e+03 
2.077466e-03 9.578629e+03 
3.285532e-03 1.390948e+04 
4.493598e-03 1.739297e+04 
5.701664e-03 2.010836e+04 
6.909730e-03 2.215222e+04 
8.117797e-03 2.365294e+04 
9.325863e-03 2.467583e+04 
1.053393e-02 2.529036e+04 
1.174199e-02 2.556329e+04 
1.295006e-02 2.553776e+04 
1.415813e-02 2.527458e+04 
1.536619e-02 2.482431e+04 
1.657426e-02 2.421400e+04 
1.778233e-02 2.341888e+04 
1.899039e-02 2.244289e+04 
2.019846e-02 2.141977e+04 
2.140652e-02 2.045493e+04 
2.261459e-02 1.953651e+04 
2.382266e-02 1.865841e+04 
2.503072e-02 1.782983e+04 
2.623879e-02 1.705686e+04 
2.744685e-02 1.634314e+04 
2.865492e-02 1.569226e+04 
2.986299e-02 1.510327e+04 
3.100100e-02 1.460508e+04 
3.220400e-02 1.413485e+04 
3.288100e-02 1.389578e+04 
3.424300e-02 1.346413e+04 
3.555100e-02 1.310331e+04 
3.686000e-02 1.278920e+04 
3.795000e-02 1.255667e+04 
3.929100e-02 1.230242e+04 
4.039800e-02 1.211054e+04 
4.164000e-02 1.190792e+04 
4.294400e-02 1.170053e+04 
4.415000e-02 1.151028e+04 
4.542900e-02 1.129858e+04 
4.660900e-02 1.109664e+04 
4.782300e-02 1.086794e+04 
4.892900e-02 1.064877e+04 
5.031200e-02 1.035482e+04 
5.155900e-02 1.006971e+04 
5.238100e-02 9.873673e+03 
5.378200e-02 9.528024e+03 
5.513400e-02 9.182436e+03 
5.627600e-02 8.885829e+03 
5.735300e-02 8.606599e+03 
5.870100e-02 8.261998e+03 
5.988700e-02 7.967975e+03 
6.113500e-02 7.670545e+03 
6.225900e-02 7.415899e+03 
6.340100e-02 7.172338e+03 
6.480200e-02 6.894867e+03 
6.601100e-02 6.676911e+03 
6.725500e-02 6.473202e+03 
6.829100e-02 6.321017e+03 
6.958600e-02 6.148339e+03 
7.071100e-02 6.015594e+03 
7.192300e-02 5.888043e+03 
7.307400e-02 5.780333e+03 
7.412300e-02 5.692171e+03 
7.550400e-02 5.589742e+03 
7.663100e-02 5.514285e+03 
7.791200e-02 5.437475e+03 
7.912700e-02 5.370278e+03 
8.027600e-02 5.309697e+03 
8.138400e-02 5.252838e+03 
8.272200e-02 5.184778e+03 
8.406100e-02 5.115853e+03 
8.534100e-02 5.046898e+03 
8.653800e-02 4.978682e+03 
8.759800e-02 4.915954e+03 
8.900300e-02 4.828549e+03 
9.009000e-02 4.756870e+03 
9.113300e-02 4.684216e+03 
9.239600e-02 4.593847e+03 
9.358000e-02 4.505726e+03 
9.496100e-02 4.398387e+03 
9.608400e-02 4.309918e+03 
9.727500e-02 4.215866e+03 
9.852600e-02 4.114512e+03 
9.973800e-02 4.017920e+03 
1.009000e-01 3.926926e+03 
1.020900e-01 3.835422e+03 
1.034000e-01 3.738410e+03 
1.046000e-01 3.652975e+03 
1.057200e-01 3.578007e+03 
1.069100e-01 3.501850e+03 
1.082500e-01 3.422746e+03 
1.093900e-01 3.360615e+03 
1.105400e-01 3.301449e+03 
1.116900e-01 3.248808e+03 
1.129600e-01 3.193997e+03 
1.142000e-01 3.146564e+03 
1.153300e-01 3.106250e+03 
1.166400e-01 3.063527e+03 
1.177800e-01 3.029466e+03 
1.190000e-01 2.994918e+03 
1.201200e-01 2.965335e+03 
1.213400e-01 2.934127e+03 
1.227100e-01 2.900306e+03 
1.238900e-01 2.871690e+03 
1.250700e-01 2.842872e+03 
1.263200e-01 2.812387e+03 
1.275500e-01 2.781589e+03 
1.287500e-01 2.751148e+03 
1.299900e-01 2.718687e+03 
1.311300e-01 2.688239e+03 
1.323500e-01 2.654454e+03 
1.335900e-01 2.619564e+03 
1.347100e-01 2.586979e+03 
1.359800e-01 2.549831e+03 
1.372100e-01 2.512655e+03 
1.384300e-01 2.475952e+03 
1.395700e-01 2.440827e+03 
1.407700e-01 2.404512e+03 
1.420300e-01 2.365827e+03 
1.432800e-01 2.328335e+03 
1.444500e-01 2.293495e+03 
1.456300e-01 2.259110e+03 
1.468900e-01 2.223682e+03 
1.480500e-01 2.191912e+03 
1.491700e-01 2.162430e+03 
1.503800e-01 2.131956e+03 
1.516400e-01 2.101254e+03 
1.528200e-01 2.074658e+03 
1.540200e-01 2.048145e+03 
1.551900e-01 2.024464e+03 
1.564300e-01 2.000255e+03 
1.576600e-01 1.977540e+03 
1.588700e-01 1.956617e+03 
1.600900e-01 1.935982e+03 
1.612700e-01 1.917633e+03 
1.625400e-01 1.898249e+03 
1.637600e-01 1.880309e+03 
1.649500e-01 1.863319e+03 
1.662200e-01 1.845491e+03 
1.674000e-01 1.829088e+03 
1.685000e-01 1.814051e+03 
1.697500e-01 1.796864e+03 
1.710300e-01 1.779196e+03 
1.722200e-01 1.763060e+03 
1.734400e-01 1.745709e+03 
1.746400e-01 1.728889e+03 
1.758700e-01 1.711578e+03 
1.770900e-01 1.693961e+03 
1.782700e-01 1.677207e+03 
1.794600e-01 1.660058e+03 
1.807000e-01 1.642132e+03 
1.819100e-01 1.624936e+03 
1.830100e-01 1.609120e+03 
1.842200e-01 1.591925e+03 
1.855000e-01 1.574040e+03 
1.867000e-01 1.557402e+03 
1.879200e-01 1.540766e+03 
1.890900e-01 1.525097e+03 
1.902800e-01 1.509561e+03 
1.915200e-01 1.493634e+03 
1.926900e-01 1.478937e+03 
1.939000e-01 1.464270e+03 
1.951700e-01 1.449123e+03 
1.963100e-01 1.435856e+03 
1.975100e-01 1.422413e+03 
1.987800e-01 1.408408e+03 
2.000100e-01 1.395188e+03 
2.012500e-01 1.382368e+03 
2.023400e-01 1.371260e+03 
2.036100e-01 1.358572e+03 
2.048900e-01 1.346238e+03 
2.060400e-01 1.335318e+03 
2.072200e-01 1.324285e+03 
2.084200e-01 1.313402e+03 
2.096900e-01 1.302052e+03 
2.109200e-01 1.291221e+03 
2.121100e-01 1.280948e+03 
2.132700e-01 1.271073e+03 
2.145200e-01 1.260581e+03 
2.157200e-01 1.250663e+03 
2.168800e-01 1.241212e+03 
2.180700e-01 1.231645e+03 
2.193400e-01 1.221572e+03 
2.206000e-01 1.211709e+03 
2.217500e-01 1.202829e+03 
2.229500e-01 1.193682e+03 
2.241400e-01 1.184759e+03 
2.253500e-01 1.175806e+03 
2.264900e-01 1.167479e+03 
2.277100e-01 1.158717e+03 
2.289900e-01 1.149688e+03 
2.301500e-01 1.141612e+03 
2.313600e-01 1.133296e+03 
2.325600e-01 1.125278e+03 
2.337700e-01 1.117296e+03 
2.350000e-01 1.109285e+03 
2.362000e-01 1.101641e+03 
2.374100e-01 1.094115e+03 
2.386500e-01 1.086499e+03 
2.399100e-01 1.078859e+03 
2.410400e-01 1.072211e+03 
2.422500e-01 1.065191e+03 
2.435000e-01 1.058029e+03 
2.447300e-01 1.051091e+03 
2.458700e-01 1.044821e+03 
2.470600e-01 1.038352e+03 
2.483300e-01 1.031531e+03 
2.495600e-01 1.025024e+03 
2.507600e-01 1.018773e+03 
2.519600e-01 1.012595e+03 
2.532200e-01 1.006186e+03 
2.543700e-01 1.000394e+03 
2.555500e-01 9.945098e+02 
2.568000e-01 9.883491e+02 
2.580100e-01 9.824552e+02 
2.592400e-01 9.764835e+02 
2.604100e-01 9.708456e+02 
2.616100e-01 9.651272e+02 
2.628400e-01 9.593322e+02 
2.640600e-01 9.535754e+02 
2.652200e-01 9.481325e+02 
2.664300e-01 9.425168e+02 
2.676500e-01 9.369178e+02 
2.688400e-01 9.314539e+02 
2.700700e-01 9.258293e+02 
2.712400e-01 9.205371e+02 
2.724800e-01 9.149892e+02 
2.736700e-01 9.096767e+02 
2.748800e-01 9.042852e+02 
2.761000e-01 8.989079e+02 
2.773200e-01 8.935887e+02 
2.785400e-01 8.883046e+02 
2.797000e-01 8.832864e+02 
2.808900e-01 8.781915e+02 
2.821400e-01 8.728966e+02 
2.833900e-01 8.676569e+02 
2.845500e-01 8.627960e+02 
2.857800e-01 8.576949e+02 
2.870300e-01 8.525660e+02 
2.882100e-01 8.477746e+02 
2.893900e-01 8.430123e+02 
2.906300e-01 8.380490e+02 
2.918900e-01 8.330590e+02 
2.930500e-01 8.285117e+02 
2.942500e-01 8.238490e+02 
2.954200e-01 8.193318e+02 
2.966500e-01 8.146302e+02 
2.978900e-01 8.099389e+02 
2.990400e-01 8.056310e+02 
3.002700e-01 8.010613e+02 
3.015100e-01 7.964975e+02 
3.026800e-01 7.922336e+02 
3.038500e-01 7.880103e+02 
3.050300e-01 7.837912e+02 
3.062600e-01 7.794325e+02 
3.075000e-01 7.750819e+02 
3.087000e-01 7.709127e+02 
3.099100e-01 7.667491e+02 
3.111200e-01 7.626267e+02 
3.123100e-01 7.586132e+02 
3.135300e-01 7.545375e+02 
3.147300e-01 7.505666e+02 
3.159900e-01 7.464372e+02 
3.171800e-01 7.425772e+02 
3.183700e-01 7.387546e+02 
3.196300e-01 7.347454e+02 
3.208400e-01 7.309318e+02 
3.220300e-01 7.272157e+02 
3.232000e-01 7.236015e+02 
3.244300e-01 7.198392e+02 
3.256700e-01 7.160818e+02 
3.269200e-01 7.123296e+02 
3.280800e-01 7.088790e+02 
3.292500e-01 7.054385e+02 
3.304800e-01 7.018569e+02 
3.317100e-01 6.983080e+02 
3.328900e-01 6.949336e+02 
3.340700e-01 6.915887e+02 
3.353600e-01 6.879750e+02 
3.365300e-01 6.847307e+02 
3.377100e-01 6.814867e+02 
3.389200e-01 6.781891e+02 
3.401600e-01 6.748397e+02 
3.413700e-01 6.716108e+02 
3.425300e-01 6.685491e+02 
3.437700e-01 6.653043e+02 
3.449800e-01 6.621657e+02 
3.461800e-01 6.590796e+02 
3.473600e-01 6.560753e+02 
3.485800e-01 6.530069e+02 
3.498100e-01 6.499400e+02 
3.510200e-01 6.469487e+02 
3.522000e-01 6.440558e+02 
3.533900e-01 6.411625e+02 
3.546400e-01 6.381640e+02 
3.558400e-01 6.353106e+02 
3.570600e-01 6.324337e+02 
3.582700e-01 6.296042e+02 
3.595000e-01 6.267519e+02 
3.607100e-01 6.239774e+02 
3.618900e-01 6.212999e+02 
3.631200e-01 6.185317e+02 
3.643200e-01 6.158531e+02 
3.655500e-01 6.131299e+02 
3.667300e-01 6.105385e+02 
3.679500e-01 6.078950e+02 
3.691900e-01 6.052301e+02 
3.703600e-01 6.027358e+02 
3.715700e-01 6.001764e+02 
3.727700e-01 5.976583e+02 
3.739900e-01 5.951240e+02 
3.752000e-01 5.926404e+02 
3.763900e-01 5.902170e+02 
3.775800e-01 5.878123e+02 
3.788200e-01 5.853262e+02 
3.800300e-01 5.829195e+02 
3.812100e-01 5.805952e+02 
3.824200e-01 5.782333e+02 
3.836100e-01 5.759283e+02 
3.848600e-01 5.735259e+02 
3.860400e-01 5.712754e+02 
3.872400e-01 5.690041e+02 
3.884600e-01 5.667206e+02 
3.896500e-01 5.645130e+02 
3.908700e-01 5.622669e+02 
3.920600e-01 5.600925e+02 
3.933100e-01 5.578259e+02 
3.945300e-01 5.556306e+02 
3.957200e-01 5.535118e+02 
3.969300e-01 5.513752e+02 
3.981700e-01 5.492021e+02 
3.993500e-01 5.471496e+02 
4.094840e-01 5.301110e+02 
4.272360e-01 5.027611e+02 
4.454600e-01 4.774138e+02 
4.630560e-01 4.551820e+02 
4.804610e-01 4.350649e+02 
4.980690e-01 4.163682e+02 
5.159230e-01 3.989180e+02 
5.317440e-01 3.845896e+02 
5.489640e-01 3.700997e+02 
5.671990e-01 3.559049e+02 
5.838690e-01 3.438549e+02 
6.018840e-01 3.317446e+02 
6.202330e-01 3.202993e+02 
6.379250e-01 3.100227e+02 
6.545410e-01 3.010188e+02 
6.714560e-01 2.924051e+02 
6.892080e-01 2.839411e+02 
7.066010e-01 2.761582e+02 
7.240540e-01 2.688071e+02 
7.420450e-01 2.616799e+02 
7.593780e-01 2.551989e+02 
7.764720e-01 2.491423e+02 
7.942840e-01 2.431626e+02 
8.116170e-01 2.376367e+02 
8.288310e-01 2.324142e+02 
8.462240e-01 2.273779e+02 
8.631980e-01 2.226784e+02 
8.810700e-01 2.179454e+02 
8.989410e-01 2.134166e+02 
9.166330e-01 2.091149e+02 
9.345640e-01 2.049282e+02 
9.515980e-01 2.010975e+02 
9.688720e-01 1.973506e+02 
9.865640e-01 1.936441e+02 
1.031870e+00 1.847194e+02 
1.063490e+00 1.789047e+02 
1.097920e+00 1.729404e+02 
1.134370e+00 1.669670e+02 
1.167730e+00 1.617990e+02 
1.203830e+00 1.564774e+02 
1.240470e+00 1.513644e+02 
1.275790e+00 1.466594e+02 
1.309140e+00 1.424367e+02 
1.342970e+00 1.383125e+02 
1.378420e+00 1.341966e+02 
1.413200e+00 1.303252e+02 
1.448110e+00 1.265955e+02 
1.484090e+00 1.229229e+02 
1.518820e+00 1.195151e+02 
1.552880e+00 1.163026e+02 
1.588630e+00 1.130597e+02 
1.623230e+00 1.100484e+02 
1.657720e+00 1.071591e+02 
1.692450e+00 1.043654e+02 
1.726400e+00 1.017189e+02 
1.762200e+00 9.902946e+01 
1.797880e+00 9.645377e+01 
1.833270e+00 9.398715e+01 
1.869070e+00 9.158419e+01 
1.903200e+00 8.937385e+01 
1.937740e+00 8.721234e+01 
1.973190e+00 8.506661e+01 
2.007440e+00 8.306548e+01 
2.042160e+00 8.110582e+01 
2.077900e+00 7.915007e+01 
2.112390e+00 7.733084e+01 
2.146220e+00 7.559407e+01 
2.181600e+00 7.383873e+01 
2.216930e+00 7.214331e+01 
2.250760e+00 7.056775e+01 
2.286500e+00 6.895409e+01 
2.321770e+00 6.741501e+01 
2.355950e+00 6.597117e+01 
2.391280e+00 6.451740e+01 
2.426240e+00 6.312240e+01 
2.460670e+00 6.178995e+01 
2.495640e+00 6.047717e+01 
2.531080e+00 5.918509e+01 
2.566220e+00 5.793948e+01 
2.600830e+00 5.674905e+01 
2.635080e+00 5.560633e+01 
2.670340e+00 5.445778e+01 
2.705970e+00 5.333231e+01 
2.740040e+00 5.228735e+01 
2.774520e+00 5.125629e+01 
2.809730e+00 5.023218e+01 
2.844390e+00 4.925238e+01 
2.879960e+00 4.827329e+01 
2.914860e+00 4.733789e+01 
2.949410e+00 4.643712e+01 
2.984440e+00 4.554665e+01 
3.019760e+00 4.467366e+01 
3.054730e+00 4.383336e+01 
3.089030e+00 4.302651e+01 
3.124060e+00 4.222481e+01 
3.159560e+00 4.143401e+01 
3.194710e+00 4.066918e+01 
3.229010e+00 3.994215e+01 
3.263320e+00 3.923277e+01 
3.297930e+00 3.853524e+01 
3.332830e+00 3.784834e+01 
3.368040e+00 3.717228e+01 
3.403300e+00 3.651217e+01 
3.438450e+00 3.586945e+01 
3.473060e+00 3.525258e+01 
3.508440e+00 3.463701e+01 
3.543110e+00 3.404875e+01 
3.577470e+00 3.347744e+01 
3.613040e+00 3.290061e+01 
3.648120e+00 3.234524e+01 
3.682910e+00 3.180748e+01 
3.718050e+00 3.127651e+01 
3.753320e+00 3.075605e+01 
3.787980e+00 3.025609e+01 
3.822290e+00 2.977265e+01 
3.857020e+00 2.929440e+01 
3.891920e+00 2.882423e+01 
3.926650e+00 2.836567e+01 
3.961970e+00 2.791016e+01 
3.997360e+00 2.746439e+01 
4.031670e+00 2.704184e+01 
4.066330e+00 2.662358e+01 
4.101420e+00 2.620963e+01 
4.136200e+00 2.580834e+01 
4.170810e+00 2.541779e+01 
4.206250e+00 2.502585e+01 
4.241580e+00 2.464360e+01 
4.276300e+00 2.427586e+01 
4.310970e+00 2.391637e+01 
4.346120e+00 2.355962e+01 
4.380600e+00 2.321699e+01 
4.414730e+00 2.288483e+01 
4.450350e+00 2.254512e+01 
4.485320e+00 2.221859e+01 
4.519810e+00 2.190302e+01 
4.555430e+00 2.158374e+01 
4.590870e+00 2.127265e+01 
4.625480e+00 2.097503e+01 
4.659910e+00 2.068482e+01 
4.695230e+00 2.039296e+01 
4.729960e+00 2.011164e+01 
4.764450e+00 1.983773e+01 
4.799530e+00 1.956458e+01 
4.834910e+00 1.929447e+01 
4.869700e+00 1.903414e+01 
4.904370e+00 1.877966e+01 
4.939450e+00 1.852711e+01 
4.973940e+00 1.828364e+01 
5.008430e+00 1.804467e+01 
5.043810e+00 1.780420e+01 
5.078840e+00 1.757060e+01 
5.113500e+00 1.734370e+01 
5.148890e+00 1.711653e+01 
5.184210e+00 1.689397e+01 
5.219060e+00 1.667843e+01 
5.253660e+00 1.646844e+01 
5.288570e+00 1.626033e+01 
5.323420e+00 1.605640e+01 
5.358440e+00 1.585525e+01 
5.393590e+00 1.565690e+01 
5.428310e+00 1.546460e+01 
5.462800e+00 1.527697e+01 
5.497640e+00 1.509065e+01 
5.532670e+00 1.490676e+01 
5.567280e+00 1.472821e+01 
5.602000e+00 1.455209e+01 
5.637270e+00 1.437648e+01 
5.672410e+00 1.420452e+01 
5.707020e+00 1.403796e+01 
5.742040e+00 1.387246e+01 
5.777430e+00 1.370804e+01 
5.812210e+00 1.354909e+01 
5.846820e+00 1.339369e+01 
5.881610e+00 1.324003e+01 
5.916510e+00 1.308835e+01 
5.951600e+00 1.293855e+01 
5.986560e+00 1.279180e+01 
6.021830e+00 1.264609e+01 
6.056490e+00 1.250534e+01 
6.091160e+00 1.236688e+01 
6.125830e+00 1.223055e+01 
6.161090e+00 1.209414e+01 
6.195760e+00 1.196229e+01 
6.230420e+00 1.183246e+01 
6.265690e+00 1.170236e+01 
6.300950e+00 1.157462e+01 
6.335620e+00 1.145091e+01 
6.370880e+00 1.132696e+01 
6.405550e+00 1.120711e+01 
6.440220e+00 1.108910e+01 
6.475480e+00 1.097085e+01 
6.510150e+00 1.085636e+01 
6.544810e+00 1.074375e+01 
6.580080e+00 1.063081e+01 
6.614750e+00 1.052140e+01 
6.649410e+00 1.041387e+01 
6.684080e+00 1.030789e+01 
6.719340e+00 1.020163e+01 
6.754010e+00 1.009870e+01 
6.788680e+00 9.997348e+00 
6.823940e+00 9.895717e+00 
6.859800e+00 9.793818e+00 
6.894470e+00 9.696876e+00 
6.929140e+00 9.601332e+00 
6.963800e+00 9.507112e+00 
6.999070e+00 9.412557e+00 
7.033730e+00 9.321111e+00 
7.068400e+00 9.230863e+00 
7.103660e+00 9.140314e+00 
7.138330e+00 9.052558e+00 
7.173600e+00 8.964652e+00 
7.208260e+00 8.879411e+00 
7.243530e+00 8.793816e+00 
7.277600e+00 8.712335e+00 
7.312860e+00 8.629217e+00 
7.348120e+00 8.547189e+00 
7.382790e+00 8.467580e+00 
7.417460e+00 8.389119e+00 
7.452720e+00 8.310416e+00 
7.487390e+00 8.234019e+00 
7.522650e+00 8.157311e+00 
7.557320e+00 8.082977e+00 
7.591990e+00 8.009622e+00 
7.627250e+00 7.935956e+00 
7.662510e+00 7.863220e+00 
7.697180e+00 7.792738e+00 
7.731850e+00 7.723178e+00 
7.766510e+00 7.654490e+00 
7.801180e+00 7.586620e+00 
7.836440e+00 7.518566e+00 
7.871110e+00 7.452545e+00 
7.906380e+00 7.386197e+00 
7.941040e+00 7.321784e+00 
7.976310e+00 7.257083e+00 
8.011570e+00 7.193249e+00 
8.046240e+00 7.131233e+00 
8.080900e+00 7.069966e+00 
8.115570e+00 7.009438e+00 
8.150830e+00 6.948749e+00 
8.185500e+00 6.889776e+00 
8.220770e+00 6.830485e+00 
8.255430e+00 6.772898e+00 
8.290100e+00 6.716068e+00 
8.324770e+00 6.659901e+00 
8.359430e+00 6.604392e+00 
8.394700e+00 6.548555e+00 
8.429960e+00 6.493457e+00 
8.464630e+00 6.439978e+00 
8.499890e+00 6.386206e+00 
8.534560e+00 6.333932e+00 
8.569200e+00 6.282285e+00 
