# Parameters:
# omega_b = 0.022555, omega_m = 0.154724, n_s = 1.026378, h = 75.078740, w = -1.000000, sigma_8 = 0.764567
# z = 0.900000
#
# k[1/Mpc] # P(k):
8.694000e-04 2.897246e+03 
2.077466e-03 6.603710e+03 
3.285532e-03 9.720422e+03 
4.493598e-03 1.227774e+04 
5.701664e-03 1.431375e+04 
6.909730e-03 1.588250e+04 
8.117797e-03 1.706570e+04 
9.325863e-03 1.790472e+04 
1.053393e-02 1.844634e+04 
1.174199e-02 1.873703e+04 
1.295006e-02 1.880626e+04 
1.415813e-02 1.869646e+04 
1.536619e-02 1.844357e+04 
1.657426e-02 1.806839e+04 
1.778233e-02 1.756249e+04 
1.899039e-02 1.693402e+04 
2.019846e-02 1.626009e+04 
2.140652e-02 1.560679e+04 
2.261459e-02 1.497135e+04 
2.382266e-02 1.435455e+04 
2.503072e-02 1.376512e+04 
2.623879e-02 1.320867e+04 
2.744685e-02 1.268824e+04 
2.865492e-02 1.220834e+04 
2.986299e-02 1.176952e+04 
3.100100e-02 1.139435e+04 
3.220400e-02 1.103691e+04 
3.288100e-02 1.085376e+04 
3.424300e-02 1.052105e+04 
3.555100e-02 1.024124e+04 
3.686000e-02 9.996818e+03 
3.795000e-02 9.815818e+03 
3.929100e-02 9.618856e+03 
4.039800e-02 9.471514e+03 
4.164000e-02 9.317537e+03 
4.294400e-02 9.162761e+03 
4.415000e-02 9.022453e+03 
4.542900e-02 8.868399e+03 
4.660900e-02 8.722327e+03 
4.782300e-02 8.557399e+03 
4.892900e-02 8.399094e+03 
5.031200e-02 8.185813e+03 
5.155900e-02 7.977336e+03 
5.238100e-02 7.832985e+03 
5.378200e-02 7.576507e+03 
5.513400e-02 7.317253e+03 
5.627600e-02 7.092527e+03 
5.735300e-02 6.879201e+03 
5.870100e-02 6.613598e+03 
5.988700e-02 6.385070e+03 
6.113500e-02 6.152100e+03 
6.225900e-02 5.951139e+03 
6.340100e-02 5.757655e+03 
6.480200e-02 5.535960e+03 
6.601100e-02 5.360630e+03 
6.725500e-02 5.195897e+03 
6.829100e-02 5.072206e+03 
6.958600e-02 4.931426e+03 
7.071100e-02 4.822801e+03 
7.192300e-02 4.718168e+03 
7.307400e-02 4.629659e+03 
7.412300e-02 4.557153e+03 
7.550400e-02 4.472939e+03 
7.663100e-02 4.411010e+03 
7.791200e-02 4.348264e+03 
7.912700e-02 4.293785e+03 
8.027600e-02 4.245076e+03 
8.138400e-02 4.199745e+03 
8.272200e-02 4.146048e+03 
8.406100e-02 4.092264e+03 
8.534100e-02 4.039111e+03 
8.653800e-02 3.986978e+03 
8.759800e-02 3.939264e+03 
8.900300e-02 3.873051e+03 
9.009000e-02 3.818886e+03 
9.113300e-02 3.763982e+03 
9.239600e-02 3.695617e+03 
9.358000e-02 3.628772e+03 
9.496100e-02 3.546886e+03 
9.608400e-02 3.479029e+03 
9.727500e-02 3.406575e+03 
9.852600e-02 3.327573e+03 
9.973800e-02 3.251795e+03 
1.009000e-01 3.180009e+03 
1.020900e-01 3.106788e+03 
1.034000e-01 3.028668e+03 
1.046000e-01 2.959362e+03 
1.057200e-01 2.897734e+03 
1.069100e-01 2.834858e+03 
1.082500e-01 2.768775e+03 
1.093900e-01 2.716463e+03 
1.105400e-01 2.666404e+03 
1.116900e-01 2.621419e+03 
1.129600e-01 2.574469e+03 
1.142000e-01 2.533619e+03 
1.153300e-01 2.498926e+03 
1.166400e-01 2.462191e+03 
1.177800e-01 2.433152e+03 
1.190000e-01 2.403819e+03 
1.201200e-01 2.379260e+03 
1.213400e-01 2.353454e+03 
1.227100e-01 2.326467e+03 
1.238900e-01 2.303828e+03 
1.250700e-01 2.281644e+03 
1.263200e-01 2.258358e+03 
1.275500e-01 2.235219e+03 
1.287500e-01 2.212425e+03 
1.299900e-01 2.188229e+03 
1.311300e-01 2.165447e+03 
1.323500e-01 2.140041e+03 
1.335900e-01 2.113578e+03 
1.347100e-01 2.088576e+03 
1.359800e-01 2.059821e+03 
1.372100e-01 2.030558e+03 
1.384300e-01 2.001449e+03 
1.395700e-01 1.973086e+03 
1.407700e-01 1.943699e+03 
1.420300e-01 1.911749e+03 
1.432800e-01 1.880791e+03 
1.444500e-01 1.851524e+03 
1.456300e-01 1.822649e+03 
1.468900e-01 1.792684e+03 
1.480500e-01 1.765757e+03 
1.491700e-01 1.740742e+03 
1.503800e-01 1.714846e+03 
1.516400e-01 1.688786e+03 
1.528200e-01 1.666303e+03 
1.540200e-01 1.643897e+03 
1.551900e-01 1.624073e+03 
1.564300e-01 1.603858e+03 
1.576600e-01 1.585028e+03 
1.588700e-01 1.567853e+03 
1.600900e-01 1.550932e+03 
1.612700e-01 1.536172e+03 
1.625400e-01 1.520580e+03 
1.637600e-01 1.506286e+03 
1.649500e-01 1.492829e+03 
1.662200e-01 1.478723e+03 
1.674000e-01 1.465824e+03 
1.685000e-01 1.453999e+03 
1.697500e-01 1.440466e+03 
1.710300e-01 1.426536e+03 
1.722200e-01 1.413814e+03 
1.734400e-01 1.400005e+03 
1.746400e-01 1.386614e+03 
1.758700e-01 1.372777e+03 
1.770900e-01 1.358583e+03 
1.782700e-01 1.345086e+03 
1.794600e-01 1.331174e+03 
1.807000e-01 1.316568e+03 
1.819100e-01 1.302560e+03 
1.830100e-01 1.289573e+03 
1.842200e-01 1.275438e+03 
1.855000e-01 1.260735e+03 
1.867000e-01 1.246973e+03 
1.879200e-01 1.233213e+03 
1.890900e-01 1.220250e+03 
1.902800e-01 1.207363e+03 
1.915200e-01 1.194154e+03 
1.926900e-01 1.181964e+03 
1.939000e-01 1.169796e+03 
1.951700e-01 1.157232e+03 
1.963100e-01 1.146235e+03 
1.975100e-01 1.135110e+03 
1.987800e-01 1.123522e+03 
2.000100e-01 1.112596e+03 
2.012500e-01 1.102028e+03 
2.023400e-01 1.092874e+03 
2.036100e-01 1.082426e+03 
2.048900e-01 1.072309e+03 
2.060400e-01 1.063352e+03 
2.072200e-01 1.054307e+03 
2.084200e-01 1.045421e+03 
2.096900e-01 1.036155e+03 
2.109200e-01 1.027313e+03 
2.121100e-01 1.018957e+03 
2.132700e-01 1.010927e+03 
2.145200e-01 1.002394e+03 
2.157200e-01 9.943412e+02 
2.168800e-01 9.866719e+02 
2.180700e-01 9.789093e+02 
2.193400e-01 9.707392e+02 
2.206000e-01 9.627468e+02 
2.217500e-01 9.555505e+02 
2.229500e-01 9.481394e+02 
2.241400e-01 9.409086e+02 
2.253500e-01 9.336539e+02 
2.264900e-01 9.269068e+02 
2.277100e-01 9.198085e+02 
2.289900e-01 9.124949e+02 
2.301500e-01 9.059538e+02 
2.313600e-01 8.992181e+02 
2.325600e-01 8.927245e+02 
2.337700e-01 8.862601e+02 
2.350000e-01 8.797730e+02 
2.362000e-01 8.735838e+02 
2.374100e-01 8.674911e+02 
2.386500e-01 8.613262e+02 
2.399100e-01 8.551423e+02 
2.410400e-01 8.497634e+02 
2.422500e-01 8.440846e+02 
2.435000e-01 8.382909e+02 
2.447300e-01 8.326782e+02 
2.458700e-01 8.276073e+02 
2.470600e-01 8.223753e+02 
2.483300e-01 8.168593e+02 
2.495600e-01 8.115948e+02 
2.507600e-01 8.065362e+02 
2.519600e-01 8.015367e+02 
2.532200e-01 7.963497e+02 
2.543700e-01 7.916580e+02 
2.555500e-01 7.868892e+02 
2.568000e-01 7.818961e+02 
2.580100e-01 7.771193e+02 
2.592400e-01 7.722714e+02 
2.604100e-01 7.676910e+02 
2.616100e-01 7.630453e+02 
2.628400e-01 7.583376e+02 
2.640600e-01 7.536524e+02 
2.652200e-01 7.492196e+02 
2.664300e-01 7.446462e+02 
2.676500e-01 7.400865e+02 
2.688400e-01 7.356293e+02 
2.700700e-01 7.310365e+02 
2.712400e-01 7.267154e+02 
2.724800e-01 7.221856e+02 
2.736700e-01 7.178435e+02 
2.748800e-01 7.134321e+02 
2.761000e-01 7.090326e+02 
2.773200e-01 7.046809e+02 
2.785400e-01 7.003557e+02 
2.797000e-01 6.962435e+02 
2.808900e-01 6.920686e+02 
2.821400e-01 6.877300e+02 
2.833900e-01 6.834367e+02 
2.845500e-01 6.794481e+02 
2.857800e-01 6.752626e+02 
2.870300e-01 6.710546e+02 
2.882100e-01 6.671237e+02 
2.893900e-01 6.632134e+02 
2.906300e-01 6.591365e+02 
2.918900e-01 6.550379e+02 
2.930500e-01 6.513032e+02 
2.942500e-01 6.474731e+02 
2.954200e-01 6.437599e+02 
2.966500e-01 6.398955e+02 
2.978900e-01 6.360398e+02 
2.990400e-01 6.324994e+02 
3.002700e-01 6.287414e+02 
3.015100e-01 6.249873e+02 
3.026800e-01 6.214801e+02 
3.038500e-01 6.180064e+02 
3.050300e-01 6.145364e+02 
3.062600e-01 6.109488e+02 
3.075000e-01 6.073682e+02 
3.087000e-01 6.039370e+02 
3.099100e-01 6.005107e+02 
3.111200e-01 5.971176e+02 
3.123100e-01 5.938129e+02 
3.135300e-01 5.904571e+02 
3.147300e-01 5.871879e+02 
3.159900e-01 5.837884e+02 
3.171800e-01 5.806097e+02 
3.183700e-01 5.774612e+02 
3.196300e-01 5.741591e+02 
3.208400e-01 5.710184e+02 
3.220300e-01 5.679582e+02 
3.232000e-01 5.649820e+02 
3.244300e-01 5.618838e+02 
3.256700e-01 5.587899e+02 
3.269200e-01 5.557005e+02 
3.280800e-01 5.528597e+02 
3.292500e-01 5.500269e+02 
3.304800e-01 5.470780e+02 
3.317100e-01 5.441562e+02 
3.328900e-01 5.413783e+02 
3.340700e-01 5.386247e+02 
3.353600e-01 5.356510e+02 
3.365300e-01 5.329817e+02 
3.377100e-01 5.303129e+02 
3.389200e-01 5.276000e+02 
3.401600e-01 5.248448e+02 
3.413700e-01 5.221900e+02 
3.425300e-01 5.196738e+02 
3.437700e-01 5.170072e+02 
3.449800e-01 5.144281e+02 
3.461800e-01 5.118923e+02 
3.473600e-01 5.094244e+02 
3.485800e-01 5.069058e+02 
3.498100e-01 5.043884e+02 
3.510200e-01 5.019333e+02 
3.522000e-01 4.995592e+02 
3.533900e-01 4.971848e+02 
3.546400e-01 4.947274e+02 
3.558400e-01 4.923892e+02 
3.570600e-01 4.900319e+02 
3.582700e-01 4.877136e+02 
3.595000e-01 4.853766e+02 
3.607100e-01 4.831054e+02 
3.618900e-01 4.809151e+02 
3.631200e-01 4.786507e+02 
3.643200e-01 4.764597e+02 
3.655500e-01 4.742323e+02 
3.667300e-01 4.721128e+02 
3.679500e-01 4.699546e+02 
3.691900e-01 4.677789e+02 
3.703600e-01 4.657426e+02 
3.715700e-01 4.636533e+02 
3.727700e-01 4.615977e+02 
3.739900e-01 4.595303e+02 
3.752000e-01 4.575065e+02 
3.763900e-01 4.555317e+02 
3.775800e-01 4.535724e+02 
3.788200e-01 4.515468e+02 
3.800300e-01 4.495859e+02 
3.812100e-01 4.476943e+02 
3.824200e-01 4.457737e+02 
3.836100e-01 4.438994e+02 
3.848600e-01 4.419459e+02 
3.860400e-01 4.401161e+02 
3.872400e-01 4.382693e+02 
3.884600e-01 4.364149e+02 
3.896500e-01 4.346232e+02 
3.908700e-01 4.328001e+02 
3.920600e-01 4.310354e+02 
3.933100e-01 4.291958e+02 
3.945300e-01 4.274142e+02 
3.957200e-01 4.256974e+02 
3.969300e-01 4.239670e+02 
3.981700e-01 4.222072e+02 
3.993500e-01 4.205449e+02 
4.094840e-01 4.067612e+02 
4.272360e-01 3.847003e+02 
4.454600e-01 3.643104e+02 
4.630560e-01 3.464676e+02 
4.804610e-01 3.303448e+02 
4.980690e-01 3.153806e+02 
5.159230e-01 3.014262e+02 
5.317440e-01 2.899809e+02 
5.489640e-01 2.784198e+02 
5.671990e-01 2.671070e+02 
5.838690e-01 2.575166e+02 
6.018840e-01 2.478968e+02 
6.202330e-01 2.388289e+02 
6.379250e-01 2.306971e+02 
6.545410e-01 2.235947e+02 
6.714560e-01 2.168179e+02 
6.892080e-01 2.101719e+02 
7.066010e-01 2.040861e+02 
7.240540e-01 1.983497e+02 
7.420450e-01 1.928124e+02 
7.593780e-01 1.877947e+02 
7.764720e-01 1.831205e+02 
7.942840e-01 1.785206e+02 
8.116170e-01 1.742901e+02 
8.288310e-01 1.703075e+02 
8.462240e-01 1.664807e+02 
8.631980e-01 1.629253e+02 
8.810700e-01 1.593560e+02 
8.989410e-01 1.559537e+02 
9.166330e-01 1.527342e+02 
9.345640e-01 1.496126e+02 
9.515980e-01 1.467682e+02 
9.688720e-01 1.439957e+02 
9.865640e-01 1.412640e+02 
1.031870e+00 1.347164e+02 
1.063490e+00 1.304802e+02 
1.097920e+00 1.261562e+02 
1.134370e+00 1.218447e+02 
1.167730e+00 1.181323e+02 
1.203830e+00 1.143226e+02 
1.240470e+00 1.106737e+02 
1.275790e+00 1.073267e+02 
1.309140e+00 1.043270e+02 
1.342970e+00 1.014044e+02 
1.378420e+00 9.849198e+01 
1.413200e+00 9.575608e+01 
1.448110e+00 9.312224e+01 
1.484090e+00 9.053167e+01 
1.518820e+00 8.812776e+01 
1.552880e+00 8.586225e+01 
1.588630e+00 8.357412e+01 
1.623230e+00 8.145074e+01 
1.657720e+00 7.941259e+01 
1.692450e+00 7.744032e+01 
1.726400e+00 7.557170e+01 
1.762200e+00 7.367254e+01 
1.797880e+00 7.185053e+01 
1.833270e+00 7.010553e+01 
1.869070e+00 6.840446e+01 
1.903200e+00 6.683715e+01 
1.937740e+00 6.530329e+01 
1.973190e+00 6.378006e+01 
2.007440e+00 6.235726e+01 
2.042160e+00 6.096202e+01 
2.077900e+00 5.956860e+01 
2.112390e+00 5.827037e+01 
2.146220e+00 5.703014e+01 
2.181600e+00 5.577486e+01 
2.216930e+00 5.456063e+01 
2.250760e+00 5.343107e+01 
2.286500e+00 5.227302e+01 
2.321770e+00 5.116702e+01 
2.355950e+00 5.012784e+01 
2.391280e+00 4.908032e+01 
2.426240e+00 4.807343e+01 
2.460670e+00 4.711044e+01 
2.495640e+00 4.616085e+01 
2.531080e+00 4.522519e+01 
2.566220e+00 4.432146e+01 
2.600830e+00 4.345655e+01 
2.635080e+00 4.262527e+01 
2.670340e+00 4.178806e+01 
2.705970e+00 4.096686e+01 
2.740040e+00 4.020378e+01 
2.774520e+00 3.945032e+01 
2.809730e+00 3.870028e+01 
2.844390e+00 3.798166e+01 
2.879960e+00 3.726245e+01 
2.914860e+00 3.657464e+01 
2.949410e+00 3.591163e+01 
2.984440e+00 3.525480e+01 
3.019760e+00 3.461040e+01 
3.054730e+00 3.398969e+01 
3.089030e+00 3.339212e+01 
3.124060e+00 3.279799e+01 
3.159560e+00 3.221148e+01 
3.194710e+00 3.164312e+01 
3.229010e+00 3.110231e+01 
3.263320e+00 3.057346e+01 
3.297930e+00 3.005315e+01 
3.332830e+00 2.954034e+01 
3.368040e+00 2.903490e+01 
3.403300e+00 2.854081e+01 
3.438450e+00 2.805880e+01 
3.473060e+00 2.759584e+01 
3.508440e+00 2.713317e+01 
3.543110e+00 2.669074e+01 
3.577470e+00 2.626019e+01 
3.613040e+00 2.582523e+01 
3.648120e+00 2.540599e+01 
3.682910e+00 2.499965e+01 
3.718050e+00 2.459784e+01 
3.753320e+00 2.420359e+01 
3.787980e+00 2.382437e+01 
3.822290e+00 2.345732e+01 
3.857020e+00 2.309375e+01 
3.891920e+00 2.273599e+01 
3.926650e+00 2.238658e+01 
3.961970e+00 2.203925e+01 
3.997360e+00 2.169888e+01 
4.031670e+00 2.137605e+01 
4.066330e+00 2.105597e+01 
4.101420e+00 2.073909e+01 
4.136200e+00 2.043143e+01 
4.170810e+00 2.013192e+01 
4.206250e+00 1.983094e+01 
4.241580e+00 1.953727e+01 
4.276300e+00 1.925433e+01 
4.310970e+00 1.897748e+01 
4.346120e+00 1.870253e+01 
4.380600e+00 1.843816e+01 
4.414730e+00 1.818181e+01 
4.450350e+00 1.791917e+01 
4.485320e+00 1.766667e+01 
4.519810e+00 1.742232e+01 
4.555430e+00 1.717493e+01 
4.590870e+00 1.693373e+01 
4.625480e+00 1.670269e+01 
4.659910e+00 1.647736e+01 
4.695230e+00 1.625043e+01 
4.729960e+00 1.603161e+01 
4.764450e+00 1.581840e+01 
4.799530e+00 1.560554e+01 
4.834910e+00 1.539502e+01 
4.869700e+00 1.519185e+01 
4.904370e+00 1.499317e+01 
4.939450e+00 1.479590e+01 
4.973940e+00 1.460549e+01 
5.008430e+00 1.441857e+01 
5.043810e+00 1.423030e+01 
5.078840e+00 1.404729e+01 
5.113500e+00 1.386950e+01 
5.148890e+00 1.369124e+01 
5.184210e+00 1.351656e+01 
5.219060e+00 1.334732e+01 
5.253660e+00 1.318227e+01 
5.288570e+00 1.301868e+01 
5.323420e+00 1.285826e+01 
5.358440e+00 1.269992e+01 
5.393590e+00 1.254375e+01 
5.428310e+00 1.239222e+01 
5.462800e+00 1.224427e+01 
5.497640e+00 1.209736e+01 
5.532670e+00 1.195220e+01 
5.567280e+00 1.181122e+01 
5.602000e+00 1.167214e+01 
5.637270e+00 1.153333e+01 
5.672410e+00 1.139737e+01 
5.707020e+00 1.126566e+01 
5.742040e+00 1.113468e+01 
5.777430e+00 1.100449e+01 
5.812210e+00 1.087864e+01 
5.846820e+00 1.075549e+01 
5.881610e+00 1.063368e+01 
5.916510e+00 1.051344e+01 
5.951600e+00 1.039460e+01 
5.986560e+00 1.027814e+01 
6.021830e+00 1.016250e+01 
6.056490e+00 1.005073e+01 
6.091160e+00 9.940737e+00 
6.125830e+00 9.832425e+00 
6.161090e+00 9.724011e+00 
6.195760e+00 9.619150e+00 
6.230420e+00 9.515897e+00 
6.265690e+00 9.412421e+00 
6.300950e+00 9.310744e+00 
6.335620e+00 9.212261e+00 
6.370880e+00 9.113591e+00 
6.405550e+00 9.018128e+00 
6.440220e+00 8.924107e+00 
6.475480e+00 8.829884e+00 
6.510150e+00 8.738639e+00 
6.544810e+00 8.648848e+00 
6.580080e+00 8.558794e+00 
6.614750e+00 8.471541e+00 
6.649410e+00 8.385751e+00 
6.684080e+00 8.301184e+00 
6.719340e+00 8.216393e+00 
6.754010e+00 8.134233e+00 
6.788680e+00 8.053310e+00 
6.823940e+00 7.972156e+00 
6.859800e+00 7.890783e+00 
6.894470e+00 7.813345e+00 
6.929140e+00 7.737011e+00 
6.963800e+00 7.661732e+00 
6.999070e+00 7.586179e+00 
7.033730e+00 7.513081e+00 
7.068400e+00 7.440937e+00 
7.103660e+00 7.368549e+00 
7.138330e+00 7.298385e+00 
7.173600e+00 7.228084e+00 
7.208260e+00 7.159912e+00 
7.243530e+00 7.091453e+00 
7.277600e+00 7.026272e+00 
7.312860e+00 6.959769e+00 
7.348120e+00 6.894136e+00 
7.382790e+00 6.830435e+00 
7.417460e+00 6.767645e+00 
7.452720e+00 6.704656e+00 
7.487390e+00 6.643509e+00 
7.522650e+00 6.582111e+00 
7.557320e+00 6.522606e+00 
7.591990e+00 6.463881e+00 
7.627250e+00 6.404904e+00 
7.662510e+00 6.346669e+00 
7.697180e+00 6.290232e+00 
7.731850e+00 6.234529e+00 
7.766510e+00 6.179522e+00 
7.801180e+00 6.125167e+00 
7.836440e+00 6.070665e+00 
7.871110e+00 6.017791e+00 
7.906380e+00 5.964651e+00 
7.941040e+00 5.913060e+00 
7.976310e+00 5.861236e+00 
8.011570e+00 5.810103e+00 
8.046240e+00 5.760424e+00 
8.080900e+00 5.711343e+00 
8.115570e+00 5.662854e+00 
8.150830e+00 5.614240e+00 
8.185500e+00 5.566998e+00 
8.220770e+00 5.519499e+00 
8.255430e+00 5.473363e+00 
8.290100e+00 5.427832e+00 
8.324770e+00 5.382832e+00 
8.359430e+00 5.338357e+00 
8.394700e+00 5.293616e+00 
8.429960e+00 5.249472e+00 
8.464630e+00 5.206631e+00 
8.499890e+00 5.163553e+00 
8.534560e+00 5.121672e+00 
8.569200e+00 5.080292e+00 
