# Parameters:
# omega_b = 0.021689, omega_m = 0.141220, n_s = 0.900394, h = 74.606299, w = -1.000000, sigma_8 = 0.709449
# z = 0.900000
#
# k[1/Mpc] # P(k):
8.694000e-04 6.104797e+03 
2.077466e-03 1.231459e+04 
3.285532e-03 1.694257e+04 
4.493598e-03 2.037480e+04 
5.701664e-03 2.284167e+04 
6.909730e-03 2.452444e+04 
8.117797e-03 2.560783e+04 
9.325863e-03 2.618805e+04 
1.053393e-02 2.635779e+04 
1.174199e-02 2.620044e+04 
1.295006e-02 2.576864e+04 
1.415813e-02 2.513036e+04 
1.536619e-02 2.434129e+04 
1.657426e-02 2.343592e+04 
1.778233e-02 2.242203e+04 
1.899039e-02 2.132574e+04 
2.019846e-02 2.021966e+04 
2.140652e-02 1.916574e+04 
2.261459e-02 1.816506e+04 
2.382266e-02 1.722165e+04 
2.503072e-02 1.634346e+04 
2.623879e-02 1.553356e+04 
2.744685e-02 1.479301e+04 
2.865492e-02 1.412225e+04 
2.986299e-02 1.351813e+04 
3.100100e-02 1.300834e+04 
3.220400e-02 1.252716e+04 
3.288100e-02 1.228199e+04 
3.424300e-02 1.183764e+04 
3.555100e-02 1.146374e+04 
3.686000e-02 1.113521e+04 
3.795000e-02 1.088984e+04 
3.929100e-02 1.061857e+04 
4.039800e-02 1.041244e+04 
4.164000e-02 1.019435e+04 
4.294400e-02 9.972299e+03 
4.415000e-02 9.770440e+03 
4.542900e-02 9.550222e+03 
4.660900e-02 9.343661e+03 
4.782300e-02 9.115760e+03 
4.892900e-02 8.901116e+03 
5.031200e-02 8.618928e+03 
5.155900e-02 8.350621e+03 
5.238100e-02 8.168530e+03 
5.378200e-02 7.851333e+03 
5.513400e-02 7.538639e+03 
5.627600e-02 7.273177e+03 
5.735300e-02 7.025260e+03 
5.870100e-02 6.721675e+03 
5.988700e-02 6.464428e+03 
6.113500e-02 6.205734e+03 
6.225900e-02 5.985388e+03 
6.340100e-02 5.775484e+03 
6.480200e-02 5.537207e+03 
6.601100e-02 5.350675e+03 
6.725500e-02 5.176660e+03 
6.829100e-02 5.046758e+03 
6.958600e-02 4.899397e+03 
7.071100e-02 4.785948e+03 
7.192300e-02 4.676666e+03 
7.307400e-02 4.584019e+03 
7.412300e-02 4.507799e+03 
7.550400e-02 4.418506e+03 
7.663100e-02 4.352205e+03 
7.791200e-02 4.283832e+03 
7.912700e-02 4.223261e+03 
8.027600e-02 4.168173e+03 
8.138400e-02 4.116148e+03 
8.272200e-02 4.053592e+03 
8.406100e-02 3.990177e+03 
8.534100e-02 3.926971e+03 
8.653800e-02 3.864929e+03 
8.759800e-02 3.808283e+03 
8.900300e-02 3.730102e+03 
9.009000e-02 3.666726e+03 
9.113300e-02 3.603238e+03 
9.239600e-02 3.524949e+03 
9.358000e-02 3.449444e+03 
9.496100e-02 3.358669e+03 
9.608400e-02 3.284530e+03 
9.727500e-02 3.206253e+03 
9.852600e-02 3.122979e+03 
9.973800e-02 3.044091e+03 
1.009000e-01 2.970164e+03 
1.020900e-01 2.896524e+03 
1.034000e-01 2.818750e+03 
1.046000e-01 2.750545e+03 
1.057200e-01 2.691007e+03 
1.069100e-01 2.630637e+03 
1.082500e-01 2.568119e+03 
1.093900e-01 2.519067e+03 
1.105400e-01 2.472391e+03 
1.116900e-01 2.430810e+03 
1.129600e-01 2.387485e+03 
1.142000e-01 2.349839e+03 
1.153300e-01 2.317739e+03 
1.166400e-01 2.283545e+03 
1.177800e-01 2.256061e+03 
1.190000e-01 2.228070e+03 
1.201200e-01 2.203837e+03 
1.213400e-01 2.178216e+03 
1.227100e-01 2.150125e+03 
1.238900e-01 2.126306e+03 
1.250700e-01 2.102188e+03 
1.263200e-01 2.076663e+03 
1.275500e-01 2.050861e+03 
1.287500e-01 2.025397e+03 
1.299900e-01 1.998308e+03 
1.311300e-01 1.972995e+03 
1.323500e-01 1.945051e+03 
1.335900e-01 1.916331e+03 
1.347100e-01 1.889683e+03 
1.359800e-01 1.859430e+03 
1.372100e-01 1.829387e+03 
1.384300e-01 1.799839e+03 
1.395700e-01 1.771794e+03 
1.407700e-01 1.742848e+03 
1.420300e-01 1.712292e+03 
1.432800e-01 1.682704e+03 
1.444500e-01 1.655433e+03 
1.456300e-01 1.628538e+03 
1.468900e-01 1.600956e+03 
1.480500e-01 1.576271e+03 
1.491700e-01 1.553406e+03 
1.503800e-01 1.529822e+03 
1.516400e-01 1.506078e+03 
1.528200e-01 1.485534e+03 
1.540200e-01 1.465063e+03 
1.551900e-01 1.446756e+03 
1.564300e-01 1.428040e+03 
1.576600e-01 1.410455e+03 
1.588700e-01 1.394223e+03 
1.600900e-01 1.378215e+03 
1.612700e-01 1.363902e+03 
1.625400e-01 1.348784e+03 
1.637600e-01 1.334754e+03 
1.649500e-01 1.321444e+03 
1.662200e-01 1.307470e+03 
1.674000e-01 1.294566e+03 
1.685000e-01 1.282738e+03 
1.697500e-01 1.269221e+03 
1.710300e-01 1.255328e+03 
1.722200e-01 1.242641e+03 
1.734400e-01 1.229027e+03 
1.746400e-01 1.215835e+03 
1.758700e-01 1.202282e+03 
1.770900e-01 1.188531e+03 
1.782700e-01 1.175460e+03 
1.794600e-01 1.162121e+03 
1.807000e-01 1.148207e+03 
1.819100e-01 1.134867e+03 
1.830100e-01 1.122659e+03 
1.842200e-01 1.109402e+03 
1.855000e-01 1.095623e+03 
1.867000e-01 1.082868e+03 
1.879200e-01 1.070120e+03 
1.890900e-01 1.058127e+03 
1.902800e-01 1.046280e+03 
1.915200e-01 1.034141e+03 
1.926900e-01 1.022953e+03 
1.939000e-01 1.011819e+03 
1.951700e-01 1.000326e+03 
1.963100e-01 9.902691e+02 
1.975100e-01 9.800970e+02 
1.987800e-01 9.695038e+02 
2.000100e-01 9.595080e+02 
2.012500e-01 9.498183e+02 
2.023400e-01 9.414260e+02 
2.036100e-01 9.318400e+02 
2.048900e-01 9.225166e+02 
2.060400e-01 9.142654e+02 
2.072200e-01 9.059294e+02 
2.084200e-01 8.976934e+02 
2.096900e-01 8.891067e+02 
2.109200e-01 8.809150e+02 
2.121100e-01 8.731300e+02 
2.132700e-01 8.656482e+02 
2.145200e-01 8.577002e+02 
2.157200e-01 8.501733e+02 
2.168800e-01 8.429945e+02 
2.180700e-01 8.357303e+02 
2.193400e-01 8.280774e+02 
2.206000e-01 8.205759e+02 
2.217500e-01 8.138234e+02 
2.229500e-01 8.068713e+02 
2.241400e-01 8.000650e+02 
2.253500e-01 7.932375e+02 
2.264900e-01 7.868895e+02 
2.277100e-01 7.802024e+02 
2.289900e-01 7.733025e+02 
2.301500e-01 7.671334e+02 
2.313600e-01 7.607822e+02 
2.325600e-01 7.546386e+02 
2.337700e-01 7.485242e+02 
2.350000e-01 7.423901e+02 
2.362000e-01 7.365296e+02 
2.374100e-01 7.307506e+02 
2.386500e-01 7.249046e+02 
2.399100e-01 7.190420e+02 
2.410400e-01 7.139331e+02 
2.422500e-01 7.085392e+02 
2.435000e-01 7.030373e+02 
2.447300e-01 6.977087e+02 
2.458700e-01 6.928955e+02 
2.470600e-01 6.879304e+02 
2.483300e-01 6.826968e+02 
2.495600e-01 6.777102e+02 
2.507600e-01 6.729294e+02 
2.519600e-01 6.682054e+02 
2.532200e-01 6.633051e+02 
2.543700e-01 6.588913e+02 
2.555500e-01 6.544178e+02 
2.568000e-01 6.497347e+02 
2.580100e-01 6.452552e+02 
2.592400e-01 6.407388e+02 
2.604100e-01 6.364848e+02 
2.616100e-01 6.321711e+02 
2.628400e-01 6.278003e+02 
2.640600e-01 6.234816e+02 
2.652200e-01 6.194078e+02 
2.664300e-01 6.152056e+02 
2.676500e-01 6.110167e+02 
2.688400e-01 6.069451e+02 
2.700700e-01 6.027640e+02 
2.712400e-01 5.988310e+02 
2.724800e-01 5.947087e+02 
2.736700e-01 5.907717e+02 
2.748800e-01 5.867868e+02 
2.761000e-01 5.828133e+02 
2.773200e-01 5.788837e+02 
2.785400e-01 5.749842e+02 
2.797000e-01 5.712888e+02 
2.808900e-01 5.675378e+02 
2.821400e-01 5.636406e+02 
2.833900e-01 5.597851e+02 
2.845500e-01 5.562134e+02 
2.857800e-01 5.524661e+02 
2.870300e-01 5.486994e+02 
2.882100e-01 5.451814e+02 
2.893900e-01 5.416856e+02 
2.906300e-01 5.380433e+02 
2.918900e-01 5.343822e+02 
2.930500e-01 5.310469e+02 
2.942500e-01 5.276279e+02 
2.954200e-01 5.243167e+02 
2.966500e-01 5.208713e+02 
2.978900e-01 5.174343e+02 
2.990400e-01 5.142790e+02 
3.002700e-01 5.109321e+02 
3.015100e-01 5.075902e+02 
3.026800e-01 5.044688e+02 
3.038500e-01 5.013777e+02 
3.050300e-01 4.982906e+02 
3.062600e-01 4.951017e+02 
3.075000e-01 4.919195e+02 
3.087000e-01 4.888708e+02 
3.099100e-01 4.858270e+02 
3.111200e-01 4.828146e+02 
3.123100e-01 4.798833e+02 
3.135300e-01 4.769074e+02 
3.147300e-01 4.740088e+02 
3.159900e-01 4.709952e+02 
3.171800e-01 4.681808e+02 
3.183700e-01 4.653955e+02 
3.196300e-01 4.624749e+02 
3.208400e-01 4.596976e+02 
3.220300e-01 4.569920e+02 
3.232000e-01 4.543639e+02 
3.244300e-01 4.516297e+02 
3.256700e-01 4.488998e+02 
3.269200e-01 4.461744e+02 
3.280800e-01 4.436688e+02 
3.292500e-01 4.411737e+02 
3.304800e-01 4.385777e+02 
3.317100e-01 4.360060e+02 
3.328900e-01 4.335614e+02 
3.340700e-01 4.311387e+02 
3.353600e-01 4.285265e+02 
3.365300e-01 4.261836e+02 
3.377100e-01 4.238414e+02 
3.389200e-01 4.214610e+02 
3.401600e-01 4.190438e+02 
3.413700e-01 4.167173e+02 
3.425300e-01 4.145139e+02 
3.437700e-01 4.121793e+02 
3.449800e-01 4.099216e+02 
3.461800e-01 4.077021e+02 
3.473600e-01 4.055436e+02 
3.485800e-01 4.033435e+02 
3.498100e-01 4.011450e+02 
3.510200e-01 3.990011e+02 
3.522000e-01 3.969282e+02 
3.533900e-01 3.948554e+02 
3.546400e-01 3.927137e+02 
3.558400e-01 3.906765e+02 
3.570600e-01 3.886228e+02 
3.582700e-01 3.866034e+02 
3.595000e-01 3.845681e+02 
3.607100e-01 3.825918e+02 
3.618900e-01 3.806876e+02 
3.631200e-01 3.787191e+02 
3.643200e-01 3.768147e+02 
3.655500e-01 3.748790e+02 
3.667300e-01 3.730373e+02 
3.679500e-01 3.711649e+02 
3.691900e-01 3.692778e+02 
3.703600e-01 3.675116e+02 
3.715700e-01 3.656997e+02 
3.727700e-01 3.639174e+02 
3.739900e-01 3.621255e+02 
3.752000e-01 3.603729e+02 
3.763900e-01 3.586630e+02 
3.775800e-01 3.569665e+02 
3.788200e-01 3.552129e+02 
3.800300e-01 3.535155e+02 
3.812100e-01 3.518797e+02 
3.824200e-01 3.502199e+02 
3.836100e-01 3.486002e+02 
3.848600e-01 3.469123e+02 
3.860400e-01 3.453315e+02 
3.872400e-01 3.437362e+02 
3.884600e-01 3.421358e+02 
3.896500e-01 3.405901e+02 
3.908700e-01 3.390176e+02 
3.920600e-01 3.374956e+02 
3.933100e-01 3.359091e+02 
3.945300e-01 3.343728e+02 
3.957200e-01 3.328941e+02 
3.969300e-01 3.314042e+02 
3.981700e-01 3.298891e+02 
3.993500e-01 3.284582e+02 
4.094840e-01 3.166100e+02 
4.272360e-01 2.977140e+02 
4.454600e-01 2.803353e+02 
4.630560e-01 2.652021e+02 
4.804610e-01 2.515952e+02 
4.980690e-01 2.390277e+02 
5.159230e-01 2.273659e+02 
5.317440e-01 2.178421e+02 
5.489640e-01 2.082622e+02 
5.671990e-01 1.989273e+02 
5.838690e-01 1.910422e+02 
6.018840e-01 1.831615e+02 
6.202330e-01 1.757607e+02 
6.379250e-01 1.691418e+02 
6.545410e-01 1.633800e+02 
6.714560e-01 1.578978e+02 
6.892080e-01 1.525339e+02 
7.066010e-01 1.476370e+02 
7.240540e-01 1.430321e+02 
7.420450e-01 1.386005e+02 
7.593780e-01 1.345955e+02 
7.764720e-01 1.308741e+02 
7.942840e-01 1.272214e+02 
8.116170e-01 1.238730e+02 
8.288310e-01 1.207300e+02 
8.462240e-01 1.177186e+02 
8.631980e-01 1.149292e+02 
8.810700e-01 1.121370e+02 
8.989410e-01 1.094840e+02 
9.166330e-01 1.069814e+02 
9.345640e-01 1.045628e+02 
9.515980e-01 1.023667e+02 
9.688720e-01 1.002331e+02 
9.865640e-01 9.813865e+01 
1.031870e+00 9.314603e+01 
1.063490e+00 8.994094e+01 
1.097920e+00 8.668803e+01 
1.134370e+00 8.346662e+01 
1.167730e+00 8.070968e+01 
1.203830e+00 7.789948e+01 
1.240470e+00 7.522240e+01 
1.275790e+00 7.278341e+01 
1.309140e+00 7.060604e+01 
1.342970e+00 6.849900e+01 
1.378420e+00 6.640709e+01 
1.413200e+00 6.445181e+01 
1.448110e+00 6.257867e+01 
1.484090e+00 6.074305e+01 
1.518820e+00 5.904721e+01 
1.552880e+00 5.745525e+01 
1.588630e+00 5.585301e+01 
1.623230e+00 5.437105e+01 
1.657720e+00 5.295274e+01 
1.692450e+00 5.158418e+01 
1.726400e+00 5.029231e+01 
1.762200e+00 4.898291e+01 
1.797880e+00 4.772964e+01 
1.833270e+00 4.653236e+01 
1.869070e+00 4.536841e+01 
1.903200e+00 4.429786e+01 
1.937740e+00 4.325227e+01 
1.973190e+00 4.221644e+01 
2.007440e+00 4.125044e+01 
2.042160e+00 4.030482e+01 
2.077900e+00 3.936222e+01 
2.112390e+00 3.848505e+01 
2.146220e+00 3.764880e+01 
2.181600e+00 3.680349e+01 
2.216930e+00 3.598694e+01 
2.250760e+00 3.522837e+01 
2.286500e+00 3.445163e+01 
2.321770e+00 3.371059e+01 
2.355950e+00 3.301492e+01 
2.391280e+00 3.231485e+01 
2.426240e+00 3.164236e+01 
2.460670e+00 3.099970e+01 
2.495640e+00 3.036658e+01 
2.531080e+00 2.974347e+01 
2.566220e+00 2.914204e+01 
2.600830e+00 2.856678e+01 
2.635080e+00 2.801420e+01 
2.670340e+00 2.745823e+01 
2.705970e+00 2.691321e+01 
2.740040e+00 2.640703e+01 
2.774520e+00 2.590765e+01 
2.809730e+00 2.541071e+01 
2.844390e+00 2.493474e+01 
2.879960e+00 2.445862e+01 
2.914860e+00 2.400355e+01 
2.949410e+00 2.356501e+01 
2.984440e+00 2.313065e+01 
3.019760e+00 2.270472e+01 
3.054730e+00 2.229460e+01 
3.089030e+00 2.189984e+01 
3.124060e+00 2.150749e+01 
3.159560e+00 2.112036e+01 
3.194710e+00 2.074521e+01 
3.229010e+00 2.038826e+01 
3.263320e+00 2.003925e+01 
3.297930e+00 1.969597e+01 
3.332830e+00 1.935782e+01 
3.368040e+00 1.902448e+01 
3.403300e+00 1.869858e+01 
3.438450e+00 1.838067e+01 
3.473060e+00 1.807533e+01 
3.508440e+00 1.777030e+01 
3.543110e+00 1.747861e+01 
3.577470e+00 1.719472e+01 
3.613040e+00 1.690794e+01 
3.648120e+00 1.663156e+01 
3.682910e+00 1.636370e+01 
3.718050e+00 1.609881e+01 
3.753320e+00 1.583889e+01 
3.787980e+00 1.558885e+01 
3.822290e+00 1.534682e+01 
3.857020e+00 1.510707e+01 
3.891920e+00 1.487114e+01 
3.926650e+00 1.464070e+01 
3.961970e+00 1.441161e+01 
3.997360e+00 1.418704e+01 
4.031670e+00 1.397407e+01 
4.066330e+00 1.376292e+01 
4.101420e+00 1.355389e+01 
4.136200e+00 1.335086e+01 
4.170810e+00 1.315322e+01 
4.206250e+00 1.295457e+01 
4.241580e+00 1.276074e+01 
4.276300e+00 1.257399e+01 
4.310970e+00 1.239123e+01 
4.346120e+00 1.220972e+01 
4.380600e+00 1.203516e+01 
4.414730e+00 1.186590e+01 
4.450350e+00 1.169241e+01 
4.485320e+00 1.152562e+01 
4.519810e+00 1.136420e+01 
4.555430e+00 1.120077e+01 
4.590870e+00 1.104142e+01 
4.625480e+00 1.088874e+01 
4.659910e+00 1.073986e+01 
4.695230e+00 1.058986e+01 
4.729960e+00 1.044524e+01 
4.764450e+00 1.030430e+01 
4.799530e+00 1.016358e+01 
4.834910e+00 1.002441e+01 
4.869700e+00 9.890068e+00 
4.904370e+00 9.758701e+00 
4.939450e+00 9.628258e+00 
4.973940e+00 9.502322e+00 
5.008430e+00 9.378709e+00 
5.043810e+00 9.254172e+00 
5.078840e+00 9.133108e+00 
5.113500e+00 9.015514e+00 
5.148890e+00 8.897592e+00 
5.184210e+00 8.782060e+00 
5.219060e+00 8.670116e+00 
5.253660e+00 8.560919e+00 
5.288570e+00 8.452695e+00 
5.323420e+00 8.346571e+00 
5.358440e+00 8.241809e+00 
5.393590e+00 8.138506e+00 
5.428310e+00 8.038256e+00 
5.462800e+00 7.940383e+00 
5.497640e+00 7.843204e+00 
5.532670e+00 7.747184e+00 
5.567280e+00 7.653928e+00 
5.602000e+00 7.561944e+00 
5.637270e+00 7.470137e+00 
5.672410e+00 7.380223e+00 
5.707020e+00 7.293133e+00 
5.742040e+00 7.206513e+00 
5.777430e+00 7.120436e+00 
5.812210e+00 7.037232e+00 
5.846820e+00 6.955825e+00 
5.881610e+00 6.875322e+00 
5.916510e+00 6.795859e+00 
5.951600e+00 6.717332e+00 
5.986560e+00 6.640382e+00 
6.021830e+00 6.563983e+00 
6.056490e+00 6.490155e+00 
6.091160e+00 6.417508e+00 
6.125830e+00 6.345982e+00 
6.161090e+00 6.274405e+00 
6.195760e+00 6.205193e+00 
6.230420e+00 6.137051e+00 
6.265690e+00 6.068773e+00 
6.300950e+00 6.001693e+00 
6.335620e+00 5.936730e+00 
6.370880e+00 5.871654e+00 
6.405550e+00 5.808721e+00 
6.440220e+00 5.746755e+00 
6.475480e+00 5.684667e+00 
6.510150e+00 5.624553e+00 
6.544810e+00 5.565414e+00 
6.580080e+00 5.506111e+00 
6.614750e+00 5.448661e+00 
6.649410e+00 5.392204e+00 
6.684080e+00 5.336563e+00 
6.719340e+00 5.280783e+00 
6.754010e+00 5.226754e+00 
6.788680e+00 5.173572e+00 
6.823940e+00 5.120245e+00 
6.859800e+00 5.066783e+00 
6.894470e+00 5.015934e+00 
6.929140e+00 4.965825e+00 
6.963800e+00 4.916416e+00 
6.999070e+00 4.866835e+00 
7.033730e+00 4.818901e+00 
7.068400e+00 4.771599e+00 
7.103660e+00 4.724143e+00 
7.138330e+00 4.678166e+00 
7.173600e+00 4.632135e+00 
7.208260e+00 4.587504e+00 
7.243530e+00 4.542690e+00 
7.277600e+00 4.500051e+00 
7.312860e+00 4.456572e+00 
7.348120e+00 4.413668e+00 
7.382790e+00 4.372031e+00 
7.417460e+00 4.331023e+00 
7.452720e+00 4.289904e+00 
7.487390e+00 4.249993e+00 
7.522650e+00 4.209923e+00 
7.557320e+00 4.171127e+00 
7.591990e+00 4.132858e+00 
7.627250e+00 4.094428e+00 
7.662510e+00 4.056486e+00 
7.697180e+00 4.019751e+00 
7.731850e+00 3.983510e+00 
7.766510e+00 3.947725e+00 
7.801180e+00 3.912369e+00 
7.836440e+00 3.876949e+00 
7.871110e+00 3.842609e+00 
7.906380e+00 3.808100e+00 
7.941040e+00 3.774600e+00 
7.976310e+00 3.740977e+00 
8.011570e+00 3.707837e+00 
8.046240e+00 3.675641e+00 
8.080900e+00 3.643836e+00 
8.115570e+00 3.612426e+00 
8.150830e+00 3.580972e+00 
8.185500e+00 3.550408e+00 
8.220770e+00 3.519680e+00 
8.255430e+00 3.489837e+00 
8.290100e+00 3.460438e+00 
8.324770e+00 3.431390e+00 
8.359430e+00 3.402682e+00 
8.394700e+00 3.373805e+00 
8.429960e+00 3.345338e+00 
8.464630e+00 3.317736e+00 
8.499890e+00 3.289983e+00 
8.534560e+00 3.263002e+00 
8.569200e+00 3.236347e+00 
