# Parameters:
# omega_b = 0.022114, omega_m = 0.147008, n_s = 0.876772, h = 82.165354, w = -1.000000, sigma_8 = 0.761417
# z = 0.900000
#
# k[1/Mpc] # P(k):
8.694000e-04 6.493508e+03 
2.077466e-03 1.289044e+04 
3.285532e-03 1.762387e+04 
4.493598e-03 2.113034e+04 
5.701664e-03 2.364747e+04 
6.909730e-03 2.536703e+04 
8.117797e-03 2.648103e+04 
9.325863e-03 2.708829e+04 
1.053393e-02 2.728170e+04 
1.174199e-02 2.714341e+04 
1.295006e-02 2.672658e+04 
1.415813e-02 2.609970e+04 
1.536619e-02 2.531698e+04 
1.657426e-02 2.440602e+04 
1.778233e-02 2.333507e+04 
1.899039e-02 2.210543e+04 
2.019846e-02 2.086553e+04 
2.140652e-02 1.972447e+04 
2.261459e-02 1.866274e+04 
2.382266e-02 1.766759e+04 
2.503072e-02 1.674366e+04 
2.623879e-02 1.589368e+04 
2.744685e-02 1.511877e+04 
2.865492e-02 1.441906e+04 
2.986299e-02 1.379106e+04 
3.100100e-02 1.326348e+04 
3.220400e-02 1.276801e+04 
3.288100e-02 1.251697e+04 
3.424300e-02 1.206472e+04 
3.555100e-02 1.168749e+04 
3.686000e-02 1.135933e+04 
3.795000e-02 1.111646e+04 
3.929100e-02 1.085083e+04 
4.039800e-02 1.065045e+04 
4.164000e-02 1.043922e+04 
4.294400e-02 1.022402e+04 
4.415000e-02 1.002745e+04 
4.542900e-02 9.810588e+03 
4.660900e-02 9.605145e+03 
4.782300e-02 9.374847e+03 
4.892900e-02 9.155716e+03 
5.031200e-02 8.864359e+03 
5.155900e-02 8.584434e+03 
5.238100e-02 8.393314e+03 
5.378200e-02 8.058806e+03 
5.513400e-02 7.727668e+03 
5.627600e-02 7.446043e+03 
5.735300e-02 7.183021e+03 
5.870100e-02 6.861333e+03 
5.988700e-02 6.589425e+03 
6.113500e-02 6.316893e+03 
6.225900e-02 6.085771e+03 
6.340100e-02 5.866678e+03 
6.480200e-02 5.619272e+03 
6.601100e-02 5.427030e+03 
6.725500e-02 5.248915e+03 
6.829100e-02 5.116996e+03 
6.958600e-02 4.968214e+03 
7.071100e-02 4.854559e+03 
7.192300e-02 4.745783e+03 
7.307400e-02 4.654126e+03 
7.412300e-02 4.579091e+03 
7.550400e-02 4.491615e+03 
7.663100e-02 4.426825e+03 
7.791200e-02 4.360084e+03 
7.912700e-02 4.300840e+03 
8.027600e-02 4.246784e+03 
8.138400e-02 4.195548e+03 
8.272200e-02 4.133652e+03 
8.406100e-02 4.070595e+03 
8.534100e-02 4.007423e+03 
8.653800e-02 3.945181e+03 
8.759800e-02 3.888217e+03 
8.900300e-02 3.809395e+03 
9.009000e-02 3.745327e+03 
9.113300e-02 3.680968e+03 
9.239600e-02 3.601434e+03 
9.358000e-02 3.524503e+03 
9.496100e-02 3.431620e+03 
9.608400e-02 3.355520e+03 
9.727500e-02 3.274983e+03 
9.852600e-02 3.188809e+03 
9.973800e-02 3.106988e+03 
1.009000e-01 3.030168e+03 
1.020900e-01 2.953339e+03 
1.034000e-01 2.872136e+03 
1.046000e-01 2.800862e+03 
1.057200e-01 2.738655e+03 
1.069100e-01 2.675633e+03 
1.082500e-01 2.610537e+03 
1.093900e-01 2.559666e+03 
1.105400e-01 2.511383e+03 
1.116900e-01 2.468748e+03 
1.129600e-01 2.424482e+03 
1.142000e-01 2.386458e+03 
1.153300e-01 2.354229e+03 
1.166400e-01 2.320210e+03 
1.177800e-01 2.293135e+03 
1.190000e-01 2.265693e+03 
1.201200e-01 2.242130e+03 
1.213400e-01 2.217256e+03 
1.227100e-01 2.190036e+03 
1.238900e-01 2.166928e+03 
1.250700e-01 2.143417e+03 
1.263200e-01 2.118446e+03 
1.275500e-01 2.093009e+03 
1.287500e-01 2.067769e+03 
1.299900e-01 2.040709e+03 
1.311300e-01 2.015280e+03 
1.323500e-01 1.987001e+03 
1.335900e-01 1.957803e+03 
1.347100e-01 1.930540e+03 
1.359800e-01 1.899500e+03 
1.372100e-01 1.868503e+03 
1.384300e-01 1.837968e+03 
1.395700e-01 1.808867e+03 
1.407700e-01 1.778827e+03 
1.420300e-01 1.747025e+03 
1.432800e-01 1.716237e+03 
1.444500e-01 1.687849e+03 
1.456300e-01 1.659858e+03 
1.468900e-01 1.631207e+03 
1.480500e-01 1.605585e+03 
1.491700e-01 1.581909e+03 
1.503800e-01 1.557560e+03 
1.516400e-01 1.533081e+03 
1.528200e-01 1.512043e+03 
1.540200e-01 1.491081e+03 
1.551900e-01 1.472489e+03 
1.564300e-01 1.453520e+03 
1.576600e-01 1.435776e+03 
1.588700e-01 1.419496e+03 
1.600900e-01 1.403447e+03 
1.612700e-01 1.389219e+03 
1.625400e-01 1.374191e+03 
1.637600e-01 1.360272e+03 
1.649500e-01 1.347084e+03 
1.662200e-01 1.333232e+03 
1.674000e-01 1.320411e+03 
1.685000e-01 1.308658e+03 
1.697500e-01 1.295173e+03 
1.710300e-01 1.281261e+03 
1.722200e-01 1.268558e+03 
1.734400e-01 1.254797e+03 
1.746400e-01 1.241457e+03 
1.758700e-01 1.227712e+03 
1.770900e-01 1.213690e+03 
1.782700e-01 1.200361e+03 
1.794600e-01 1.186708e+03 
1.807000e-01 1.172434e+03 
1.819100e-01 1.158749e+03 
1.830100e-01 1.146190e+03 
1.842200e-01 1.132547e+03 
1.855000e-01 1.118367e+03 
1.867000e-01 1.105235e+03 
1.879200e-01 1.092110e+03 
1.890900e-01 1.079768e+03 
1.902800e-01 1.067592e+03 
1.915200e-01 1.055117e+03 
1.926900e-01 1.043627e+03 
1.939000e-01 1.032221e+03 
1.951700e-01 1.020448e+03 
1.963100e-01 1.010155e+03 
1.975100e-01 9.997725e+02 
1.987800e-01 9.889602e+02 
2.000100e-01 9.787677e+02 
2.012500e-01 9.689111e+02 
2.023400e-01 9.603740e+02 
2.036100e-01 9.506276e+02 
2.048900e-01 9.411675e+02 
2.060400e-01 9.327951e+02 
2.072200e-01 9.243376e+02 
2.084200e-01 9.159949e+02 
2.096900e-01 9.072966e+02 
2.109200e-01 8.989983e+02 
2.121100e-01 8.911226e+02 
2.132700e-01 8.835539e+02 
2.145200e-01 8.755135e+02 
2.157200e-01 8.679112e+02 
2.168800e-01 8.606660e+02 
2.180700e-01 8.533342e+02 
2.193400e-01 8.456213e+02 
2.206000e-01 8.380818e+02 
2.217500e-01 8.312947e+02 
2.229500e-01 8.243066e+02 
2.241400e-01 8.175134e+02 
2.253500e-01 8.106996e+02 
2.264900e-01 8.043639e+02 
2.277100e-01 7.977221e+02 
2.289900e-01 7.909050e+02 
2.301500e-01 7.848090e+02 
2.313600e-01 7.785333e+02 
2.325600e-01 7.725401e+02 
2.337700e-01 7.665746e+02 
2.350000e-01 7.605890e+02 
2.362000e-01 7.549054e+02 
2.374100e-01 7.493427e+02 
2.386500e-01 7.437147e+02 
2.399100e-01 7.380698e+02 
2.410400e-01 7.332022e+02 
2.422500e-01 7.280690e+02 
2.435000e-01 7.228322e+02 
2.447300e-01 7.177663e+02 
2.458700e-01 7.132178e+02 
2.470600e-01 7.085249e+02 
2.483300e-01 7.035776e+02 
2.495600e-01 6.988637e+02 
2.507600e-01 6.943449e+02 
2.519600e-01 6.898790e+02 
2.532200e-01 6.852458e+02 
2.543700e-01 6.810544e+02 
2.555500e-01 6.767937e+02 
2.568000e-01 6.723328e+02 
2.580100e-01 6.680653e+02 
2.592400e-01 6.637254e+02 
2.604100e-01 6.596212e+02 
2.616100e-01 6.554588e+02 
2.628400e-01 6.512410e+02 
2.640600e-01 6.470277e+02 
2.652200e-01 6.430354e+02 
2.664300e-01 6.389169e+02 
2.676500e-01 6.348108e+02 
2.688400e-01 6.307831e+02 
2.700700e-01 6.266244e+02 
2.712400e-01 6.227119e+02 
2.724800e-01 6.186109e+02 
2.736700e-01 6.146698e+02 
2.748800e-01 6.106558e+02 
2.761000e-01 6.066531e+02 
2.773200e-01 6.026942e+02 
2.785400e-01 5.987542e+02 
2.797000e-01 5.949968e+02 
2.808900e-01 5.911826e+02 
2.821400e-01 5.872195e+02 
2.833900e-01 5.832977e+02 
2.845500e-01 5.796432e+02 
2.857800e-01 5.758089e+02 
2.870300e-01 5.719545e+02 
2.882100e-01 5.683544e+02 
2.893900e-01 5.647685e+02 
2.906300e-01 5.610275e+02 
2.918900e-01 5.572671e+02 
2.930500e-01 5.538411e+02 
2.942500e-01 5.503274e+02 
2.954200e-01 5.469194e+02 
2.966500e-01 5.433731e+02 
2.978900e-01 5.398354e+02 
2.990400e-01 5.365875e+02 
3.002700e-01 5.331404e+02 
3.015100e-01 5.296974e+02 
3.026800e-01 5.264814e+02 
3.038500e-01 5.232967e+02 
3.050300e-01 5.201159e+02 
3.062600e-01 5.168295e+02 
3.075000e-01 5.135499e+02 
3.087000e-01 5.104078e+02 
3.099100e-01 5.072706e+02 
3.111200e-01 5.041659e+02 
3.123100e-01 5.011448e+02 
3.135300e-01 4.980776e+02 
3.147300e-01 4.950900e+02 
3.159900e-01 4.919839e+02 
3.171800e-01 4.890833e+02 
3.183700e-01 4.862128e+02 
3.196300e-01 4.832030e+02 
3.208400e-01 4.803406e+02 
3.220300e-01 4.775520e+02 
3.232000e-01 4.748436e+02 
3.244300e-01 4.720260e+02 
3.256700e-01 4.692127e+02 
3.269200e-01 4.664039e+02 
3.280800e-01 4.638215e+02 
3.292500e-01 4.612503e+02 
3.304800e-01 4.585752e+02 
3.317100e-01 4.559250e+02 
3.328900e-01 4.534058e+02 
3.340700e-01 4.509089e+02 
3.353600e-01 4.482168e+02 
3.365300e-01 4.458021e+02 
3.377100e-01 4.433881e+02 
3.389200e-01 4.409347e+02 
3.401600e-01 4.384432e+02 
3.413700e-01 4.360450e+02 
3.425300e-01 4.337736e+02 
3.437700e-01 4.313668e+02 
3.449800e-01 4.290393e+02 
3.461800e-01 4.267511e+02 
3.473600e-01 4.245255e+02 
3.485800e-01 4.222567e+02 
3.498100e-01 4.199894e+02 
3.510200e-01 4.177784e+02 
3.522000e-01 4.156406e+02 
3.533900e-01 4.135028e+02 
3.546400e-01 4.112931e+02 
3.558400e-01 4.091911e+02 
3.570600e-01 4.070721e+02 
3.582700e-01 4.049884e+02 
3.595000e-01 4.028882e+02 
3.607100e-01 4.008485e+02 
3.618900e-01 3.988826e+02 
3.631200e-01 3.968504e+02 
3.643200e-01 3.948843e+02 
3.655500e-01 3.928857e+02 
3.667300e-01 3.909842e+02 
3.679500e-01 3.890500e+02 
3.691900e-01 3.871004e+02 
3.703600e-01 3.852758e+02 
3.715700e-01 3.834039e+02 
3.727700e-01 3.815625e+02 
3.739900e-01 3.797109e+02 
3.752000e-01 3.778991e+02 
3.763900e-01 3.761314e+02 
3.775800e-01 3.743776e+02 
3.788200e-01 3.725647e+02 
3.800300e-01 3.708098e+02 
3.812100e-01 3.691180e+02 
3.824200e-01 3.674008e+02 
3.836100e-01 3.657252e+02 
3.848600e-01 3.639790e+02 
3.860400e-01 3.623434e+02 
3.872400e-01 3.606929e+02 
3.884600e-01 3.590364e+02 
3.896500e-01 3.574362e+02 
3.908700e-01 3.558083e+02 
3.920600e-01 3.542325e+02 
3.933100e-01 3.525901e+02 
3.945300e-01 3.509995e+02 
3.957200e-01 3.494677e+02 
3.969300e-01 3.479242e+02 
3.981700e-01 3.463544e+02 
3.993500e-01 3.448718e+02 
4.094840e-01 3.325915e+02 
4.272360e-01 3.129854e+02 
4.454600e-01 2.949377e+02 
4.630560e-01 2.792118e+02 
4.804610e-01 2.650665e+02 
4.980690e-01 2.519972e+02 
5.159230e-01 2.398661e+02 
5.317440e-01 2.299551e+02 
5.489640e-01 2.199810e+02 
5.671990e-01 2.102566e+02 
5.838690e-01 2.020373e+02 
6.018840e-01 1.938163e+02 
6.202330e-01 1.860886e+02 
6.379250e-01 1.791731e+02 
6.545410e-01 1.731469e+02 
6.714560e-01 1.674087e+02 
6.892080e-01 1.617907e+02 
7.066010e-01 1.566565e+02 
7.240540e-01 1.518258e+02 
7.420450e-01 1.471726e+02 
7.593780e-01 1.429644e+02 
7.764720e-01 1.390520e+02 
7.942840e-01 1.352096e+02 
8.116170e-01 1.316847e+02 
8.288310e-01 1.283741e+02 
8.462240e-01 1.252008e+02 
8.631980e-01 1.222596e+02 
8.810700e-01 1.193145e+02 
8.989410e-01 1.165150e+02 
9.166330e-01 1.138732e+02 
9.345640e-01 1.113190e+02 
9.515980e-01 1.089989e+02 
9.688720e-01 1.067440e+02 
9.865640e-01 1.045297e+02 
1.031870e+00 9.924924e+01 
1.063490e+00 9.585721e+01 
1.097920e+00 9.241331e+01 
1.134370e+00 8.900116e+01 
1.167730e+00 8.607960e+01 
1.203830e+00 8.310072e+01 
1.240470e+00 8.026182e+01 
1.275790e+00 7.767440e+01 
1.309140e+00 7.536417e+01 
1.342970e+00 7.312761e+01 
1.378420e+00 7.090653e+01 
1.413200e+00 6.882996e+01 
1.448110e+00 6.684010e+01 
1.484090e+00 6.488952e+01 
1.518820e+00 6.308710e+01 
1.552880e+00 6.139475e+01 
1.588630e+00 5.969120e+01 
1.623230e+00 5.811501e+01 
1.657720e+00 5.660628e+01 
1.692450e+00 5.515033e+01 
1.726400e+00 5.377551e+01 
1.762200e+00 5.238164e+01 
1.797880e+00 5.104757e+01 
1.833270e+00 4.977272e+01 
1.869070e+00 4.853305e+01 
1.903200e+00 4.739285e+01 
1.937740e+00 4.627905e+01 
1.973190e+00 4.517530e+01 
2.007440e+00 4.414593e+01 
2.042160e+00 4.313817e+01 
2.077900e+00 4.213338e+01 
2.112390e+00 4.119836e+01 
2.146220e+00 4.030667e+01 
2.181600e+00 3.940527e+01 
2.216930e+00 3.853447e+01 
2.250760e+00 3.772535e+01 
2.286500e+00 3.689673e+01 
2.321770e+00 3.610613e+01 
2.355950e+00 3.536393e+01 
2.391280e+00 3.461684e+01 
2.426240e+00 3.389917e+01 
2.460670e+00 3.321328e+01 
2.495640e+00 3.253747e+01 
2.531080e+00 3.187222e+01 
2.566220e+00 3.123011e+01 
2.600830e+00 3.061592e+01 
2.635080e+00 3.002590e+01 
2.670340e+00 2.943222e+01 
2.705970e+00 2.885016e+01 
2.740040e+00 2.830952e+01 
2.774520e+00 2.777601e+01 
2.809730e+00 2.724514e+01 
2.844390e+00 2.673668e+01 
2.879960e+00 2.622803e+01 
2.914860e+00 2.574177e+01 
2.949410e+00 2.527314e+01 
2.984440e+00 2.480900e+01 
3.019760e+00 2.435381e+01 
3.054730e+00 2.391545e+01 
3.089030e+00 2.349354e+01 
3.124060e+00 2.307415e+01 
3.159560e+00 2.266027e+01 
3.194710e+00 2.225921e+01 
3.229010e+00 2.187760e+01 
3.263320e+00 2.150448e+01 
3.297930e+00 2.113746e+01 
3.332830e+00 2.077586e+01 
3.368040e+00 2.041939e+01 
3.403300e+00 2.007088e+01 
3.438450e+00 1.973091e+01 
3.473060e+00 1.940438e+01 
3.508440e+00 1.907813e+01 
3.543110e+00 1.876615e+01 
3.577470e+00 1.846249e+01 
3.613040e+00 1.815573e+01 
3.648120e+00 1.786006e+01 
3.682910e+00 1.757350e+01 
3.718050e+00 1.729010e+01 
3.753320e+00 1.701202e+01 
3.787980e+00 1.674450e+01 
3.822290e+00 1.648555e+01 
3.857020e+00 1.622901e+01 
3.891920e+00 1.597657e+01 
3.926650e+00 1.572998e+01 
3.961970e+00 1.548484e+01 
3.997360e+00 1.524452e+01 
4.031670e+00 1.501660e+01 
4.066330e+00 1.479062e+01 
4.101420e+00 1.456691e+01 
4.136200e+00 1.434960e+01 
4.170810e+00 1.413805e+01 
4.206250e+00 1.392540e+01 
4.241580e+00 1.371792e+01 
4.276300e+00 1.351799e+01 
4.310970e+00 1.332235e+01 
4.346120e+00 1.312803e+01 
4.380600e+00 1.294114e+01 
4.414730e+00 1.275992e+01 
4.450350e+00 1.257416e+01 
4.485320e+00 1.239558e+01 
4.519810e+00 1.222274e+01 
4.555430e+00 1.204773e+01 
4.590870e+00 1.187709e+01 
4.625480e+00 1.171360e+01 
4.659910e+00 1.155415e+01 
4.695230e+00 1.139351e+01 
4.729960e+00 1.123861e+01 
4.764450e+00 1.108766e+01 
4.799530e+00 1.093693e+01 
4.834910e+00 1.078787e+01 
4.869700e+00 1.064396e+01 
4.904370e+00 1.050324e+01 
4.939450e+00 1.036350e+01 
4.973940e+00 1.022858e+01 
5.008430e+00 1.009615e+01 
5.043810e+00 9.962716e+00 
5.078840e+00 9.833002e+00 
5.113500e+00 9.707001e+00 
5.148890e+00 9.580643e+00 
5.184210e+00 9.456840e+00 
5.219060e+00 9.336876e+00 
5.253660e+00 9.219850e+00 
5.288570e+00 9.103862e+00 
5.323420e+00 8.990118e+00 
5.358440e+00 8.877828e+00 
5.393590e+00 8.767096e+00 
5.428310e+00 8.659632e+00 
5.462800e+00 8.554711e+00 
5.497640e+00 8.450530e+00 
5.532670e+00 8.347585e+00 
5.567280e+00 8.247599e+00 
5.602000e+00 8.148973e+00 
5.637270e+00 8.050528e+00 
5.672410e+00 7.954108e+00 
5.707020e+00 7.860713e+00 
5.742040e+00 7.767815e+00 
5.777430e+00 7.675496e+00 
5.812210e+00 7.586253e+00 
5.846820e+00 7.498931e+00 
5.881610e+00 7.412574e+00 
5.916510e+00 7.327329e+00 
5.951600e+00 7.243080e+00 
5.986560e+00 7.160518e+00 
6.021830e+00 7.078545e+00 
6.056490e+00 6.999323e+00 
6.091160e+00 6.921363e+00 
6.125830e+00 6.844604e+00 
6.161090e+00 6.767784e+00 
6.195760e+00 6.693495e+00 
6.230420e+00 6.620353e+00 
6.265690e+00 6.547061e+00 
6.300950e+00 6.475045e+00 
6.335620e+00 6.405299e+00 
6.370880e+00 6.335429e+00 
6.405550e+00 6.267852e+00 
6.440220e+00 6.201310e+00 
6.475480e+00 6.134633e+00 
6.510150e+00 6.070072e+00 
6.544810e+00 6.006550e+00 
6.580080e+00 5.942849e+00 
6.614750e+00 5.881137e+00 
6.649410e+00 5.820482e+00 
6.684080e+00 5.760701e+00 
6.719340e+00 5.700768e+00 
6.754010e+00 5.642712e+00 
6.788680e+00 5.585557e+00 
6.823940e+00 5.528244e+00 
6.859800e+00 5.470785e+00 
6.894470e+00 5.416125e+00 
6.929140e+00 5.362257e+00 
6.963800e+00 5.309139e+00 
6.999070e+00 5.255835e+00 
7.033730e+00 5.204290e+00 
7.068400e+00 5.153424e+00 
7.103660e+00 5.102391e+00 
7.138330e+00 5.052942e+00 
7.173600e+00 5.003428e+00 
7.208260e+00 4.955418e+00 
7.243530e+00 4.907210e+00 
7.277600e+00 4.861335e+00 
7.312860e+00 4.814551e+00 
7.348120e+00 4.768384e+00 
7.382790e+00 4.723580e+00 
7.417460e+00 4.679444e+00 
7.452720e+00 4.635184e+00 
7.487390e+00 4.592223e+00 
7.522650e+00 4.549089e+00 
7.557320e+00 4.507319e+00 
7.591990e+00 4.466111e+00 
7.627250e+00 4.424731e+00 
7.662510e+00 4.383874e+00 
7.697180e+00 4.344309e+00 
7.731850e+00 4.305272e+00 
7.766510e+00 4.266726e+00 
7.801180e+00 4.228640e+00 
7.836440e+00 4.190479e+00 
7.871110e+00 4.153475e+00 
7.906380e+00 4.116290e+00 
7.941040e+00 4.080190e+00 
7.976310e+00 4.043953e+00 
8.011570e+00 4.008229e+00 
8.046240e+00 3.973524e+00 
8.080900e+00 3.939238e+00 
8.115570e+00 3.905376e+00 
8.150830e+00 3.871457e+00 
8.185500e+00 3.838498e+00 
8.220770e+00 3.805361e+00 
8.255430e+00 3.773177e+00 
8.290100e+00 3.741464e+00 
8.324770e+00 3.710127e+00 
8.359430e+00 3.679157e+00 
8.394700e+00 3.648004e+00 
8.429960e+00 3.617288e+00 
8.464630e+00 3.587499e+00 
8.499890e+00 3.557547e+00 
8.534560e+00 3.528428e+00 
8.569200e+00 3.499660e+00 
