# Parameters:
# omega_b = 0.021547, omega_m = 0.130472, n_s = 1.032677, h = 80.748031, w = -1.000000, sigma_8 = 0.792913
# z = 0.900000
#
# k[1/Mpc] # P(k):
8.694000e-04 4.907206e+03 
2.077466e-03 1.099302e+04 
3.285532e-03 1.592053e+04 
4.493598e-03 1.977771e+04 
5.701664e-03 2.268193e+04 
6.909730e-03 2.476671e+04 
8.117797e-03 2.619942e+04 
9.325863e-03 2.706698e+04 
1.053393e-02 2.745998e+04 
1.174199e-02 2.746470e+04 
1.295006e-02 2.713716e+04 
1.415813e-02 2.655437e+04 
1.536619e-02 2.578105e+04 
1.657426e-02 2.485745e+04 
1.778233e-02 2.378706e+04 
1.899039e-02 2.259803e+04 
2.019846e-02 2.139310e+04 
2.140652e-02 2.025542e+04 
2.261459e-02 1.918434e+04 
2.382266e-02 1.818209e+04 
2.503072e-02 1.725729e+04 
2.623879e-02 1.641344e+04 
2.744685e-02 1.565322e+04 
2.865492e-02 1.497482e+04 
2.986299e-02 1.437372e+04 
3.100100e-02 1.387654e+04 
3.220400e-02 1.341665e+04 
3.288100e-02 1.318698e+04 
3.424300e-02 1.277834e+04 
3.555100e-02 1.244191e+04 
3.686000e-02 1.215209e+04 
3.795000e-02 1.193814e+04 
3.929100e-02 1.170241e+04 
4.039800e-02 1.152128e+04 
4.164000e-02 1.132577e+04 
4.294400e-02 1.111755e+04 
4.415000e-02 1.092138e+04 
4.542900e-02 1.069600e+04 
4.660900e-02 1.047753e+04 
4.782300e-02 1.022652e+04 
4.892900e-02 9.985257e+03 
5.031200e-02 9.662064e+03 
5.155900e-02 9.350705e+03 
5.238100e-02 9.138311e+03 
5.378200e-02 8.767441e+03 
5.513400e-02 8.402240e+03 
5.627600e-02 8.093513e+03 
5.735300e-02 7.806844e+03 
5.870100e-02 7.458579e+03 
5.988700e-02 7.166236e+03 
6.113500e-02 6.875301e+03 
6.225900e-02 6.630549e+03 
6.340100e-02 6.400432e+03 
6.480200e-02 6.142691e+03 
6.601100e-02 5.944900e+03 
6.725500e-02 5.763878e+03 
6.829100e-02 5.631938e+03 
6.958600e-02 5.485015e+03 
7.071100e-02 5.374963e+03 
7.192300e-02 5.271591e+03 
7.307400e-02 5.186217e+03 
7.412300e-02 5.117590e+03 
7.550400e-02 5.039180e+03 
7.663100e-02 4.981774e+03 
7.791200e-02 4.922870e+03 
7.912700e-02 4.869732e+03 
8.027600e-02 4.819953e+03 
8.138400e-02 4.771286e+03 
8.272200e-02 4.709998e+03 
8.406100e-02 4.644614e+03 
8.534100e-02 4.575652e+03 
8.653800e-02 4.505039e+03 
8.759800e-02 4.438983e+03 
8.900300e-02 4.345633e+03 
9.009000e-02 4.268503e+03 
9.113300e-02 4.190395e+03 
9.239600e-02 4.093604e+03 
9.358000e-02 3.999969e+03 
9.496100e-02 3.887641e+03 
9.608400e-02 3.796344e+03 
9.727500e-02 3.700375e+03 
9.852600e-02 3.599778e+03 
9.973800e-02 3.505376e+03 
1.009000e-01 3.417647e+03 
1.020900e-01 3.332325e+03 
1.034000e-01 3.243266e+03 
1.046000e-01 3.166266e+03 
1.057200e-01 3.100988e+03 
1.069100e-01 3.035487e+03 
1.082500e-01 2.969725e+03 
1.093900e-01 2.919364e+03 
1.105400e-01 2.872178e+03 
1.116900e-01 2.831744e+03 
1.129600e-01 2.790104e+03 
1.142000e-01 2.755078e+03 
1.153300e-01 2.725439e+03 
1.166400e-01 2.694254e+03 
1.177800e-01 2.668998e+03 
1.190000e-01 2.643196e+03 
1.201200e-01 2.619794e+03 
1.213400e-01 2.594868e+03 
1.227100e-01 2.565250e+03 
1.238900e-01 2.539621e+03 
1.250700e-01 2.511977e+03 
1.263200e-01 2.482118e+03 
1.275500e-01 2.450624e+03 
1.287500e-01 2.419067e+03 
1.299900e-01 2.384774e+03 
1.311300e-01 2.352589e+03 
1.323500e-01 2.316858e+03 
1.335900e-01 2.280308e+03 
1.347100e-01 2.246608e+03 
1.359800e-01 2.208676e+03 
1.372100e-01 2.171627e+03 
1.384300e-01 2.135532e+03 
1.395700e-01 2.102057e+03 
1.407700e-01 2.067621e+03 
1.420300e-01 2.032413e+03 
1.432800e-01 1.998309e+03 
1.444500e-01 1.967920e+03 
1.456300e-01 1.937933e+03 
1.468900e-01 1.907775e+03 
1.480500e-01 1.880952e+03 
1.491700e-01 1.856310e+03 
1.503800e-01 1.831164e+03 
1.516400e-01 1.805869e+03 
1.528200e-01 1.784158e+03 
1.540200e-01 1.762508e+03 
1.551900e-01 1.743131e+03 
1.564300e-01 1.723308e+03 
1.576600e-01 1.704580e+03 
1.588700e-01 1.687172e+03 
1.600900e-01 1.669979e+03 
1.612700e-01 1.654265e+03 
1.625400e-01 1.637665e+03 
1.637600e-01 1.621995e+03 
1.649500e-01 1.606973e+03 
1.662200e-01 1.591141e+03 
1.674000e-01 1.576198e+03 
1.685000e-01 1.562500e+03 
1.697500e-01 1.546697e+03 
1.710300e-01 1.530311e+03 
1.722200e-01 1.515347e+03 
1.734400e-01 1.499139e+03 
1.746400e-01 1.483427e+03 
1.758700e-01 1.467275e+03 
1.770900e-01 1.450872e+03 
1.782700e-01 1.435279e+03 
1.794600e-01 1.419408e+03 
1.807000e-01 1.402880e+03 
1.819100e-01 1.387032e+03 
1.830100e-01 1.372628e+03 
1.842200e-01 1.357002e+03 
1.855000e-01 1.340764e+03 
1.867000e-01 1.325884e+03 
1.879200e-01 1.311008e+03 
1.890900e-01 1.297035e+03 
1.902800e-01 1.283358e+03 
1.915200e-01 1.269340e+03 
1.926900e-01 1.256445e+03 
1.939000e-01 1.243710e+03 
1.951700e-01 1.230559e+03 
1.963100e-01 1.219069e+03 
1.975100e-01 1.207506e+03 
1.987800e-01 1.195459e+03 
2.000100e-01 1.184099e+03 
2.012500e-01 1.173109e+03 
2.023400e-01 1.163588e+03 
2.036100e-01 1.152705e+03 
2.048900e-01 1.142101e+03 
2.060400e-01 1.132713e+03 
2.072200e-01 1.123222e+03 
2.084200e-01 1.113788e+03 
2.096900e-01 1.103949e+03 
2.109200e-01 1.094561e+03 
2.121100e-01 1.085557e+03 
2.132700e-01 1.076897e+03 
2.145200e-01 1.067696e+03 
2.157200e-01 1.058925e+03 
2.168800e-01 1.050531e+03 
2.180700e-01 1.042036e+03 
2.193400e-01 1.033056e+03 
2.206000e-01 1.024197e+03 
2.217500e-01 1.016222e+03 
2.229500e-01 1.008010e+03 
2.241400e-01 9.999121e+02 
2.253500e-01 9.917866e+02 
2.264900e-01 9.842306e+02 
2.277100e-01 9.762488e+02 
2.289900e-01 9.679882e+02 
2.301500e-01 9.606014e+02 
2.313600e-01 9.529954e+02 
2.325600e-01 9.456114e+02 
2.337700e-01 9.382617e+02 
2.350000e-01 9.308874e+02 
2.362000e-01 9.238354e+02 
2.374100e-01 9.168737e+02 
2.386500e-01 9.098306e+02 
2.399100e-01 9.027668e+02 
2.410400e-01 8.966089e+02 
2.422500e-01 8.901067e+02 
2.435000e-01 8.834737e+02 
2.447300e-01 8.770501e+02 
2.458700e-01 8.712527e+02 
2.470600e-01 8.652716e+02 
2.483300e-01 8.589667e+02 
2.495600e-01 8.529646e+02 
2.507600e-01 8.472181e+02 
2.519600e-01 8.415393e+02 
2.532200e-01 8.356480e+02 
2.543700e-01 8.303526e+02 
2.555500e-01 8.249927e+02 
2.568000e-01 8.193812e+02 
2.580100e-01 8.140132e+02 
2.592400e-01 8.086149e+02 
2.604100e-01 8.035362e+02 
2.616100e-01 7.983855e+02 
2.628400e-01 7.931662e+02 
2.640600e-01 7.880225e+02 
2.652200e-01 7.831756e+02 
2.664300e-01 7.781753e+02 
2.676500e-01 7.731903e+02 
2.688400e-01 7.683546e+02 
2.700700e-01 7.633949e+02 
2.712400e-01 7.587287e+02 
2.724800e-01 7.538374e+02 
2.736700e-01 7.491713e+02 
2.748800e-01 7.444539e+02 
2.761000e-01 7.397493e+02 
2.773200e-01 7.350959e+02 
2.785400e-01 7.304806e+02 
2.797000e-01 7.261122e+02 
2.808900e-01 7.216774e+02 
2.821400e-01 7.170690e+02 
2.833900e-01 7.125095e+02 
2.845500e-01 7.082911e+02 
2.857800e-01 7.038645e+02 
2.870300e-01 6.994142e+02 
2.882100e-01 6.952571e+02 
2.893900e-01 6.911291e+02 
2.906300e-01 6.868292e+02 
2.918900e-01 6.825064e+02 
2.930500e-01 6.785675e+02 
2.942500e-01 6.745298e+02 
2.954200e-01 6.706210e+02 
2.966500e-01 6.665530e+02 
2.978900e-01 6.624943e+02 
2.990400e-01 6.587675e+02 
3.002700e-01 6.548160e+02 
3.015100e-01 6.508707e+02 
3.026800e-01 6.471849e+02 
3.038500e-01 6.435344e+02 
3.050300e-01 6.398880e+02 
3.062600e-01 6.361237e+02 
3.075000e-01 6.323667e+02 
3.087000e-01 6.287666e+02 
3.099100e-01 6.251716e+02 
3.111200e-01 6.216138e+02 
3.123100e-01 6.181525e+02 
3.135300e-01 6.146378e+02 
3.147300e-01 6.112137e+02 
3.159900e-01 6.076533e+02 
3.171800e-01 6.043280e+02 
3.183700e-01 6.010369e+02 
3.196300e-01 5.975854e+02 
3.208400e-01 5.943026e+02 
3.220300e-01 5.911039e+02 
3.232000e-01 5.879964e+02 
3.244300e-01 5.847631e+02 
3.256700e-01 5.815341e+02 
3.269200e-01 5.783099e+02 
3.280800e-01 5.753451e+02 
3.292500e-01 5.723922e+02 
3.304800e-01 5.693193e+02 
3.317100e-01 5.662747e+02 
3.328900e-01 5.633801e+02 
3.340700e-01 5.605108e+02 
3.353600e-01 5.574147e+02 
3.365300e-01 5.546366e+02 
3.377100e-01 5.518589e+02 
3.389200e-01 5.490355e+02 
3.401600e-01 5.461678e+02 
3.413700e-01 5.434057e+02 
3.425300e-01 5.407881e+02 
3.437700e-01 5.380141e+02 
3.449800e-01 5.353311e+02 
3.461800e-01 5.326932e+02 
3.473600e-01 5.301261e+02 
3.485800e-01 5.275065e+02 
3.498100e-01 5.248883e+02 
3.510200e-01 5.223348e+02 
3.522000e-01 5.198655e+02 
3.533900e-01 5.173959e+02 
3.546400e-01 5.148392e+02 
3.558400e-01 5.124064e+02 
3.570600e-01 5.099538e+02 
3.582700e-01 5.075417e+02 
3.595000e-01 5.051103e+02 
3.607100e-01 5.027463e+02 
3.618900e-01 5.004658e+02 
3.631200e-01 4.981082e+02 
3.643200e-01 4.958271e+02 
3.655500e-01 4.935081e+02 
3.667300e-01 4.913014e+02 
3.679500e-01 4.890520e+02 
3.691900e-01 4.867845e+02 
3.703600e-01 4.846622e+02 
3.715700e-01 4.824846e+02 
3.727700e-01 4.803423e+02 
3.739900e-01 4.781866e+02 
3.752000e-01 4.760746e+02 
3.763900e-01 4.740138e+02 
3.775800e-01 4.719690e+02 
3.788200e-01 4.698551e+02 
3.800300e-01 4.678087e+02 
3.812100e-01 4.658331e+02 
3.824200e-01 4.638260e+02 
3.836100e-01 4.618673e+02 
3.848600e-01 4.598259e+02 
3.860400e-01 4.579137e+02 
3.872400e-01 4.559838e+02 
3.884600e-01 4.540441e+02 
3.896500e-01 4.521692e+02 
3.908700e-01 4.502617e+02 
3.920600e-01 4.484151e+02 
3.933100e-01 4.464902e+02 
3.945300e-01 4.446260e+02 
3.957200e-01 4.428274e+02 
3.969300e-01 4.410140e+02 
3.981700e-01 4.391697e+02 
3.993500e-01 4.374277e+02 
4.094840e-01 4.229760e+02 
4.272360e-01 3.998096e+02 
4.454600e-01 3.783931e+02 
4.630560e-01 3.596624e+02 
4.804610e-01 3.427622e+02 
4.980690e-01 3.271011e+02 
5.159230e-01 3.125228e+02 
5.317440e-01 3.005794e+02 
5.489640e-01 2.885254e+02 
5.671990e-01 2.767365e+02 
5.838690e-01 2.667424e+02 
6.018840e-01 2.567127e+02 
6.202330e-01 2.472480e+02 
6.379250e-01 2.387565e+02 
6.545410e-01 2.313275e+02 
6.714560e-01 2.242316e+02 
6.892080e-01 2.172656e+02 
7.066010e-01 2.108749e+02 
7.240540e-01 2.048474e+02 
7.420450e-01 1.990192e+02 
7.593780e-01 1.937324e+02 
7.764720e-01 1.888039e+02 
7.942840e-01 1.839504e+02 
8.116170e-01 1.794821e+02 
8.288310e-01 1.752733e+02 
8.462240e-01 1.712281e+02 
8.631980e-01 1.674674e+02 
8.810700e-01 1.636927e+02 
8.989410e-01 1.600947e+02 
9.166330e-01 1.566902e+02 
9.345640e-01 1.533898e+02 
9.515980e-01 1.503829e+02 
9.688720e-01 1.474531e+02 
9.865640e-01 1.445678e+02 
1.031870e+00 1.376609e+02 
1.063490e+00 1.331990e+02 
1.097920e+00 1.286513e+02 
1.134370e+00 1.241249e+02 
1.167730e+00 1.202328e+02 
1.203830e+00 1.162483e+02 
1.240470e+00 1.124373e+02 
1.275790e+00 1.089493e+02 
1.309140e+00 1.058280e+02 
1.342970e+00 1.027936e+02 
1.378420e+00 9.977300e+01 
1.413200e+00 9.694066e+01 
1.448110e+00 9.421897e+01 
1.484090e+00 9.154462e+01 
1.518820e+00 8.906755e+01 
1.552880e+00 8.673669e+01 
1.588630e+00 8.438612e+01 
1.623230e+00 8.220646e+01 
1.657720e+00 8.011684e+01 
1.692450e+00 7.809757e+01 
1.726400e+00 7.618648e+01 
1.762200e+00 7.424547e+01 
1.797880e+00 7.238637e+01 
1.833270e+00 7.060678e+01 
1.869070e+00 6.887350e+01 
1.903200e+00 6.727837e+01 
1.937740e+00 6.571845e+01 
1.973190e+00 6.417005e+01 
2.007440e+00 6.272513e+01 
2.042160e+00 6.130950e+01 
2.077900e+00 5.989625e+01 
2.112390e+00 5.858081e+01 
2.146220e+00 5.732448e+01 
2.181600e+00 5.605385e+01 
2.216930e+00 5.482565e+01 
2.250760e+00 5.368353e+01 
2.286500e+00 5.251303e+01 
2.321770e+00 5.139577e+01 
2.355950e+00 5.034670e+01 
2.391280e+00 4.928956e+01 
2.426240e+00 4.827397e+01 
2.460670e+00 4.730304e+01 
2.495640e+00 4.634580e+01 
2.531080e+00 4.540281e+01 
2.566220e+00 4.449258e+01 
2.600830e+00 4.362181e+01 
2.635080e+00 4.278516e+01 
2.670340e+00 4.194303e+01 
2.705970e+00 4.111709e+01 
2.740040e+00 4.034964e+01 
2.774520e+00 3.959179e+01 
2.809730e+00 3.883790e+01 
2.844390e+00 3.811585e+01 
2.879960e+00 3.739345e+01 
2.914860e+00 3.670253e+01 
2.949410e+00 3.603659e+01 
2.984440e+00 3.537722e+01 
3.019760e+00 3.473028e+01 
3.054730e+00 3.410711e+01 
3.089030e+00 3.350752e+01 
3.124060e+00 3.291135e+01 
3.159560e+00 3.232278e+01 
3.194710e+00 3.175261e+01 
3.229010e+00 3.121014e+01 
3.263320e+00 3.067991e+01 
3.297930e+00 3.015821e+01 
3.332830e+00 2.964397e+01 
3.368040e+00 2.913717e+01 
3.403300e+00 2.864177e+01 
3.438450e+00 2.815863e+01 
3.473060e+00 2.769462e+01 
3.508440e+00 2.723091e+01 
3.543110e+00 2.678748e+01 
3.577470e+00 2.635603e+01 
3.613040e+00 2.592013e+01 
3.648120e+00 2.549996e+01 
3.682910e+00 2.509275e+01 
3.718050e+00 2.469012e+01 
3.753320e+00 2.429508e+01 
3.787980e+00 2.391512e+01 
3.822290e+00 2.354736e+01 
3.857020e+00 2.318309e+01 
3.891920e+00 2.282465e+01 
3.926650e+00 2.247460e+01 
3.961970e+00 2.212661e+01 
3.997360e+00 2.178557e+01 
4.031670e+00 2.146211e+01 
4.066330e+00 2.114145e+01 
4.101420e+00 2.082398e+01 
4.136200e+00 2.051570e+01 
4.170810e+00 2.021558e+01 
4.206250e+00 1.991392e+01 
4.241580e+00 1.961958e+01 
4.276300e+00 1.933603e+01 
4.310970e+00 1.905861e+01 
4.346120e+00 1.878307e+01 
4.380600e+00 1.851812e+01 
4.414730e+00 1.826118e+01 
4.450350e+00 1.799792e+01 
4.485320e+00 1.774482e+01 
4.519810e+00 1.749989e+01 
4.555430e+00 1.725190e+01 
4.590870e+00 1.701011e+01 
4.625480e+00 1.677850e+01 
4.659910e+00 1.655261e+01 
4.695230e+00 1.632507e+01 
4.729960e+00 1.610567e+01 
4.764450e+00 1.589187e+01 
4.799530e+00 1.567843e+01 
4.834910e+00 1.546732e+01 
4.869700e+00 1.526356e+01 
4.904370e+00 1.506430e+01 
4.939450e+00 1.486643e+01 
4.973940e+00 1.467544e+01 
5.008430e+00 1.448794e+01 
5.043810e+00 1.429906e+01 
5.078840e+00 1.411545e+01 
5.113500e+00 1.393708e+01 
5.148890e+00 1.375823e+01 
5.184210e+00 1.358298e+01 
5.219060e+00 1.341316e+01 
5.253660e+00 1.324752e+01 
5.288570e+00 1.308334e+01 
5.323420e+00 1.292233e+01 
5.358440e+00 1.276339e+01 
5.393590e+00 1.260663e+01 
5.428310e+00 1.245451e+01 
5.462800e+00 1.230599e+01 
5.497640e+00 1.215850e+01 
5.532670e+00 1.201276e+01 
5.567280e+00 1.187121e+01 
5.602000e+00 1.173157e+01 
5.637270e+00 1.159218e+01 
5.672410e+00 1.145564e+01 
5.707020e+00 1.132337e+01 
5.742040e+00 1.119181e+01 
5.777430e+00 1.106106e+01 
5.812210e+00 1.093464e+01 
5.846820e+00 1.081094e+01 
5.881610e+00 1.068858e+01 
5.916510e+00 1.056779e+01 
5.951600e+00 1.044840e+01 
5.986560e+00 1.033138e+01 
6.021830e+00 1.021519e+01 
6.056490e+00 1.010288e+01 
6.091160e+00 9.992340e+00 
6.125830e+00 9.883494e+00 
6.161090e+00 9.774542e+00 
6.195760e+00 9.669156e+00 
6.230420e+00 9.565384e+00 
6.265690e+00 9.461387e+00 
6.300950e+00 9.359174e+00 
6.335620e+00 9.260172e+00 
6.370880e+00 9.160982e+00 
6.405550e+00 9.065013e+00 
6.440220e+00 8.970493e+00 
6.475480e+00 8.875771e+00 
6.510150e+00 8.784037e+00 
6.544810e+00 8.693750e+00 
6.580080e+00 8.603198e+00 
6.614750e+00 8.515464e+00 
6.649410e+00 8.429191e+00 
6.684080e+00 8.344146e+00 
6.719340e+00 8.258876e+00 
6.754010e+00 8.176251e+00 
6.788680e+00 8.094867e+00 
6.823940e+00 8.013250e+00 
6.859800e+00 7.931415e+00 
6.894470e+00 7.853526e+00 
6.929140e+00 7.776745e+00 
6.963800e+00 7.701026e+00 
6.999070e+00 7.625031e+00 
7.033730e+00 7.551494e+00 
7.068400e+00 7.478919e+00 
7.103660e+00 7.406098e+00 
7.138330e+00 7.335512e+00 
7.173600e+00 7.264785e+00 
7.208260e+00 7.196200e+00 
7.243530e+00 7.127327e+00 
7.277600e+00 7.061750e+00 
7.312860e+00 6.994843e+00 
7.348120e+00 6.928811e+00 
7.382790e+00 6.864722e+00 
7.417460e+00 6.801546e+00 
7.452720e+00 6.738166e+00 
7.487390e+00 6.676641e+00 
7.522650e+00 6.614863e+00 
7.557320e+00 6.554987e+00 
7.591990e+00 6.495895e+00 
7.627250e+00 6.436551e+00 
7.662510e+00 6.377953e+00 
7.697180e+00 6.321161e+00 
7.731850e+00 6.265107e+00 
7.766510e+00 6.209754e+00 
7.801180e+00 6.155058e+00 
7.836440e+00 6.100209e+00 
7.871110e+00 6.046996e+00 
7.906380e+00 5.993517e+00 
7.941040e+00 5.941596e+00 
7.976310e+00 5.889442e+00 
8.011570e+00 5.837987e+00 
8.046240e+00 5.787996e+00 
8.080900e+00 5.738607e+00 
8.115570e+00 5.689811e+00 
8.150830e+00 5.640883e+00 
8.185500e+00 5.593336e+00 
8.220770e+00 5.545530e+00 
8.255430e+00 5.499098e+00 
8.290100e+00 5.453280e+00 
8.324770e+00 5.407997e+00 
8.359430e+00 5.363242e+00 
8.394700e+00 5.318220e+00 
8.429960e+00 5.273796e+00 
8.464630e+00 5.230679e+00 
8.499890e+00 5.187325e+00 
8.534560e+00 5.145175e+00 
8.569200e+00 5.103530e+00 
