# Parameters:
# omega_b = 0.022224, omega_m = 0.142047, n_s = 0.920866, h = 84.527559, w = -1.000000, sigma_8 = 0.887402
# z = 0.900000
#
# k[1/Mpc] # P(k):
8.694000e-04 7.788060e+03 
2.077466e-03 1.600266e+04 
3.285532e-03 2.222810e+04 
4.493598e-03 2.691111e+04 
5.701664e-03 3.030976e+04 
6.909730e-03 3.265901e+04 
8.117797e-03 3.420515e+04 
9.325863e-03 3.507394e+04 
1.053393e-02 3.538453e+04 
1.174199e-02 3.524333e+04 
1.295006e-02 3.472064e+04 
1.415813e-02 3.390919e+04 
1.536619e-02 3.288296e+04 
1.657426e-02 3.167933e+04 
1.778233e-02 3.025208e+04 
1.899039e-02 2.860616e+04 
2.019846e-02 2.695520e+04 
2.140652e-02 2.544855e+04 
2.261459e-02 2.405642e+04 
2.382266e-02 2.275946e+04 
2.503072e-02 2.156298e+04 
2.623879e-02 2.046982e+04 
2.744685e-02 1.948185e+04 
2.865492e-02 1.859698e+04 
2.986299e-02 1.780934e+04 
3.100100e-02 1.715377e+04 
3.220400e-02 1.654329e+04 
3.288100e-02 1.623626e+04 
3.424300e-02 1.568628e+04 
3.555100e-02 1.522985e+04 
3.686000e-02 1.483360e+04 
3.795000e-02 1.453978e+04 
3.929100e-02 1.421561e+04 
4.039800e-02 1.396771e+04 
4.164000e-02 1.370233e+04 
4.294400e-02 1.342502e+04 
4.415000e-02 1.316762e+04 
4.542900e-02 1.287824e+04 
4.660900e-02 1.260159e+04 
4.782300e-02 1.228931e+04 
4.892900e-02 1.199200e+04 
5.031200e-02 1.159750e+04 
5.155900e-02 1.122044e+04 
5.238100e-02 1.096434e+04 
5.378200e-02 1.051868e+04 
5.513400e-02 1.008120e+04 
5.627600e-02 9.711934e+03 
5.735300e-02 9.369205e+03 
5.870100e-02 8.952714e+03 
5.988700e-02 8.602721e+03 
6.113500e-02 8.253775e+03 
6.225900e-02 7.959362e+03 
6.340100e-02 7.681523e+03 
6.480200e-02 7.368960e+03 
6.601100e-02 7.127277e+03 
6.725500e-02 6.904291e+03 
6.829100e-02 6.739933e+03 
6.958600e-02 6.555166e+03 
7.071100e-02 6.414728e+03 
7.192300e-02 6.280907e+03 
7.307400e-02 6.168641e+03 
7.412300e-02 6.077078e+03 
7.550400e-02 5.970714e+03 
7.663100e-02 5.892023e+03 
7.791200e-02 5.810800e+03 
7.912700e-02 5.738126e+03 
8.027600e-02 5.671082e+03 
8.138400e-02 5.606748e+03 
8.272200e-02 5.527749e+03 
8.406100e-02 5.445772e+03 
8.534100e-02 5.361858e+03 
8.653800e-02 5.277795e+03 
8.759800e-02 5.200114e+03 
8.900300e-02 5.091614e+03 
9.009000e-02 5.002789e+03 
9.113300e-02 4.913292e+03 
9.239600e-02 4.802650e+03 
9.358000e-02 4.695788e+03 
9.496100e-02 4.567521e+03 
9.608400e-02 4.463095e+03 
9.727500e-02 4.353152e+03 
9.852600e-02 4.237320e+03 
9.973800e-02 4.128261e+03 
1.009000e-01 4.026611e+03 
1.020900e-01 3.926920e+03 
1.034000e-01 3.822421e+03 
1.046000e-01 3.731607e+03 
1.057200e-01 3.653777e+03 
1.069100e-01 3.575361e+03 
1.082500e-01 3.495658e+03 
1.093900e-01 3.434001e+03 
1.105400e-01 3.375849e+03 
1.116900e-01 3.325142e+03 
1.129600e-01 3.272623e+03 
1.142000e-01 3.227719e+03 
1.153300e-01 3.189530e+03 
1.166400e-01 3.149030e+03 
1.177800e-01 3.116226e+03 
1.190000e-01 3.082702e+03 
1.201200e-01 3.052791e+03 
1.213400e-01 3.021010e+03 
1.227100e-01 2.984400e+03 
1.238900e-01 2.952981e+03 
1.250700e-01 2.919941e+03 
1.263200e-01 2.884566e+03 
1.275500e-01 2.847920e+03 
1.287500e-01 2.811483e+03 
1.299900e-01 2.772308e+03 
1.311300e-01 2.735698e+03 
1.323500e-01 2.695280e+03 
1.335900e-01 2.653981e+03 
1.347100e-01 2.615960e+03 
1.359800e-01 2.573126e+03 
1.372100e-01 2.531219e+03 
1.384300e-01 2.490312e+03 
1.395700e-01 2.452199e+03 
1.407700e-01 2.412953e+03 
1.420300e-01 2.372500e+03 
1.432800e-01 2.333311e+03 
1.444500e-01 2.298011e+03 
1.456300e-01 2.263176e+03 
1.468900e-01 2.227854e+03 
1.480500e-01 2.196348e+03 
1.491700e-01 2.167261e+03 
1.503800e-01 2.137390e+03 
1.516400e-01 2.107292e+03 
1.528200e-01 2.081227e+03 
1.540200e-01 2.055239e+03 
1.551900e-01 2.031819e+03 
1.564300e-01 2.007821e+03 
1.576600e-01 1.985109e+03 
1.588700e-01 1.963946e+03 
1.600900e-01 1.943049e+03 
1.612700e-01 1.923983e+03 
1.625400e-01 1.903843e+03 
1.637600e-01 1.884937e+03 
1.649500e-01 1.866872e+03 
1.662200e-01 1.847873e+03 
1.674000e-01 1.830150e+03 
1.685000e-01 1.813903e+03 
1.697500e-01 1.795300e+03 
1.710300e-01 1.776144e+03 
1.722200e-01 1.758652e+03 
1.734400e-01 1.739940e+03 
1.746400e-01 1.721809e+03 
1.758700e-01 1.703225e+03 
1.770900e-01 1.684455e+03 
1.782700e-01 1.666611e+03 
1.794600e-01 1.648495e+03 
1.807000e-01 1.629658e+03 
1.819100e-01 1.611594e+03 
1.830100e-01 1.595175e+03 
1.842200e-01 1.577359e+03 
1.855000e-01 1.558841e+03 
1.867000e-01 1.541813e+03 
1.879200e-01 1.524787e+03 
1.890900e-01 1.508778e+03 
1.902800e-01 1.493025e+03 
1.915200e-01 1.476878e+03 
1.926900e-01 1.461999e+03 
1.939000e-01 1.447219e+03 
1.951700e-01 1.431957e+03 
1.963100e-01 1.418597e+03 
1.975100e-01 1.405081e+03 
1.987800e-01 1.391000e+03 
2.000100e-01 1.377702e+03 
2.012500e-01 1.364791e+03 
2.023400e-01 1.353605e+03 
2.036100e-01 1.340816e+03 
2.048900e-01 1.328338e+03 
2.060400e-01 1.317291e+03 
2.072200e-01 1.306126e+03 
2.084200e-01 1.295049e+03 
2.096900e-01 1.283498e+03 
2.109200e-01 1.272476e+03 
2.121100e-01 1.261961e+03 
2.132700e-01 1.251852e+03 
2.145200e-01 1.241110e+03 
2.157200e-01 1.230927e+03 
2.168800e-01 1.221209e+03 
2.180700e-01 1.211373e+03 
2.193400e-01 1.201009e+03 
2.206000e-01 1.190850e+03 
2.217500e-01 1.181703e+03 
2.229500e-01 1.172283e+03 
2.241400e-01 1.163092e+03 
2.253500e-01 1.153872e+03 
2.264900e-01 1.145296e+03 
2.277100e-01 1.136283e+03 
2.289900e-01 1.127003e+03 
2.301500e-01 1.118705e+03 
2.313600e-01 1.110160e+03 
2.325600e-01 1.101949e+03 
2.337700e-01 1.093775e+03 
2.350000e-01 1.085573e+03 
2.362000e-01 1.077760e+03 
2.374100e-01 1.070085e+03 
2.386500e-01 1.062320e+03 
2.399100e-01 1.054530e+03 
2.410400e-01 1.047777e+03 
2.422500e-01 1.040651e+03 
2.435000e-01 1.033380e+03 
2.447300e-01 1.026343e+03 
2.458700e-01 1.020005e+03 
2.470600e-01 1.013466e+03 
2.483300e-01 1.006573e+03 
2.495600e-01 1.000006e+03 
2.507600e-01 9.937116e+02 
2.519600e-01 9.874911e+02 
2.532200e-01 9.810374e+02 
2.543700e-01 9.752147e+02 
2.555500e-01 9.693064e+02 
2.568000e-01 9.631202e+02 
2.580100e-01 9.572019e+02 
2.592400e-01 9.512134e+02 
2.604100e-01 9.455630e+02 
2.616100e-01 9.398322e+02 
2.628400e-01 9.340248e+02 
2.640600e-01 9.282579e+02 
2.652200e-01 9.228065e+02 
2.664300e-01 9.171822e+02 
2.676500e-01 9.115748e+02 
2.688400e-01 9.061021e+02 
2.700700e-01 9.004682e+02 
2.712400e-01 8.951675e+02 
2.724800e-01 8.896108e+02 
2.736700e-01 8.842880e+02 
2.748800e-01 8.788842e+02 
2.761000e-01 8.734948e+02 
2.773200e-01 8.681639e+02 
2.785400e-01 8.628664e+02 
2.797000e-01 8.578316e+02 
2.808900e-01 8.527200e+02 
2.821400e-01 8.474080e+02 
2.833900e-01 8.421515e+02 
2.845500e-01 8.372707e+02 
2.857800e-01 8.321490e+02 
2.870300e-01 8.269996e+02 
2.882100e-01 8.221893e+02 
2.893900e-01 8.174063e+02 
2.906300e-01 8.124206e+02 
2.918900e-01 8.074081e+02 
2.930500e-01 8.028407e+02 
2.942500e-01 7.981575e+02 
2.954200e-01 7.936204e+02 
2.966500e-01 7.888984e+02 
2.978900e-01 7.841869e+02 
2.990400e-01 7.798607e+02 
3.002700e-01 7.752730e+02 
3.015100e-01 7.706921e+02 
3.026800e-01 7.664125e+02 
3.038500e-01 7.621737e+02 
3.050300e-01 7.579395e+02 
3.062600e-01 7.535683e+02 
3.075000e-01 7.492055e+02 
3.087000e-01 7.450248e+02 
3.099100e-01 7.408499e+02 
3.111200e-01 7.367182e+02 
3.123100e-01 7.326989e+02 
3.135300e-01 7.286174e+02 
3.147300e-01 7.246411e+02 
3.159900e-01 7.205062e+02 
3.171800e-01 7.166450e+02 
3.183700e-01 7.128237e+02 
3.196300e-01 7.088160e+02 
3.208400e-01 7.050041e+02 
3.220300e-01 7.012897e+02 
3.232000e-01 6.976807e+02 
3.244300e-01 6.939252e+02 
3.256700e-01 6.901748e+02 
3.269200e-01 6.864297e+02 
3.280800e-01 6.829858e+02 
3.292500e-01 6.795557e+02 
3.304800e-01 6.759861e+02 
3.317100e-01 6.724492e+02 
3.328900e-01 6.690865e+02 
3.340700e-01 6.657531e+02 
3.353600e-01 6.621556e+02 
3.365300e-01 6.589272e+02 
3.377100e-01 6.556993e+02 
3.389200e-01 6.524181e+02 
3.401600e-01 6.490854e+02 
3.413700e-01 6.458743e+02 
3.425300e-01 6.428307e+02 
3.437700e-01 6.396051e+02 
3.449800e-01 6.364851e+02 
3.461800e-01 6.334176e+02 
3.473600e-01 6.304319e+02 
3.485800e-01 6.273844e+02 
3.498100e-01 6.243383e+02 
3.510200e-01 6.213675e+02 
3.522000e-01 6.184946e+02 
3.533900e-01 6.156212e+02 
3.546400e-01 6.126447e+02 
3.558400e-01 6.098124e+02 
3.570600e-01 6.069570e+02 
3.582700e-01 6.041486e+02 
3.595000e-01 6.013176e+02 
3.607100e-01 5.985643e+02 
3.618900e-01 5.959077e+02 
3.631200e-01 5.931611e+02 
3.643200e-01 5.905035e+02 
3.655500e-01 5.878017e+02 
3.667300e-01 5.852308e+02 
3.679500e-01 5.826085e+02 
3.691900e-01 5.799650e+02 
3.703600e-01 5.774907e+02 
3.715700e-01 5.749520e+02 
3.727700e-01 5.724543e+02 
3.739900e-01 5.699404e+02 
3.752000e-01 5.674765e+02 
3.763900e-01 5.650723e+02 
3.775800e-01 5.626867e+02 
3.788200e-01 5.602204e+02 
3.800300e-01 5.578329e+02 
3.812100e-01 5.555271e+02 
3.824200e-01 5.531839e+02 
3.836100e-01 5.508972e+02 
3.848600e-01 5.485139e+02 
3.860400e-01 5.462814e+02 
3.872400e-01 5.440283e+02 
3.884600e-01 5.417627e+02 
3.896500e-01 5.395726e+02 
3.908700e-01 5.373442e+02 
3.920600e-01 5.351870e+02 
3.933100e-01 5.329383e+02 
3.945300e-01 5.307605e+02 
3.957200e-01 5.286582e+02 
3.969300e-01 5.265381e+02 
3.981700e-01 5.243819e+02 
3.993500e-01 5.223453e+02 
4.094840e-01 5.054437e+02 
4.272360e-01 4.783240e+02 
4.454600e-01 4.532276e+02 
4.630560e-01 4.312568e+02 
4.804610e-01 4.114222e+02 
4.980690e-01 3.930316e+02 
5.159230e-01 3.759104e+02 
5.317440e-01 3.618802e+02 
5.489640e-01 3.477180e+02 
5.671990e-01 3.338681e+02 
5.838690e-01 3.221251e+02 
6.018840e-01 3.103349e+02 
6.202330e-01 2.992002e+02 
6.379250e-01 2.892091e+02 
6.545410e-01 2.804578e+02 
6.714560e-01 2.720887e+02 
6.892080e-01 2.638670e+02 
7.066010e-01 2.563068e+02 
7.240540e-01 2.491690e+02 
7.420450e-01 2.422488e+02 
7.593780e-01 2.359578e+02 
7.764720e-01 2.300807e+02 
7.942840e-01 2.242807e+02 
8.116170e-01 2.189232e+02 
8.288310e-01 2.138625e+02 
8.462240e-01 2.089858e+02 
8.631980e-01 2.044377e+02 
8.810700e-01 1.998615e+02 
8.989410e-01 1.954869e+02 
9.166330e-01 1.913354e+02 
9.345640e-01 1.872992e+02 
9.515980e-01 1.836105e+02 
9.688720e-01 1.800066e+02 
9.865640e-01 1.764465e+02 
1.031870e+00 1.678941e+02 
1.063490e+00 1.623395e+02 
1.097920e+00 1.566561e+02 
1.134370e+00 1.509817e+02 
1.167730e+00 1.460851e+02 
1.203830e+00 1.410601e+02 
1.240470e+00 1.362439e+02 
1.275790e+00 1.318267e+02 
1.309140e+00 1.278706e+02 
1.342970e+00 1.240198e+02 
1.378420e+00 1.201836e+02 
1.413200e+00 1.165849e+02 
1.448110e+00 1.131270e+02 
1.484090e+00 1.097282e+02 
1.518820e+00 1.065822e+02 
1.552880e+00 1.036232e+02 
1.588630e+00 1.006422e+02 
1.623230e+00 9.787865e+01 
1.657720e+00 9.523164e+01 
1.692450e+00 9.267677e+01 
1.726400e+00 9.026128e+01 
1.762200e+00 8.780998e+01 
1.797880e+00 8.546661e+01 
1.833270e+00 8.322531e+01 
1.869070e+00 8.104522e+01 
1.903200e+00 7.904265e+01 
1.937740e+00 7.708671e+01 
1.973190e+00 7.514743e+01 
2.007440e+00 7.334107e+01 
2.042160e+00 7.157435e+01 
2.077900e+00 6.981297e+01 
2.112390e+00 6.817628e+01 
2.146220e+00 6.661544e+01 
2.181600e+00 6.503948e+01 
2.216930e+00 6.351891e+01 
2.250760e+00 6.210704e+01 
2.286500e+00 6.066219e+01 
2.321770e+00 5.928527e+01 
2.355950e+00 5.799462e+01 
2.391280e+00 5.669636e+01 
2.426240e+00 5.545149e+01 
2.460670e+00 5.426320e+01 
2.495640e+00 5.309317e+01 
2.531080e+00 5.194241e+01 
2.566220e+00 5.083391e+01 
2.600830e+00 4.977517e+01 
2.635080e+00 4.875940e+01 
2.670340e+00 4.773939e+01 
2.705970e+00 4.674029e+01 
2.740040e+00 4.581301e+01 
2.774520e+00 4.489845e+01 
2.809730e+00 4.399070e+01 
2.844390e+00 4.312266e+01 
2.879960e+00 4.225574e+01 
2.914860e+00 4.142779e+01 
2.949410e+00 4.063074e+01 
2.984440e+00 3.984329e+01 
3.019760e+00 3.907153e+01 
3.054730e+00 3.832885e+01 
3.089030e+00 3.761623e+01 
3.124060e+00 3.690831e+01 
3.159560e+00 3.621022e+01 
3.194710e+00 3.553535e+01 
3.229010e+00 3.489397e+01 
3.263320e+00 3.426850e+01 
3.297930e+00 3.365360e+01 
3.332830e+00 3.304825e+01 
3.368040e+00 3.245258e+01 
3.403300e+00 3.187105e+01 
3.438450e+00 3.130508e+01 
3.473060e+00 3.076196e+01 
3.508440e+00 3.022020e+01 
3.543110e+00 2.970252e+01 
3.577470e+00 2.919992e+01 
3.613040e+00 2.869253e+01 
3.648120e+00 2.820411e+01 
3.682910e+00 2.773126e+01 
3.718050e+00 2.726450e+01 
3.753320e+00 2.680705e+01 
3.787980e+00 2.636771e+01 
3.822290e+00 2.594293e+01 
3.857020e+00 2.552279e+01 
3.891920e+00 2.510980e+01 
3.926650e+00 2.470709e+01 
3.961970e+00 2.430710e+01 
3.997360e+00 2.391567e+01 
4.031670e+00 2.354469e+01 
4.066330e+00 2.317759e+01 
4.101420e+00 2.281430e+01 
4.136200e+00 2.246212e+01 
4.170810e+00 2.211939e+01 
4.206250e+00 2.177546e+01 
4.241580e+00 2.144005e+01 
4.276300e+00 2.111746e+01 
4.310970e+00 2.080214e+01 
4.346120e+00 2.048926e+01 
4.380600e+00 2.018877e+01 
4.414730e+00 1.989748e+01 
4.450350e+00 1.959958e+01 
4.485320e+00 1.931326e+01 
4.519810e+00 1.903659e+01 
4.555430e+00 1.875669e+01 
4.590870e+00 1.848400e+01 
4.625480e+00 1.822313e+01 
4.659910e+00 1.796876e+01 
4.695230e+00 1.771296e+01 
4.729960e+00 1.746642e+01 
4.764450e+00 1.722639e+01 
4.799530e+00 1.698704e+01 
4.834910e+00 1.675038e+01 
4.869700e+00 1.652229e+01 
4.904370e+00 1.629934e+01 
4.939450e+00 1.607809e+01 
4.973940e+00 1.586481e+01 
5.008430e+00 1.565548e+01 
5.043810e+00 1.544485e+01 
5.078840e+00 1.524024e+01 
5.113500e+00 1.504151e+01 
5.148890e+00 1.484258e+01 
5.184210e+00 1.464771e+01 
5.219060e+00 1.445899e+01 
5.253660e+00 1.427513e+01 
5.288570e+00 1.409292e+01 
5.323420e+00 1.391438e+01 
5.358440e+00 1.373828e+01 
5.393590e+00 1.356465e+01 
5.428310e+00 1.339633e+01 
5.462800e+00 1.323210e+01 
5.497640e+00 1.306905e+01 
5.532670e+00 1.290812e+01 
5.567280e+00 1.275189e+01 
5.602000e+00 1.259779e+01 
5.637270e+00 1.244414e+01 
5.672410e+00 1.229370e+01 
5.707020e+00 1.214800e+01 
5.742040e+00 1.200324e+01 
5.777430e+00 1.185942e+01 
5.812210e+00 1.172041e+01 
5.846820e+00 1.158452e+01 
5.881610e+00 1.145017e+01 
5.916510e+00 1.131755e+01 
5.951600e+00 1.118659e+01 
5.986560e+00 1.105830e+01 
6.021830e+00 1.093093e+01 
6.056490e+00 1.080791e+01 
6.091160e+00 1.068691e+01 
6.125830e+00 1.056778e+01 
6.161090e+00 1.044858e+01 
6.195760e+00 1.033339e+01 
6.230420e+00 1.021998e+01 
6.265690e+00 1.010635e+01 
6.300950e+00 9.994784e+00 
6.335620e+00 9.886739e+00 
6.370880e+00 9.778504e+00 
6.405550e+00 9.673872e+00 
6.440220e+00 9.570862e+00 
6.475480e+00 9.467646e+00 
6.510150e+00 9.367727e+00 
6.544810e+00 9.269460e+00 
6.580080e+00 9.170919e+00 
6.614750e+00 9.075455e+00 
6.649410e+00 8.981660e+00 
6.684080e+00 8.889225e+00 
6.719340e+00 8.796557e+00 
6.754010e+00 8.706799e+00 
6.788680e+00 8.618456e+00 
6.823940e+00 8.529871e+00 
6.859800e+00 8.441059e+00 
6.894470e+00 8.356588e+00 
6.929140e+00 8.273345e+00 
6.963800e+00 8.191263e+00 
6.999070e+00 8.108894e+00 
7.033730e+00 8.029260e+00 
7.068400e+00 7.950675e+00 
7.103660e+00 7.871832e+00 
7.138330e+00 7.795437e+00 
7.173600e+00 7.718937e+00 
7.208260e+00 7.644762e+00 
7.243530e+00 7.570282e+00 
7.277600e+00 7.499404e+00 
7.312860e+00 7.427121e+00 
7.348120e+00 7.355791e+00 
7.382790e+00 7.286568e+00 
7.417460e+00 7.218366e+00 
7.452720e+00 7.149967e+00 
7.487390e+00 7.083576e+00 
7.522650e+00 7.016919e+00 
7.557320e+00 6.952353e+00 
7.591990e+00 6.888649e+00 
7.627250e+00 6.824679e+00 
7.662510e+00 6.761520e+00 
7.697180e+00 6.700343e+00 
7.731850e+00 6.639978e+00 
7.766510e+00 6.580373e+00 
7.801180e+00 6.521480e+00 
7.836440e+00 6.462450e+00 
7.871110e+00 6.405197e+00 
7.906380e+00 6.347663e+00 
7.941040e+00 6.291811e+00 
7.976310e+00 6.235730e+00 
8.011570e+00 6.180426e+00 
8.046240e+00 6.126698e+00 
8.080900e+00 6.073623e+00 
8.115570e+00 6.021195e+00 
8.150830e+00 5.968650e+00 
8.185500e+00 5.917594e+00 
8.220770e+00 5.866263e+00 
8.255430e+00 5.816411e+00 
8.290100e+00 5.767253e+00 
8.324770e+00 5.718675e+00 
8.359430e+00 5.670669e+00 
8.394700e+00 5.622379e+00 
8.429960e+00 5.574744e+00 
8.464630e+00 5.528525e+00 
8.499890e+00 5.482054e+00 
8.534560e+00 5.436879e+00 
8.569200e+00 5.392247e+00 
