# Parameters:
# omega_b = 0.023264, omega_m = 0.148937, n_s = 0.870472, h = 68.700787, w = -1.000000, sigma_8 = 0.796063
# z = 0.900000
#
# k[1/Mpc] # P(k):
8.694000e-04 8.234141e+03 
2.077466e-03 1.627717e+04 
3.285532e-03 2.219010e+04 
4.493598e-03 2.657150e+04 
5.701664e-03 2.971166e+04 
6.909730e-03 3.185428e+04 
8.117797e-03 3.324239e+04 
9.325863e-03 3.399924e+04 
1.053393e-02 3.423943e+04 
1.174199e-02 3.406387e+04 
1.295006e-02 3.353765e+04 
1.415813e-02 3.274571e+04 
1.536619e-02 3.175732e+04 
1.657426e-02 3.061605e+04 
1.778233e-02 2.933870e+04 
1.899039e-02 2.797842e+04 
2.019846e-02 2.661711e+04 
2.140652e-02 2.530967e+04 
2.261459e-02 2.405511e+04 
2.382266e-02 2.286276e+04 
2.503072e-02 2.174471e+04 
2.623879e-02 2.070577e+04 
2.744685e-02 1.974704e+04 
2.865492e-02 1.887112e+04 
2.986299e-02 1.807503e+04 
3.100100e-02 1.739605e+04 
3.220400e-02 1.674826e+04 
3.288100e-02 1.641461e+04 
3.424300e-02 1.580358e+04 
3.555100e-02 1.528262e+04 
3.686000e-02 1.481863e+04 
3.795000e-02 1.446847e+04 
3.929100e-02 1.407749e+04 
4.039800e-02 1.377931e+04 
4.164000e-02 1.346425e+04 
4.294400e-02 1.314690e+04 
4.415000e-02 1.286208e+04 
4.542900e-02 1.255852e+04 
4.660900e-02 1.227891e+04 
4.782300e-02 1.197882e+04 
4.892900e-02 1.170093e+04 
5.031200e-02 1.134228e+04 
5.155900e-02 1.100685e+04 
5.238100e-02 1.078129e+04 
5.378200e-02 1.039109e+04 
5.513400e-02 1.000848e+04 
5.627600e-02 9.684054e+03 
5.735300e-02 9.380548e+03 
5.870100e-02 9.007267e+03 
5.988700e-02 8.688770e+03 
6.113500e-02 8.365685e+03 
6.225900e-02 8.087398e+03 
6.340100e-02 7.818984e+03 
6.480200e-02 7.510192e+03 
6.601100e-02 7.263708e+03 
6.725500e-02 7.029569e+03 
6.829100e-02 6.850997e+03 
6.958600e-02 6.645110e+03 
7.071100e-02 6.483117e+03 
7.192300e-02 6.324163e+03 
7.307400e-02 6.187017e+03 
7.412300e-02 6.072594e+03 
7.550400e-02 5.936730e+03 
7.663100e-02 5.835220e+03 
7.791200e-02 5.730570e+03 
7.912700e-02 5.639059e+03 
8.027600e-02 5.557322e+03 
8.138400e-02 5.481697e+03 
8.272200e-02 5.393223e+03 
8.406100e-02 5.306215e+03 
8.534100e-02 5.222327e+03 
8.653800e-02 5.141932e+03 
8.759800e-02 5.069484e+03 
8.900300e-02 4.970708e+03 
9.009000e-02 4.891334e+03 
9.113300e-02 4.812129e+03 
9.239600e-02 4.714593e+03 
9.358000e-02 4.620554e+03 
9.496100e-02 4.507303e+03 
9.608400e-02 4.414595e+03 
9.727500e-02 4.316505e+03 
9.852600e-02 4.211673e+03 
9.973800e-02 4.112022e+03 
1.009000e-01 4.018350e+03 
1.020900e-01 3.924303e+03 
1.034000e-01 3.824490e+03 
1.046000e-01 3.736459e+03 
1.057200e-01 3.658643e+03 
1.069100e-01 3.579313e+03 
1.082500e-01 3.495918e+03 
1.093900e-01 3.429607e+03 
1.105400e-01 3.365978e+03 
1.116900e-01 3.307996e+03 
1.129600e-01 3.247124e+03 
1.142000e-01 3.193046e+03 
1.153300e-01 3.146544e+03 
1.166400e-01 3.096370e+03 
1.177800e-01 3.055723e+03 
1.190000e-01 3.014170e+03 
1.201200e-01 2.978365e+03 
1.213400e-01 2.940540e+03 
1.227100e-01 2.899994e+03 
1.238900e-01 2.865895e+03 
1.250700e-01 2.832305e+03 
1.263200e-01 2.797178e+03 
1.275500e-01 2.762587e+03 
1.287500e-01 2.728916e+03 
1.299900e-01 2.693810e+03 
1.311300e-01 2.661350e+03 
1.323500e-01 2.626015e+03 
1.335900e-01 2.589905e+03 
1.347100e-01 2.556661e+03 
1.359800e-01 2.518971e+03 
1.372100e-01 2.481653e+03 
1.384300e-01 2.444900e+03 
1.395700e-01 2.409933e+03 
1.407700e-01 2.373789e+03 
1.420300e-01 2.335334e+03 
1.432800e-01 2.298068e+03 
1.444500e-01 2.263260e+03 
1.456300e-01 2.228911e+03 
1.468900e-01 2.193247e+03 
1.480500e-01 2.161189e+03 
1.491700e-01 2.131235e+03 
1.503800e-01 2.100009e+03 
1.516400e-01 2.068452e+03 
1.528200e-01 2.040659e+03 
1.540200e-01 2.012962e+03 
1.551900e-01 1.987768e+03 
1.564300e-01 1.961904e+03 
1.576600e-01 1.937424e+03 
1.588700e-01 1.914607e+03 
1.600900e-01 1.892099e+03 
1.612700e-01 1.871795e+03 
1.625400e-01 1.850352e+03 
1.637600e-01 1.830502e+03 
1.649500e-01 1.811699e+03 
1.662200e-01 1.792007e+03 
1.674000e-01 1.774083e+03 
1.685000e-01 1.757654e+03 
1.697500e-01 1.739103e+03 
1.710300e-01 1.720253e+03 
1.722200e-01 1.703041e+03 
1.734400e-01 1.685017e+03 
1.746400e-01 1.667568e+03 
1.758700e-01 1.649753e+03 
1.770900e-01 1.631907e+03 
1.782700e-01 1.614939e+03 
1.794600e-01 1.597748e+03 
1.807000e-01 1.579894e+03 
1.819100e-01 1.562772e+03 
1.830100e-01 1.547146e+03 
1.842200e-01 1.530180e+03 
1.855000e-01 1.512535e+03 
1.867000e-01 1.496141e+03 
1.879200e-01 1.479750e+03 
1.890900e-01 1.464301e+03 
1.902800e-01 1.448919e+03 
1.915200e-01 1.433151e+03 
1.926900e-01 1.418573e+03 
1.939000e-01 1.403927e+03 
1.951700e-01 1.388804e+03 
1.963100e-01 1.375522e+03 
1.975100e-01 1.361962e+03 
1.987800e-01 1.347839e+03 
2.000100e-01 1.334470e+03 
2.012500e-01 1.321419e+03 
2.023400e-01 1.310113e+03 
2.036100e-01 1.297183e+03 
2.048900e-01 1.284546e+03 
2.060400e-01 1.273361e+03 
2.072200e-01 1.262059e+03 
2.084200e-01 1.250878e+03 
2.096900e-01 1.239220e+03 
2.109200e-01 1.228097e+03 
2.121100e-01 1.217543e+03 
2.132700e-01 1.207400e+03 
2.145200e-01 1.196624e+03 
2.157200e-01 1.186437e+03 
2.168800e-01 1.176729e+03 
2.180700e-01 1.166905e+03 
2.193400e-01 1.156555e+03 
2.206000e-01 1.146412e+03 
2.217500e-01 1.137281e+03 
2.229500e-01 1.127879e+03 
2.241400e-01 1.118649e+03 
2.253500e-01 1.109388e+03 
2.264900e-01 1.100777e+03 
2.277100e-01 1.091669e+03 
2.289900e-01 1.082229e+03 
2.301500e-01 1.073789e+03 
2.313600e-01 1.065098e+03 
2.325600e-01 1.056587e+03 
2.337700e-01 1.048117e+03 
2.350000e-01 1.039619e+03 
2.362000e-01 1.031446e+03 
2.374100e-01 1.023322e+03 
2.386500e-01 1.015104e+03 
2.399100e-01 1.006863e+03 
2.410400e-01 9.995915e+02 
2.422500e-01 9.919029e+02 
2.435000e-01 9.840609e+02 
2.447300e-01 9.764521e+02 
2.458700e-01 9.695234e+02 
2.470600e-01 9.623764e+02 
2.483300e-01 9.548436e+02 
2.495600e-01 9.476572e+02 
2.507600e-01 9.407552e+02 
2.519600e-01 9.339355e+02 
2.532200e-01 9.268619e+02 
2.543700e-01 9.205077e+02 
2.555500e-01 9.140793e+02 
2.568000e-01 9.073501e+02 
2.580100e-01 9.009140e+02 
2.592400e-01 8.944726e+02 
2.604100e-01 8.884266e+02 
2.616100e-01 8.822958e+02 
2.628400e-01 8.760843e+02 
2.640600e-01 8.700100e+02 
2.652200e-01 8.643052e+02 
2.664300e-01 8.584206e+02 
2.676500e-01 8.525547e+02 
2.688400e-01 8.469081e+02 
2.700700e-01 8.411438e+02 
2.712400e-01 8.357213e+02 
2.724800e-01 8.300378e+02 
2.736700e-01 8.246474e+02 
2.748800e-01 8.192299e+02 
2.761000e-01 8.138276e+02 
2.773200e-01 8.084846e+02 
2.785400e-01 8.032010e+02 
2.797000e-01 7.982328e+02 
2.808900e-01 7.931893e+02 
2.821400e-01 7.879486e+02 
2.833900e-01 7.827655e+02 
2.845500e-01 7.780020e+02 
2.857800e-01 7.730038e+02 
2.870300e-01 7.679791e+02 
2.882100e-01 7.632857e+02 
2.893900e-01 7.586391e+02 
2.906300e-01 7.538064e+02 
2.918900e-01 7.489484e+02 
2.930500e-01 7.445219e+02 
2.942500e-01 7.399874e+02 
2.954200e-01 7.356063e+02 
2.966500e-01 7.310470e+02 
2.978900e-01 7.264983e+02 
2.990400e-01 7.223218e+02 
3.002700e-01 7.178970e+02 
3.015100e-01 7.134810e+02 
3.026800e-01 7.093557e+02 
3.038500e-01 7.052701e+02 
3.050300e-01 7.011891e+02 
3.062600e-01 6.969762e+02 
3.075000e-01 6.927715e+02 
3.087000e-01 6.887426e+02 
3.099100e-01 6.847196e+02 
3.111200e-01 6.807377e+02 
3.123100e-01 6.768625e+02 
3.135300e-01 6.729278e+02 
3.147300e-01 6.690947e+02 
3.159900e-01 6.651090e+02 
3.171800e-01 6.613854e+02 
3.183700e-01 6.576993e+02 
3.196300e-01 6.538337e+02 
3.208400e-01 6.501572e+02 
3.220300e-01 6.465750e+02 
3.232000e-01 6.430926e+02 
3.244300e-01 6.394683e+02 
3.256700e-01 6.358491e+02 
3.269200e-01 6.322354e+02 
3.280800e-01 6.289125e+02 
3.292500e-01 6.256013e+02 
3.304800e-01 6.221550e+02 
3.317100e-01 6.187406e+02 
3.328900e-01 6.154945e+02 
3.340700e-01 6.122770e+02 
3.353600e-01 6.088045e+02 
3.365300e-01 6.056884e+02 
3.377100e-01 6.025728e+02 
3.389200e-01 5.994062e+02 
3.401600e-01 5.961900e+02 
3.413700e-01 5.930919e+02 
3.425300e-01 5.901556e+02 
3.437700e-01 5.870442e+02 
3.449800e-01 5.840348e+02 
3.461800e-01 5.810761e+02 
3.473600e-01 5.781973e+02 
3.485800e-01 5.752603e+02 
3.498100e-01 5.723251e+02 
3.510200e-01 5.694625e+02 
3.522000e-01 5.666944e+02 
3.533900e-01 5.639261e+02 
3.546400e-01 5.610618e+02 
3.558400e-01 5.583367e+02 
3.570600e-01 5.555894e+02 
3.582700e-01 5.528875e+02 
3.595000e-01 5.501641e+02 
3.607100e-01 5.475178e+02 
3.618900e-01 5.449663e+02 
3.631200e-01 5.423286e+02 
3.643200e-01 5.397764e+02 
3.655500e-01 5.371820e+02 
3.667300e-01 5.347133e+02 
3.679500e-01 5.322004e+02 
3.691900e-01 5.296673e+02 
3.703600e-01 5.272964e+02 
3.715700e-01 5.248639e+02 
3.727700e-01 5.224708e+02 
3.739900e-01 5.200639e+02 
3.752000e-01 5.177079e+02 
3.763900e-01 5.154092e+02 
3.775800e-01 5.131283e+02 
3.788200e-01 5.107704e+02 
3.800300e-01 5.084879e+02 
3.812100e-01 5.062866e+02 
3.824200e-01 5.040518e+02 
3.836100e-01 5.018709e+02 
3.848600e-01 4.995980e+02 
3.860400e-01 4.974690e+02 
3.872400e-01 4.953204e+02 
3.884600e-01 4.931633e+02 
3.896500e-01 4.910792e+02 
3.908700e-01 4.889589e+02 
3.920600e-01 4.869063e+02 
3.933100e-01 4.847668e+02 
3.945300e-01 4.826947e+02 
3.957200e-01 4.806983e+02 
3.969300e-01 4.786862e+02 
3.981700e-01 4.766398e+02 
3.993500e-01 4.747070e+02 
4.094840e-01 4.586867e+02 
4.272360e-01 4.330719e+02 
4.454600e-01 4.094342e+02 
4.630560e-01 3.887787e+02 
4.804610e-01 3.701509e+02 
4.980690e-01 3.528941e+02 
5.159230e-01 3.368433e+02 
5.317440e-01 3.237056e+02 
5.489640e-01 3.104646e+02 
5.671990e-01 2.975416e+02 
5.838690e-01 2.866079e+02 
6.018840e-01 2.756589e+02 
6.202330e-01 2.653520e+02 
6.379250e-01 2.561229e+02 
6.545410e-01 2.480670e+02 
6.714560e-01 2.403809e+02 
6.892080e-01 2.328471e+02 
7.066010e-01 2.259391e+02 
7.240540e-01 2.194276e+02 
7.420450e-01 2.131304e+02 
7.593780e-01 2.074155e+02 
7.764720e-01 2.020836e+02 
7.942840e-01 1.968281e+02 
8.116170e-01 1.919808e+02 
8.288310e-01 1.874064e+02 
8.462240e-01 1.830014e+02 
8.631980e-01 1.788967e+02 
8.810700e-01 1.747679e+02 
8.989410e-01 1.708227e+02 
9.166330e-01 1.670799e+02 
9.345640e-01 1.634420e+02 
9.515980e-01 1.601186e+02 
9.688720e-01 1.568721e+02 
9.865640e-01 1.536653e+02 
1.031870e+00 1.459630e+02 
1.063490e+00 1.409619e+02 
1.097920e+00 1.358442e+02 
1.134370e+00 1.307378e+02 
1.167730e+00 1.263329e+02 
1.203830e+00 1.218140e+02 
1.240470e+00 1.174860e+02 
1.275790e+00 1.135194e+02 
1.309140e+00 1.099683e+02 
1.342970e+00 1.065157e+02 
1.378420e+00 1.030791e+02 
1.413200e+00 9.985808e+01 
1.448110e+00 9.676661e+01 
1.484090e+00 9.373138e+01 
1.518820e+00 9.092526e+01 
1.552880e+00 8.828851e+01 
1.588630e+00 8.563536e+01 
1.623230e+00 8.317912e+01 
1.657720e+00 8.082899e+01 
1.692450e+00 7.856289e+01 
1.726400e+00 7.642407e+01 
1.762200e+00 7.425674e+01 
1.797880e+00 7.218649e+01 
1.833270e+00 7.020940e+01 
1.869070e+00 6.828922e+01 
1.903200e+00 6.652706e+01 
1.937740e+00 6.480795e+01 
1.973190e+00 6.310634e+01 
2.007440e+00 6.152301e+01 
2.042160e+00 5.997612e+01 
2.077900e+00 5.843630e+01 
2.112390e+00 5.700652e+01 
2.146220e+00 5.564550e+01 
2.181600e+00 5.427264e+01 
2.216930e+00 5.294955e+01 
2.250760e+00 5.172266e+01 
2.286500e+00 5.046866e+01 
2.321770e+00 4.927482e+01 
2.355950e+00 4.815674e+01 
2.391280e+00 4.703399e+01 
2.426240e+00 4.595840e+01 
2.460670e+00 4.493273e+01 
2.495640e+00 4.392396e+01 
2.531080e+00 4.293322e+01 
2.566220e+00 4.197977e+01 
2.600830e+00 4.106992e+01 
2.635080e+00 4.019776e+01 
2.670340e+00 3.932315e+01 
2.705970e+00 3.846735e+01 
2.740040e+00 3.767383e+01 
2.774520e+00 3.689226e+01 
2.809730e+00 3.611713e+01 
2.844390e+00 3.537645e+01 
2.879960e+00 3.463746e+01 
2.914860e+00 3.393261e+01 
2.949410e+00 3.325460e+01 
2.984440e+00 3.258532e+01 
3.019760e+00 3.193007e+01 
3.054730e+00 3.130002e+01 
3.089030e+00 3.069615e+01 
3.124060e+00 3.009675e+01 
3.159560e+00 2.950628e+01 
3.194710e+00 2.893597e+01 
3.229010e+00 2.839426e+01 
3.263320e+00 2.786648e+01 
3.297930e+00 2.734800e+01 
3.332830e+00 2.683819e+01 
3.368040e+00 2.633690e+01 
3.403300e+00 2.584783e+01 
3.438450e+00 2.537226e+01 
3.473060e+00 2.491611e+01 
3.508440e+00 2.446168e+01 
3.543110e+00 2.402766e+01 
3.577470e+00 2.360673e+01 
3.613040e+00 2.318201e+01 
3.648120e+00 2.277356e+01 
3.682910e+00 2.237837e+01 
3.718050e+00 2.198860e+01 
3.753320e+00 2.160684e+01 
3.787980e+00 2.124045e+01 
3.822290e+00 2.088642e+01 
3.857020e+00 2.053654e+01 
3.891920e+00 2.019281e+01 
3.926650e+00 1.985790e+01 
3.961970e+00 1.952543e+01 
3.997360e+00 1.920033e+01 
4.031670e+00 1.889235e+01 
4.066330e+00 1.858790e+01 
4.101420e+00 1.828670e+01 
4.136200e+00 1.799499e+01 
4.170810e+00 1.771119e+01 
4.206250e+00 1.742669e+01 
4.241580e+00 1.714936e+01 
4.276300e+00 1.688281e+01 
4.310970e+00 1.662240e+01 
4.346120e+00 1.636414e+01 
4.380600e+00 1.611630e+01 
4.414730e+00 1.587611e+01 
4.450350e+00 1.563070e+01 
4.485320e+00 1.539490e+01 
4.519810e+00 1.516722e+01 
4.555430e+00 1.493700e+01 
4.590870e+00 1.471280e+01 
4.625480e+00 1.449847e+01 
4.659910e+00 1.428955e+01 
4.695230e+00 1.407963e+01 
4.729960e+00 1.387739e+01 
4.764450e+00 1.368059e+01 
4.799530e+00 1.348447e+01 
4.834910e+00 1.329060e+01 
4.869700e+00 1.310392e+01 
4.904370e+00 1.292150e+01 
4.939450e+00 1.274055e+01 
4.973940e+00 1.256624e+01 
5.008430e+00 1.239521e+01 
5.043810e+00 1.222322e+01 
5.078840e+00 1.205623e+01 
5.113500e+00 1.189409e+01 
5.148890e+00 1.173192e+01 
5.184210e+00 1.157310e+01 
5.219060e+00 1.141936e+01 
5.253660e+00 1.126969e+01 
5.288570e+00 1.112139e+01 
5.323420e+00 1.097617e+01 
5.358440e+00 1.083302e+01 
5.393590e+00 1.069190e+01 
5.428310e+00 1.055519e+01 
5.462800e+00 1.042187e+01 
5.497640e+00 1.028953e+01 
5.532670e+00 1.015901e+01 
5.567280e+00 1.003235e+01 
5.602000e+00 9.907442e+00 
5.637270e+00 9.783005e+00 
5.672410e+00 9.661208e+00 
5.707020e+00 9.543268e+00 
5.742040e+00 9.426188e+00 
5.777430e+00 9.309912e+00 
5.812210e+00 9.197542e+00 
5.846820e+00 9.087784e+00 
5.881610e+00 8.979309e+00 
5.916510e+00 8.872261e+00 
5.951600e+00 8.766622e+00 
5.986560e+00 8.663185e+00 
6.021830e+00 8.560512e+00 
6.056490e+00 8.461402e+00 
6.091160e+00 8.363974e+00 
6.125830e+00 8.268069e+00 
6.161090e+00 8.172160e+00 
6.195760e+00 8.079539e+00 
6.230420e+00 7.988370e+00 
6.265690e+00 7.897039e+00 
6.300950e+00 7.807461e+00 
6.335620e+00 7.720727e+00 
6.370880e+00 7.633856e+00 
6.405550e+00 7.549943e+00 
6.440220e+00 7.467367e+00 
6.475480e+00 7.384641e+00 
6.510150e+00 7.304594e+00 
6.544810e+00 7.225935e+00 
6.580080e+00 7.147069e+00 
6.614750e+00 7.070681e+00 
6.649410e+00 6.995698e+00 
6.684080e+00 6.921827e+00 
6.719340e+00 6.847781e+00 
6.754010e+00 6.776095e+00 
6.788680e+00 6.705601e+00 
6.823940e+00 6.634926e+00 
6.859800e+00 6.564082e+00 
6.894470e+00 6.496761e+00 
6.929140e+00 6.430446e+00 
6.963800e+00 6.365067e+00 
6.999070e+00 6.299474e+00 
7.033730e+00 6.236129e+00 
7.068400e+00 6.173628e+00 
7.103660e+00 6.110932e+00 
7.138330e+00 6.050214e+00 
7.173600e+00 5.989469e+00 
7.208260e+00 5.930578e+00 
7.243530e+00 5.871454e+00 
7.277600e+00 5.815230e+00 
7.312860e+00 5.757930e+00 
7.348120e+00 5.701393e+00 
7.382790e+00 5.646534e+00 
7.417460e+00 5.592534e+00 
7.452720e+00 5.538406e+00 
7.487390e+00 5.485875e+00 
7.522650e+00 5.433140e+00 
7.557320e+00 5.382112e+00 
7.591990e+00 5.331790e+00 
7.627250e+00 5.281263e+00 
7.662510e+00 5.231383e+00 
7.697180e+00 5.183117e+00 
7.731850e+00 5.135514e+00 
7.766510e+00 5.088515e+00 
7.801180e+00 5.042084e+00 
7.836440e+00 4.995587e+00 
7.871110e+00 4.950519e+00 
7.906380e+00 4.905235e+00 
7.941040e+00 4.861279e+00 
7.976310e+00 4.817175e+00 
8.011570e+00 4.773718e+00 
8.046240e+00 4.731506e+00 
8.080900e+00 4.689809e+00 
8.115570e+00 4.648637e+00 
8.150830e+00 4.607423e+00 
8.185500e+00 4.567379e+00 
8.220770e+00 4.527124e+00 
8.255430e+00 4.488032e+00 
8.290100e+00 4.449539e+00 
8.324770e+00 4.411509e+00 
8.359430e+00 4.373929e+00 
8.394700e+00 4.336131e+00 
8.429960e+00 4.298876e+00 
8.464630e+00 4.262758e+00 
8.499890e+00 4.226445e+00 
8.534560e+00 4.191148e+00 
8.569200e+00 4.156278e+00 
