# Parameters:
# omega_b = 0.022870, omega_m = 0.137913, n_s = 0.990157, h = 62.322835, w = -1.000000, sigma_8 = 0.829134
# z = 0.900000
#
# k[1/Mpc] # P(k):
8.694000e-04 6.868186e+03 
2.077466e-03 1.497198e+04 
3.285532e-03 2.138908e+04 
4.493598e-03 2.638085e+04 
5.701664e-03 3.011884e+04 
6.909730e-03 3.279381e+04 
8.117797e-03 3.463210e+04 
9.325863e-03 3.574865e+04 
1.053393e-02 3.625944e+04 
1.174199e-02 3.627299e+04 
1.295006e-02 3.585903e+04 
1.415813e-02 3.511430e+04 
1.536619e-02 3.412259e+04 
1.657426e-02 3.294678e+04 
1.778233e-02 3.166865e+04 
1.899039e-02 3.039726e+04 
2.019846e-02 2.912048e+04 
2.140652e-02 2.782774e+04 
2.261459e-02 2.654926e+04 
2.382266e-02 2.532399e+04 
2.503072e-02 2.417265e+04 
2.623879e-02 2.310237e+04 
2.744685e-02 2.211594e+04 
2.865492e-02 2.121598e+04 
2.986299e-02 2.039934e+04 
3.100100e-02 1.970409e+04 
3.220400e-02 1.904131e+04 
3.288100e-02 1.869979e+04 
3.424300e-02 1.807308e+04 
3.555100e-02 1.753584e+04 
3.686000e-02 1.705328e+04 
3.795000e-02 1.668528e+04 
3.929100e-02 1.626776e+04 
4.039800e-02 1.594409e+04 
4.164000e-02 1.559704e+04 
4.294400e-02 1.524059e+04 
4.415000e-02 1.491742e+04 
4.542900e-02 1.456962e+04 
4.660900e-02 1.424831e+04 
4.782300e-02 1.390385e+04 
4.892900e-02 1.358609e+04 
5.031200e-02 1.317861e+04 
5.155900e-02 1.280079e+04 
5.238100e-02 1.254842e+04 
5.378200e-02 1.211460e+04 
5.513400e-02 1.169243e+04 
5.627600e-02 1.133636e+04 
5.735300e-02 1.100427e+04 
5.870100e-02 1.059655e+04 
5.988700e-02 1.024866e+04 
6.113500e-02 9.895315e+03 
6.225900e-02 9.590204e+03 
6.340100e-02 9.294918e+03 
6.480200e-02 8.953801e+03 
6.601100e-02 8.679959e+03 
6.725500e-02 8.418542e+03 
6.829100e-02 8.218181e+03 
6.958600e-02 7.986345e+03 
7.071100e-02 7.803298e+03 
7.192300e-02 7.623300e+03 
7.307400e-02 7.467814e+03 
7.412300e-02 7.338069e+03 
7.550400e-02 7.184148e+03 
7.663100e-02 7.069276e+03 
7.791200e-02 6.951077e+03 
7.912700e-02 6.847747e+03 
8.027600e-02 6.755257e+03 
8.138400e-02 6.669347e+03 
8.272200e-02 6.568128e+03 
8.406100e-02 6.467544e+03 
8.534100e-02 6.369059e+03 
8.653800e-02 6.273283e+03 
8.759800e-02 6.186142e+03 
8.900300e-02 6.066120e+03 
9.009000e-02 5.968825e+03 
9.113300e-02 5.871287e+03 
9.239600e-02 5.750985e+03 
9.358000e-02 5.635010e+03 
9.496100e-02 5.496012e+03 
9.608400e-02 5.382884e+03 
9.727500e-02 5.263756e+03 
9.852600e-02 5.138410e+03 
9.973800e-02 5.020234e+03 
1.009000e-01 4.909931e+03 
1.020900e-01 4.801292e+03 
1.034000e-01 4.686842e+03 
1.046000e-01 4.586791e+03 
1.057200e-01 4.499630e+03 
1.069100e-01 4.411096e+03 
1.082500e-01 4.318953e+03 
1.093900e-01 4.245951e+03 
1.105400e-01 4.176044e+03 
1.116900e-01 4.112335e+03 
1.129600e-01 4.045313e+03 
1.142000e-01 3.985269e+03 
1.153300e-01 3.933217e+03 
1.166400e-01 3.876409e+03 
1.177800e-01 3.829489e+03 
1.190000e-01 3.781083e+03 
1.201200e-01 3.738093e+03 
1.213400e-01 3.692438e+03 
1.227100e-01 3.641761e+03 
1.238900e-01 3.598852e+03 
1.250700e-01 3.555680e+03 
1.263200e-01 3.510334e+03 
1.275500e-01 3.465240e+03 
1.287500e-01 3.421361e+03 
1.299900e-01 3.375637e+03 
1.311300e-01 3.333634e+03 
1.323500e-01 3.288313e+03 
1.335900e-01 3.242485e+03 
1.347100e-01 3.200917e+03 
1.359800e-01 3.154267e+03 
1.372100e-01 3.109012e+03 
1.384300e-01 3.064822e+03 
1.395700e-01 3.023677e+03 
1.407700e-01 2.981234e+03 
1.420300e-01 2.937140e+03 
1.432800e-01 2.894378e+03 
1.444500e-01 2.855165e+03 
1.456300e-01 2.816435e+03 
1.468900e-01 2.776413e+03 
1.480500e-01 2.740472e+03 
1.491700e-01 2.706814e+03 
1.503800e-01 2.671637e+03 
1.516400e-01 2.635967e+03 
1.528200e-01 2.604127e+03 
1.540200e-01 2.572378e+03 
1.551900e-01 2.542919e+03 
1.564300e-01 2.512517e+03 
1.576600e-01 2.483382e+03 
1.588700e-01 2.455787e+03 
1.600900e-01 2.428522e+03 
1.612700e-01 2.403262e+03 
1.625400e-01 2.376582e+03 
1.637600e-01 2.351601e+03 
1.649500e-01 2.327773e+03 
1.662200e-01 2.302796e+03 
1.674000e-01 2.279946e+03 
1.685000e-01 2.259000e+03 
1.697500e-01 2.235423e+03 
1.710300e-01 2.211540e+03 
1.722200e-01 2.189729e+03 
1.734400e-01 2.167222e+03 
1.746400e-01 2.145443e+03 
1.758700e-01 2.123335e+03 
1.770900e-01 2.101442e+03 
1.782700e-01 2.080623e+03 
1.794600e-01 2.059734e+03 
1.807000e-01 2.038173e+03 
1.819100e-01 2.017489e+03 
1.830100e-01 1.998799e+03 
1.842200e-01 1.978532e+03 
1.855000e-01 1.957453e+03 
1.867000e-01 1.937985e+03 
1.879200e-01 1.918513e+03 
1.890900e-01 1.900157e+03 
1.902800e-01 1.881892e+03 
1.915200e-01 1.863163e+03 
1.926900e-01 1.845826e+03 
1.939000e-01 1.828361e+03 
1.951700e-01 1.810322e+03 
1.963100e-01 1.794446e+03 
1.975100e-01 1.778162e+03 
1.987800e-01 1.761195e+03 
2.000100e-01 1.745098e+03 
2.012500e-01 1.729300e+03 
2.023400e-01 1.715612e+03 
2.036100e-01 1.699931e+03 
2.048900e-01 1.684511e+03 
2.060400e-01 1.670861e+03 
2.072200e-01 1.657057e+03 
2.084200e-01 1.643308e+03 
2.096900e-01 1.628970e+03 
2.109200e-01 1.615287e+03 
2.121100e-01 1.602209e+03 
2.132700e-01 1.589634e+03 
2.145200e-01 1.576272e+03 
2.157200e-01 1.563566e+03 
2.168800e-01 1.551421e+03 
2.180700e-01 1.539128e+03 
2.193400e-01 1.526122e+03 
2.206000e-01 1.513270e+03 
2.217500e-01 1.501699e+03 
2.229500e-01 1.489784e+03 
2.241400e-01 1.477902e+03 
2.253500e-01 1.465975e+03 
2.264900e-01 1.454884e+03 
2.277100e-01 1.443035e+03 
2.289900e-01 1.430625e+03 
2.301500e-01 1.419528e+03 
2.313600e-01 1.408099e+03 
2.325600e-01 1.396649e+03 
2.337700e-01 1.385253e+03 
2.350000e-01 1.373821e+03 
2.362000e-01 1.362713e+03 
2.374100e-01 1.351537e+03 
2.386500e-01 1.340234e+03 
2.399100e-01 1.328900e+03 
2.410400e-01 1.318738e+03 
2.422500e-01 1.307976e+03 
2.435000e-01 1.297001e+03 
2.447300e-01 1.286334e+03 
2.458700e-01 1.276539e+03 
2.470600e-01 1.266438e+03 
2.483300e-01 1.255794e+03 
2.495600e-01 1.245641e+03 
2.507600e-01 1.235891e+03 
2.519600e-01 1.226260e+03 
2.532200e-01 1.216272e+03 
2.543700e-01 1.207359e+03 
2.555500e-01 1.198381e+03 
2.568000e-01 1.188984e+03 
2.580100e-01 1.179999e+03 
2.592400e-01 1.171121e+03 
2.604100e-01 1.162839e+03 
2.616100e-01 1.154443e+03 
2.628400e-01 1.145936e+03 
2.640600e-01 1.137759e+03 
2.652200e-01 1.130135e+03 
2.664300e-01 1.122271e+03 
2.676500e-01 1.114433e+03 
2.688400e-01 1.107003e+03 
2.700700e-01 1.099491e+03 
2.712400e-01 1.092425e+03 
2.724800e-01 1.085018e+03 
2.736700e-01 1.078071e+03 
2.748800e-01 1.071169e+03 
2.761000e-01 1.064286e+03 
2.773200e-01 1.057479e+03 
2.785400e-01 1.050784e+03 
2.797000e-01 1.044568e+03 
2.808900e-01 1.038257e+03 
2.821400e-01 1.031698e+03 
2.833900e-01 1.025215e+03 
2.845500e-01 1.019330e+03 
2.857800e-01 1.013155e+03 
2.870300e-01 1.006947e+03 
2.882100e-01 1.001148e+03 
2.893900e-01 9.954382e+02 
2.906300e-01 9.895172e+02 
2.918900e-01 9.835644e+02 
2.930500e-01 9.781398e+02 
2.942500e-01 9.725884e+02 
2.954200e-01 9.672444e+02 
2.966500e-01 9.616824e+02 
2.978900e-01 9.561325e+02 
2.990400e-01 9.510361e+02 
3.002700e-01 9.456462e+02 
3.015100e-01 9.402710e+02 
3.026800e-01 9.352490e+02 
3.038500e-01 9.302747e+02 
3.050300e-01 9.253056e+02 
3.062600e-01 9.201814e+02 
3.075000e-01 9.150666e+02 
3.087000e-01 9.101650e+02 
3.099100e-01 9.052699e+02 
3.111200e-01 9.004246e+02 
3.123100e-01 8.957092e+02 
3.135300e-01 8.909207e+02 
3.147300e-01 8.862553e+02 
3.159900e-01 8.814036e+02 
3.171800e-01 8.768691e+02 
3.183700e-01 8.723790e+02 
3.196300e-01 8.676696e+02 
3.208400e-01 8.631900e+02 
3.220300e-01 8.588248e+02 
3.232000e-01 8.545780e+02 
3.244300e-01 8.501566e+02 
3.256700e-01 8.457409e+02 
3.269200e-01 8.413313e+02 
3.280800e-01 8.372762e+02 
3.292500e-01 8.332320e+02 
3.304800e-01 8.290216e+02 
3.317100e-01 8.248496e+02 
3.328900e-01 8.208829e+02 
3.340700e-01 8.169507e+02 
3.353600e-01 8.127018e+02 
3.365300e-01 8.088868e+02 
3.377100e-01 8.050722e+02 
3.389200e-01 8.011945e+02 
3.401600e-01 7.972559e+02 
3.413700e-01 7.934580e+02 
3.425300e-01 7.898560e+02 
3.437700e-01 7.860386e+02 
3.449800e-01 7.823460e+02 
3.461800e-01 7.787153e+02 
3.473600e-01 7.751806e+02 
3.485800e-01 7.715701e+02 
3.498100e-01 7.679614e+02 
3.510200e-01 7.644417e+02 
3.522000e-01 7.610378e+02 
3.533900e-01 7.576334e+02 
3.546400e-01 7.541045e+02 
3.558400e-01 7.507464e+02 
3.570600e-01 7.473606e+02 
3.582700e-01 7.440306e+02 
3.595000e-01 7.406738e+02 
3.607100e-01 7.374086e+02 
3.618900e-01 7.342576e+02 
3.631200e-01 7.309999e+02 
3.643200e-01 7.278477e+02 
3.655500e-01 7.246430e+02 
3.667300e-01 7.215933e+02 
3.679500e-01 7.184828e+02 
3.691900e-01 7.153471e+02 
3.703600e-01 7.124120e+02 
3.715700e-01 7.094004e+02 
3.727700e-01 7.064374e+02 
3.739900e-01 7.034555e+02 
3.752000e-01 7.005334e+02 
3.763900e-01 6.976821e+02 
3.775800e-01 6.948528e+02 
3.788200e-01 6.919278e+02 
3.800300e-01 6.890961e+02 
3.812100e-01 6.863619e+02 
3.824200e-01 6.835838e+02 
3.836100e-01 6.808726e+02 
3.848600e-01 6.780468e+02 
3.860400e-01 6.753998e+02 
3.872400e-01 6.727282e+02 
3.884600e-01 6.700428e+02 
3.896500e-01 6.674469e+02 
3.908700e-01 6.648057e+02 
3.920600e-01 6.622488e+02 
3.933100e-01 6.595834e+02 
3.945300e-01 6.570019e+02 
3.957200e-01 6.545108e+02 
3.969300e-01 6.519989e+02 
3.981700e-01 6.494441e+02 
3.993500e-01 6.470310e+02 
4.094840e-01 6.270017e+02 
4.272360e-01 5.948650e+02 
4.454600e-01 5.650834e+02 
4.630560e-01 5.389536e+02 
4.804610e-01 5.153058e+02 
4.980690e-01 4.933225e+02 
5.159230e-01 4.728120e+02 
5.317440e-01 4.559756e+02 
5.489640e-01 4.389595e+02 
5.671990e-01 4.223076e+02 
5.838690e-01 4.081838e+02 
6.018840e-01 3.939990e+02 
6.202330e-01 3.806007e+02 
6.379250e-01 3.685809e+02 
6.545410e-01 3.580510e+02 
6.714560e-01 3.479732e+02 
6.892080e-01 3.380725e+02 
7.066010e-01 3.289537e+02 
7.240540e-01 3.203367e+02 
7.420450e-01 3.119634e+02 
7.593780e-01 3.043346e+02 
7.764720e-01 2.971906e+02 
7.942840e-01 2.901221e+02 
8.116170e-01 2.835673e+02 
8.288310e-01 2.773529e+02 
8.462240e-01 2.713424e+02 
8.631980e-01 2.657136e+02 
8.810700e-01 2.600282e+02 
8.989410e-01 2.545701e+02 
9.166330e-01 2.493675e+02 
9.345640e-01 2.442867e+02 
9.515980e-01 2.396214e+02 
9.688720e-01 2.350434e+02 
9.865640e-01 2.304985e+02 
1.031870e+00 2.195107e+02 
1.063490e+00 2.123082e+02 
1.097920e+00 2.048878e+02 
1.134370e+00 1.974327e+02 
1.167730e+00 1.909587e+02 
1.203830e+00 1.842772e+02 
1.240470e+00 1.778460e+02 
1.275790e+00 1.719179e+02 
1.309140e+00 1.665951e+02 
1.342970e+00 1.613938e+02 
1.378420e+00 1.562018e+02 
1.413200e+00 1.513194e+02 
1.448110e+00 1.466200e+02 
1.484090e+00 1.419948e+02 
1.518820e+00 1.377099e+02 
1.552880e+00 1.336755e+02 
1.588630e+00 1.296109e+02 
1.623230e+00 1.258409e+02 
1.657720e+00 1.222300e+02 
1.692450e+00 1.187456e+02 
1.726400e+00 1.154520e+02 
1.762200e+00 1.121108e+02 
1.797880e+00 1.089197e+02 
1.833270e+00 1.058692e+02 
1.869070e+00 1.029045e+02 
1.903200e+00 1.001847e+02 
1.937740e+00 9.753056e+01 
1.973190e+00 9.490158e+01 
2.007440e+00 9.245628e+01 
2.042160e+00 9.006774e+01 
2.077900e+00 8.768953e+01 
2.112390e+00 8.548257e+01 
2.146220e+00 8.338108e+01 
2.181600e+00 8.126225e+01 
2.216930e+00 7.922120e+01 
2.250760e+00 7.732892e+01 
2.286500e+00 7.539533e+01 
2.321770e+00 7.355544e+01 
2.355950e+00 7.183354e+01 
2.391280e+00 7.010472e+01 
2.426240e+00 6.845007e+01 
2.460670e+00 6.687317e+01 
2.495640e+00 6.532270e+01 
2.531080e+00 6.380050e+01 
2.566220e+00 6.233708e+01 
2.600830e+00 6.094169e+01 
2.635080e+00 5.960499e+01 
2.670340e+00 5.826587e+01 
2.705970e+00 5.695623e+01 
2.740040e+00 5.574243e+01 
2.774520e+00 5.454723e+01 
2.809730e+00 5.336349e+01 
2.844390e+00 5.223337e+01 
2.879960e+00 5.110685e+01 
2.914860e+00 5.003297e+01 
2.949410e+00 4.900068e+01 
2.984440e+00 4.798307e+01 
3.019760e+00 4.698719e+01 
3.054730e+00 4.603002e+01 
3.089030e+00 4.511421e+01 
3.124060e+00 4.420554e+01 
3.159560e+00 4.331080e+01 
3.194710e+00 4.244779e+01 
3.229010e+00 4.162866e+01 
3.263320e+00 4.083179e+01 
3.297930e+00 4.004925e+01 
3.332830e+00 3.928013e+01 
3.368040e+00 3.852472e+01 
3.403300e+00 3.778839e+01 
3.438450e+00 3.707338e+01 
3.473060e+00 3.638793e+01 
3.508440e+00 3.570572e+01 
3.543110e+00 3.505447e+01 
3.577470e+00 3.442381e+01 
3.613040e+00 3.378776e+01 
3.648120e+00 3.317657e+01 
3.682910e+00 3.258564e+01 
3.718050e+00 3.200345e+01 
3.753320e+00 3.143366e+01 
3.787980e+00 3.088740e+01 
3.822290e+00 3.035995e+01 
3.857020e+00 2.983920e+01 
3.891920e+00 2.932795e+01 
3.926650e+00 2.883037e+01 
3.961970e+00 2.833669e+01 
3.997360e+00 2.785452e+01 
4.031670e+00 2.739794e+01 
4.066330e+00 2.694711e+01 
4.101420e+00 2.650120e+01 
4.136200e+00 2.606994e+01 
4.170810e+00 2.565045e+01 
4.206250e+00 2.523039e+01 
4.241580e+00 2.482107e+01 
4.276300e+00 2.442810e+01 
4.310970e+00 2.404445e+01 
4.346120e+00 2.366421e+01 
4.380600e+00 2.329965e+01 
4.414730e+00 2.294643e+01 
4.450350e+00 2.258606e+01 
4.485320e+00 2.223986e+01 
4.519810e+00 2.190593e+01 
4.555430e+00 2.156845e+01 
4.590870e+00 2.123999e+01 
4.625480e+00 2.092628e+01 
4.659910e+00 2.062053e+01 
4.695230e+00 2.031371e+01 
4.729960e+00 2.001819e+01 
4.764450e+00 1.973078e+01 
4.799530e+00 1.944465e+01 
4.834910e+00 1.916182e+01 
4.869700e+00 1.888977e+01 
4.904370e+00 1.862402e+01 
4.939450e+00 1.836053e+01 
4.973940e+00 1.810696e+01 
5.008430e+00 1.785818e+01 
5.043810e+00 1.760821e+01 
5.078840e+00 1.736564e+01 
5.113500e+00 1.713013e+01 
5.148890e+00 1.689484e+01 
5.184210e+00 1.666445e+01 
5.219060e+00 1.644150e+01 
5.253660e+00 1.622465e+01 
5.288570e+00 1.600980e+01 
5.323420e+00 1.579952e+01 
5.358440e+00 1.559237e+01 
5.393590e+00 1.538816e+01 
5.428310e+00 1.519049e+01 
5.462800e+00 1.499780e+01 
5.497640e+00 1.480653e+01 
5.532670e+00 1.461804e+01 
5.567280e+00 1.443516e+01 
5.602000e+00 1.425484e+01 
5.637270e+00 1.407532e+01 
5.672410e+00 1.389964e+01 
5.707020e+00 1.372953e+01 
5.742040e+00 1.356079e+01 
5.777430e+00 1.339324e+01 
5.812210e+00 1.323133e+01 
5.846820e+00 1.307327e+01 
5.881610e+00 1.291708e+01 
5.916510e+00 1.276295e+01 
5.951600e+00 1.261093e+01 
5.986560e+00 1.246212e+01 
6.021830e+00 1.231440e+01 
6.056490e+00 1.217187e+01 
6.091160e+00 1.203179e+01 
6.125830e+00 1.189390e+01 
6.161090e+00 1.175604e+01 
6.195760e+00 1.162295e+01 
6.230420e+00 1.149194e+01 
6.265690e+00 1.136070e+01 
6.300950e+00 1.123205e+01 
6.335620e+00 1.110749e+01 
6.370880e+00 1.098272e+01 
6.405550e+00 1.086224e+01 
6.440220e+00 1.074368e+01 
6.475480e+00 1.062490e+01 
6.510150e+00 1.050999e+01 
6.544810e+00 1.039710e+01 
6.580080e+00 1.028391e+01 
6.614750e+00 1.017427e+01 
6.649410e+00 1.006667e+01 
6.684080e+00 9.960664e+00 
6.719340e+00 9.854408e+00 
6.754010e+00 9.751539e+00 
6.788680e+00 9.650385e+00 
6.823940e+00 9.548969e+00 
6.859800e+00 9.447308e+00 
6.894470e+00 9.350707e+00 
6.929140e+00 9.255549e+00 
6.963800e+00 9.161731e+00 
6.999070e+00 9.067606e+00 
7.033730e+00 8.976708e+00 
7.068400e+00 8.887019e+00 
7.103660e+00 8.797049e+00 
7.138330e+00 8.709910e+00 
7.173600e+00 8.622720e+00 
7.208260e+00 8.538189e+00 
7.243530e+00 8.453322e+00 
7.277600e+00 8.372608e+00 
7.312860e+00 8.290340e+00 
7.348120e+00 8.209166e+00 
7.382790e+00 8.130399e+00 
7.417460e+00 8.052848e+00 
7.452720e+00 7.975105e+00 
7.487390e+00 7.899652e+00 
7.522650e+00 7.823906e+00 
7.557320e+00 7.750587e+00 
7.591990e+00 7.678272e+00 
7.627250e+00 7.605663e+00 
7.662510e+00 7.533982e+00 
7.697180e+00 7.464599e+00 
7.731850e+00 7.396160e+00 
7.766510e+00 7.328589e+00 
7.801180e+00 7.261833e+00 
7.836440e+00 7.194958e+00 
7.871110e+00 7.130122e+00 
7.906380e+00 7.064974e+00 
7.941040e+00 7.001736e+00 
7.976310e+00 6.938264e+00 
8.011570e+00 6.875699e+00 
8.046240e+00 6.814924e+00 
8.080900e+00 6.754892e+00 
8.115570e+00 6.695607e+00 
8.150830e+00 6.636229e+00 
8.185500e+00 6.578537e+00 
8.220770e+00 6.520542e+00 
8.255430e+00 6.464222e+00 
8.290100e+00 6.408721e+00 
8.324770e+00 6.353883e+00 
8.359430e+00 6.299694e+00 
8.394700e+00 6.245191e+00 
8.429960e+00 6.191446e+00 
8.464630e+00 6.139319e+00 
8.499890e+00 6.086912e+00 
8.534560e+00 6.035970e+00 
8.569200e+00 5.985645e+00 
