# Parameters:
# omega_b = 0.022020, omega_m = 0.147835, n_s = 0.942913, h = 76.259843, w = -1.000000, sigma_8 = 0.813386
# z = 0.900000
#
# k[1/Mpc] # P(k):
8.694000e-04 5.591523e+03 
2.077466e-03 1.176898e+04 
3.285532e-03 1.658684e+04 
4.493598e-03 2.031097e+04 
5.701664e-03 2.310306e+04 
6.909730e-03 2.511323e+04 
8.117797e-03 2.651041e+04 
9.325863e-03 2.738154e+04 
1.053393e-02 2.781311e+04 
1.174199e-02 2.788483e+04 
1.295006e-02 2.764801e+04 
1.415813e-02 2.717163e+04 
1.536619e-02 2.651237e+04 
1.657426e-02 2.570248e+04 
1.778233e-02 2.472950e+04 
1.899039e-02 2.360972e+04 
2.019846e-02 2.246100e+04 
2.140652e-02 2.137490e+04 
2.261459e-02 2.034293e+04 
2.382266e-02 1.936265e+04 
2.503072e-02 1.844314e+04 
2.623879e-02 1.758941e+04 
2.744685e-02 1.680391e+04 
2.865492e-02 1.608909e+04 
2.986299e-02 1.544286e+04 
3.100100e-02 1.489598e+04 
3.220400e-02 1.437889e+04 
3.288100e-02 1.411524e+04 
3.424300e-02 1.363749e+04 
3.555100e-02 1.323592e+04 
3.686000e-02 1.288387e+04 
3.795000e-02 1.262160e+04 
3.929100e-02 1.233274e+04 
4.039800e-02 1.211386e+04 
4.164000e-02 1.188259e+04 
4.294400e-02 1.164708e+04 
4.415000e-02 1.143259e+04 
4.542900e-02 1.119738e+04 
4.660900e-02 1.097566e+04 
4.782300e-02 1.072907e+04 
4.892900e-02 1.049547e+04 
5.031200e-02 1.018620e+04 
5.155900e-02 9.889960e+03 
5.238100e-02 9.687874e+03 
5.378200e-02 9.334067e+03 
5.513400e-02 8.983087e+03 
5.627600e-02 8.683549e+03 
5.735300e-02 8.402628e+03 
5.870100e-02 8.057090e+03 
5.988700e-02 7.763011e+03 
6.113500e-02 7.466052e+03 
6.225900e-02 7.212065e+03 
6.340100e-02 6.969194e+03 
6.480200e-02 6.692456e+03 
6.601100e-02 6.474796e+03 
6.725500e-02 6.270966e+03 
6.829100e-02 6.118201e+03 
6.958600e-02 5.944389e+03 
7.071100e-02 5.810142e+03 
7.192300e-02 5.680525e+03 
7.307400e-02 5.570463e+03 
7.412300e-02 5.479874e+03 
7.550400e-02 5.373856e+03 
7.663100e-02 5.295311e+03 
7.791200e-02 5.214793e+03 
7.912700e-02 5.144068e+03 
8.027600e-02 5.080251e+03 
8.138400e-02 5.020418e+03 
8.272200e-02 4.949046e+03 
8.406100e-02 4.877195e+03 
8.534100e-02 4.805956e+03 
8.653800e-02 4.736115e+03 
8.759800e-02 4.672299e+03 
8.900300e-02 4.584028e+03 
9.009000e-02 4.512184e+03 
9.113300e-02 4.439839e+03 
9.239600e-02 4.350254e+03 
9.358000e-02 4.263362e+03 
9.496100e-02 4.158129e+03 
9.608400e-02 4.071721e+03 
9.727500e-02 3.980112e+03 
9.852600e-02 3.881869e+03 
9.973800e-02 3.788433e+03 
1.009000e-01 3.700567e+03 
1.020900e-01 3.612450e+03 
1.034000e-01 3.519108e+03 
1.046000e-01 3.436976e+03 
1.057200e-01 3.364918e+03 
1.069100e-01 3.291714e+03 
1.082500e-01 3.215586e+03 
1.093900e-01 3.155691e+03 
1.105400e-01 3.098594e+03 
1.116900e-01 3.047574e+03 
1.129600e-01 2.994367e+03 
1.142000e-01 2.948065e+03 
1.153300e-01 2.908597e+03 
1.166400e-01 2.866580e+03 
1.177800e-01 2.832911e+03 
1.190000e-01 2.798674e+03 
1.201200e-01 2.769238e+03 
1.213400e-01 2.738157e+03 
1.227100e-01 2.704434e+03 
1.238900e-01 2.675916e+03 
1.250700e-01 2.647269e+03 
1.263200e-01 2.617024e+03 
1.275500e-01 2.586604e+03 
1.287500e-01 2.556631e+03 
1.299900e-01 2.524818e+03 
1.311300e-01 2.495085e+03 
1.323500e-01 2.462253e+03 
1.335900e-01 2.428457e+03 
1.347100e-01 2.397033e+03 
1.359800e-01 2.361287e+03 
1.372100e-01 2.325663e+03 
1.384300e-01 2.290547e+03 
1.395700e-01 2.257059e+03 
1.407700e-01 2.222455e+03 
1.420300e-01 2.185702e+03 
1.432800e-01 2.150093e+03 
1.444500e-01 2.117055e+03 
1.456300e-01 2.084456e+03 
1.468900e-01 2.050871e+03 
1.480500e-01 2.020760e+03 
1.491700e-01 1.992798e+03 
1.503800e-01 1.963870e+03 
1.516400e-01 1.934716e+03 
1.528200e-01 1.909393e+03 
1.540200e-01 1.884155e+03 
1.551900e-01 1.861528e+03 
1.564300e-01 1.838378e+03 
1.576600e-01 1.816613e+03 
1.588700e-01 1.796507e+03 
1.600900e-01 1.776678e+03 
1.612700e-01 1.758969e+03 
1.625400e-01 1.740262e+03 
1.637600e-01 1.722936e+03 
1.649500e-01 1.706519e+03 
1.662200e-01 1.689295e+03 
1.674000e-01 1.673466e+03 
1.685000e-01 1.658955e+03 
1.697500e-01 1.642411e+03 
1.710300e-01 1.625443e+03 
1.722200e-01 1.609947e+03 
1.734400e-01 1.593378e+03 
1.746400e-01 1.577322e+03 
1.758700e-01 1.560832e+03 
1.770900e-01 1.544114e+03 
1.782700e-01 1.528218e+03 
1.794600e-01 1.511992e+03 
1.807000e-01 1.495062e+03 
1.819100e-01 1.478825e+03 
1.830100e-01 1.463934e+03 
1.842200e-01 1.447754e+03 
1.855000e-01 1.430928e+03 
1.867000e-01 1.415302e+03 
1.879200e-01 1.399679e+03 
1.890900e-01 1.384968e+03 
1.902800e-01 1.370386e+03 
1.915200e-01 1.355439e+03 
1.926900e-01 1.341645e+03 
1.939000e-01 1.327875e+03 
1.951700e-01 1.313656e+03 
1.963100e-01 1.301198e+03 
1.975100e-01 1.288564e+03 
1.987800e-01 1.275403e+03 
2.000100e-01 1.262974e+03 
2.012500e-01 1.250907e+03 
2.023400e-01 1.240453e+03 
2.036100e-01 1.228509e+03 
2.048900e-01 1.216885e+03 
2.060400e-01 1.206596e+03 
2.072200e-01 1.196199e+03 
2.084200e-01 1.185935e+03 
2.096900e-01 1.175231e+03 
2.109200e-01 1.165018e+03 
2.121100e-01 1.155327e+03 
2.132700e-01 1.146013e+03 
2.145200e-01 1.136118e+03 
2.157200e-01 1.126762e+03 
2.168800e-01 1.117847e+03 
2.180700e-01 1.108823e+03 
2.193400e-01 1.099322e+03 
2.206000e-01 1.090020e+03 
2.217500e-01 1.081646e+03 
2.229500e-01 1.073022e+03 
2.241400e-01 1.064600e+03 
2.253500e-01 1.056152e+03 
2.264900e-01 1.048294e+03 
2.277100e-01 1.040022e+03 
2.289900e-01 1.031492e+03 
2.301500e-01 1.023863e+03 
2.313600e-01 1.016008e+03 
2.325600e-01 1.008419e+03 
2.337700e-01 1.000864e+03 
2.350000e-01 9.932830e+02 
2.362000e-01 9.860410e+02 
2.374100e-01 9.789009e+02 
2.386500e-01 9.716768e+02 
2.399100e-01 9.644307e+02 
2.410400e-01 9.581129e+02 
2.422500e-01 9.514412e+02 
2.435000e-01 9.446349e+02 
2.447300e-01 9.380402e+02 
2.458700e-01 9.320765e+02 
2.470600e-01 9.259236e+02 
2.483300e-01 9.194371e+02 
2.495600e-01 9.132502e+02 
2.507600e-01 9.073106e+02 
2.519600e-01 9.014406e+02 
2.532200e-01 8.953507e+02 
2.543700e-01 8.898560e+02 
2.555500e-01 8.842802e+02 
2.568000e-01 8.784423e+02 
2.580100e-01 8.728576e+02 
2.592400e-01 8.672148e+02 
2.604100e-01 8.618944e+02 
2.616100e-01 8.564984e+02 
2.628400e-01 8.510305e+02 
2.640600e-01 8.456162e+02 
2.652200e-01 8.405044e+02 
2.664300e-01 8.352306e+02 
2.676500e-01 8.299728e+02 
2.688400e-01 8.248553e+02 
2.700700e-01 8.195960e+02 
2.712400e-01 8.146478e+02 
2.724800e-01 8.094608e+02 
2.736700e-01 8.045029e+02 
2.748800e-01 7.994803e+02 
2.761000e-01 7.944713e+02 
2.773200e-01 7.895169e+02 
2.785400e-01 7.845990e+02 
2.797000e-01 7.799363e+02 
2.808900e-01 7.752026e+02 
2.821400e-01 7.702835e+02 
2.833900e-01 7.654164e+02 
2.845500e-01 7.609075e+02 
2.857800e-01 7.561760e+02 
2.870300e-01 7.514192e+02 
2.882100e-01 7.469757e+02 
2.893900e-01 7.425614e+02 
2.906300e-01 7.379620e+02 
2.918900e-01 7.333382e+02 
2.930500e-01 7.291250e+02 
2.942500e-01 7.248057e+02 
2.954200e-01 7.206228e+02 
2.966500e-01 7.162696e+02 
2.978900e-01 7.119262e+02 
2.990400e-01 7.079381e+02 
3.002700e-01 7.037083e+02 
3.015100e-01 6.994847e+02 
3.026800e-01 6.955389e+02 
3.038500e-01 6.916308e+02 
3.050300e-01 6.877270e+02 
3.062600e-01 6.836946e+02 
3.075000e-01 6.796701e+02 
3.087000e-01 6.758136e+02 
3.099100e-01 6.719625e+02 
3.111200e-01 6.681503e+02 
3.123100e-01 6.644396e+02 
3.135300e-01 6.606717e+02 
3.147300e-01 6.570010e+02 
3.159900e-01 6.531841e+02 
3.171800e-01 6.496175e+02 
3.183700e-01 6.460865e+02 
3.196300e-01 6.423834e+02 
3.208400e-01 6.388612e+02 
3.220300e-01 6.354293e+02 
3.232000e-01 6.320931e+02 
3.244300e-01 6.286208e+02 
3.256700e-01 6.251534e+02 
3.269200e-01 6.216909e+02 
3.280800e-01 6.185071e+02 
3.292500e-01 6.153342e+02 
3.304800e-01 6.120318e+02 
3.317100e-01 6.087597e+02 
3.328900e-01 6.056489e+02 
3.340700e-01 6.025653e+02 
3.353600e-01 5.992365e+02 
3.365300e-01 5.962491e+02 
3.377100e-01 5.932621e+02 
3.389200e-01 5.902259e+02 
3.401600e-01 5.871422e+02 
3.413700e-01 5.841713e+02 
3.425300e-01 5.813553e+02 
3.437700e-01 5.783712e+02 
3.449800e-01 5.754848e+02 
3.461800e-01 5.726470e+02 
3.473600e-01 5.698853e+02 
3.485800e-01 5.670669e+02 
3.498100e-01 5.642500e+02 
3.510200e-01 5.615028e+02 
3.522000e-01 5.588461e+02 
3.533900e-01 5.561892e+02 
3.546400e-01 5.534387e+02 
3.558400e-01 5.508216e+02 
3.570600e-01 5.481832e+02 
3.582700e-01 5.455884e+02 
3.595000e-01 5.429727e+02 
3.607100e-01 5.404302e+02 
3.618900e-01 5.379779e+02 
3.631200e-01 5.354427e+02 
3.643200e-01 5.329896e+02 
3.655500e-01 5.304958e+02 
3.667300e-01 5.281228e+02 
3.679500e-01 5.257053e+02 
3.691900e-01 5.232684e+02 
3.703600e-01 5.209874e+02 
3.715700e-01 5.186471e+02 
3.727700e-01 5.163446e+02 
3.739900e-01 5.140283e+02 
3.752000e-01 5.117599e+02 
3.763900e-01 5.095466e+02 
3.775800e-01 5.073504e+02 
3.788200e-01 5.050800e+02 
3.800300e-01 5.028821e+02 
3.812100e-01 5.007612e+02 
3.824200e-01 4.986072e+02 
3.836100e-01 4.965052e+02 
3.848600e-01 4.943143e+02 
3.860400e-01 4.922622e+02 
3.872400e-01 4.901910e+02 
3.884600e-01 4.881105e+02 
3.896500e-01 4.860999e+02 
3.908700e-01 4.840542e+02 
3.920600e-01 4.820740e+02 
3.933100e-01 4.800097e+02 
3.945300e-01 4.780105e+02 
3.957200e-01 4.760830e+02 
3.969300e-01 4.741399e+02 
3.981700e-01 4.721636e+02 
3.993500e-01 4.702970e+02 
4.094840e-01 4.548162e+02 
4.272360e-01 4.300247e+02 
4.454600e-01 4.071118e+02 
4.630560e-01 3.870664e+02 
4.804610e-01 3.689698e+02 
4.980690e-01 3.521888e+02 
5.159230e-01 3.365612e+02 
5.317440e-01 3.237553e+02 
5.489640e-01 3.108316e+02 
5.671990e-01 2.981977e+02 
5.838690e-01 2.874932e+02 
6.018840e-01 2.767575e+02 
6.202330e-01 2.666352e+02 
6.379250e-01 2.575601e+02 
6.545410e-01 2.496273e+02 
6.714560e-01 2.420523e+02 
6.892080e-01 2.346202e+02 
7.066010e-01 2.278019e+02 
7.240540e-01 2.213714e+02 
7.420450e-01 2.151511e+02 
7.593780e-01 2.095057e+02 
7.764720e-01 2.042390e+02 
7.942840e-01 1.990484e+02 
8.116170e-01 1.942632e+02 
8.288310e-01 1.897498e+02 
8.462240e-01 1.854056e+02 
8.631980e-01 1.813605e+02 
8.810700e-01 1.772940e+02 
8.989410e-01 1.734109e+02 
9.166330e-01 1.697299e+02 
9.345640e-01 1.661546e+02 
9.515980e-01 1.628909e+02 
9.688720e-01 1.597048e+02 
9.865640e-01 1.565603e+02 
1.031870e+00 1.490122e+02 
1.063490e+00 1.441165e+02 
1.097920e+00 1.391110e+02 
1.134370e+00 1.341163e+02 
1.167730e+00 1.298097e+02 
1.203830e+00 1.253903e+02 
1.240470e+00 1.211563e+02 
1.275790e+00 1.172735e+02 
1.309140e+00 1.137954e+02 
1.342970e+00 1.104099e+02 
1.378420e+00 1.070376e+02 
1.413200e+00 1.038732e+02 
1.448110e+00 1.008315e+02 
1.484090e+00 9.784206e+01 
1.518820e+00 9.507351e+01 
1.552880e+00 9.246838e+01 
1.588630e+00 8.984254e+01 
1.623230e+00 8.740827e+01 
1.657720e+00 8.507565e+01 
1.692450e+00 8.282285e+01 
1.726400e+00 8.069246e+01 
1.762200e+00 7.853027e+01 
1.797880e+00 7.646122e+01 
1.833270e+00 7.448222e+01 
1.869070e+00 7.255665e+01 
1.903200e+00 7.078650e+01 
1.937740e+00 6.905696e+01 
1.973190e+00 6.734204e+01 
2.007440e+00 6.574361e+01 
2.042160e+00 6.417933e+01 
2.077900e+00 6.261956e+01 
2.112390e+00 6.116917e+01 
2.146220e+00 5.978591e+01 
2.181600e+00 5.838848e+01 
2.216930e+00 5.703944e+01 
2.250760e+00 5.578650e+01 
2.286500e+00 5.450395e+01 
2.321770e+00 5.328113e+01 
2.355950e+00 5.213427e+01 
2.391280e+00 5.098040e+01 
2.426240e+00 4.987334e+01 
2.460670e+00 4.881620e+01 
2.495640e+00 4.777511e+01 
2.531080e+00 4.675096e+01 
2.566220e+00 4.576377e+01 
2.600830e+00 4.482049e+01 
2.635080e+00 4.391516e+01 
2.670340e+00 4.300550e+01 
2.705970e+00 4.211432e+01 
2.740040e+00 4.128709e+01 
2.774520e+00 4.047121e+01 
2.809730e+00 3.966079e+01 
2.844390e+00 3.888546e+01 
2.879960e+00 3.811079e+01 
2.914860e+00 3.737089e+01 
2.949410e+00 3.665844e+01 
2.984440e+00 3.595407e+01 
3.019760e+00 3.526372e+01 
3.054730e+00 3.459930e+01 
3.089030e+00 3.396126e+01 
3.124060e+00 3.332740e+01 
3.159560e+00 3.270229e+01 
3.194710e+00 3.209764e+01 
3.229010e+00 3.152284e+01 
3.263320e+00 3.096193e+01 
3.297930e+00 3.041046e+01 
3.332830e+00 2.986754e+01 
3.368040e+00 2.933312e+01 
3.403300e+00 2.881123e+01 
3.438450e+00 2.830304e+01 
3.473060e+00 2.781527e+01 
3.508440e+00 2.732859e+01 
3.543110e+00 2.686349e+01 
3.577470e+00 2.641172e+01 
3.613040e+00 2.595559e+01 
3.648120e+00 2.551645e+01 
3.682910e+00 2.509122e+01 
3.718050e+00 2.467131e+01 
3.753320e+00 2.425968e+01 
3.787980e+00 2.386422e+01 
3.822290e+00 2.348179e+01 
3.857020e+00 2.310344e+01 
3.891920e+00 2.273146e+01 
3.926650e+00 2.236862e+01 
3.961970e+00 2.200818e+01 
3.997360e+00 2.165537e+01 
4.031670e+00 2.132095e+01 
4.066330e+00 2.098990e+01 
4.101420e+00 2.066226e+01 
4.136200e+00 2.034457e+01 
4.170810e+00 2.003540e+01 
4.206250e+00 1.972508e+01 
4.241580e+00 1.942244e+01 
4.276300e+00 1.913124e+01 
4.310970e+00 1.884655e+01 
4.346120e+00 1.856401e+01 
4.380600e+00 1.829262e+01 
4.414730e+00 1.802953e+01 
4.450350e+00 1.776038e+01 
4.485320e+00 1.750169e+01 
4.519810e+00 1.725164e+01 
4.555430e+00 1.699864e+01 
4.590870e+00 1.675213e+01 
4.625480e+00 1.651625e+01 
4.659910e+00 1.628624e+01 
4.695230e+00 1.605489e+01 
4.729960e+00 1.583190e+01 
4.764450e+00 1.561476e+01 
4.799530e+00 1.539820e+01 
4.834910e+00 1.518406e+01 
4.869700e+00 1.497764e+01 
4.904370e+00 1.477585e+01 
4.939450e+00 1.457559e+01 
4.973940e+00 1.438250e+01 
5.008430e+00 1.419299e+01 
5.043810e+00 1.400226e+01 
5.078840e+00 1.381698e+01 
5.113500e+00 1.363702e+01 
5.148890e+00 1.345682e+01 
5.184210e+00 1.328030e+01 
5.219060e+00 1.310933e+01 
5.253660e+00 1.294275e+01 
5.288570e+00 1.277766e+01 
5.323420e+00 1.261589e+01 
5.358440e+00 1.245631e+01 
5.393590e+00 1.229897e+01 
5.428310e+00 1.214642e+01 
5.462800e+00 1.199756e+01 
5.497640e+00 1.184977e+01 
5.532670e+00 1.170388e+01 
5.567280e+00 1.156224e+01 
5.602000e+00 1.142254e+01 
5.637270e+00 1.128323e+01 
5.672410e+00 1.114683e+01 
5.707020e+00 1.101471e+01 
5.742040e+00 1.088344e+01 
5.777430e+00 1.075303e+01 
5.812210e+00 1.062697e+01 
5.846820e+00 1.050372e+01 
5.881610e+00 1.038187e+01 
5.916510e+00 1.026159e+01 
5.951600e+00 1.014281e+01 
5.986560e+00 1.002646e+01 
6.021830e+00 9.910931e+00 
6.056490e+00 9.799345e+00 
6.091160e+00 9.689587e+00 
6.125830e+00 9.581525e+00 
6.161090e+00 9.473408e+00 
6.195760e+00 9.368912e+00 
6.230420e+00 9.266034e+00 
6.265690e+00 9.162952e+00 
6.300950e+00 9.061748e+00 
6.335620e+00 8.963737e+00 
6.370880e+00 8.865554e+00 
6.405550e+00 8.770635e+00 
6.440220e+00 8.677187e+00 
6.475480e+00 8.583552e+00 
6.510150e+00 8.492909e+00 
6.544810e+00 8.403767e+00 
6.580080e+00 8.314377e+00 
6.614750e+00 8.227779e+00 
6.649410e+00 8.142697e+00 
6.684080e+00 8.058849e+00 
6.719340e+00 7.974790e+00 
6.754010e+00 7.893372e+00 
6.788680e+00 7.813238e+00 
6.823940e+00 7.732884e+00 
6.859800e+00 7.652326e+00 
6.894470e+00 7.575710e+00 
6.929140e+00 7.500211e+00 
6.963800e+00 7.425764e+00 
6.999070e+00 7.351059e+00 
7.033730e+00 7.278839e+00 
7.068400e+00 7.207570e+00 
7.103660e+00 7.136069e+00 
7.138330e+00 7.066790e+00 
7.173600e+00 6.997421e+00 
7.208260e+00 6.930160e+00 
7.243530e+00 6.862623e+00 
7.277600e+00 6.798356e+00 
7.312860e+00 6.732817e+00 
7.348120e+00 6.668142e+00 
7.382790e+00 6.605378e+00 
7.417460e+00 6.543547e+00 
7.452720e+00 6.481541e+00 
7.487390e+00 6.421355e+00 
7.522650e+00 6.360929e+00 
7.557320e+00 6.302404e+00 
7.591990e+00 6.244664e+00 
7.627250e+00 6.186683e+00 
7.662510e+00 6.129436e+00 
7.697180e+00 6.073993e+00 
7.731850e+00 6.019288e+00 
7.766510e+00 5.965272e+00 
7.801180e+00 5.911901e+00 
7.836440e+00 5.858414e+00 
7.871110e+00 5.806542e+00 
7.906380e+00 5.754415e+00 
7.941040e+00 5.703812e+00 
7.976310e+00 5.653005e+00 
8.011570e+00 5.602906e+00 
8.046240e+00 5.554235e+00 
8.080900e+00 5.506154e+00 
8.115570e+00 5.458663e+00 
8.150830e+00 5.411077e+00 
8.185500e+00 5.364839e+00 
8.220770e+00 5.318352e+00 
8.255430e+00 5.273204e+00 
8.290100e+00 5.228690e+00 
8.324770e+00 5.184703e+00 
8.359430e+00 5.141232e+00 
8.394700e+00 5.097505e+00 
8.429960e+00 5.054379e+00 
8.464630e+00 5.012541e+00 
8.499890e+00 4.970474e+00 
8.534560e+00 4.929580e+00 
8.569200e+00 4.889178e+00 
