# Parameters:
# omega_b = 0.021846, omega_m = 0.153071, n_s = 0.972835, h = 62.559055, w = -1.000000, sigma_8 = 0.723622
# z = 0.900000
#
# k[1/Mpc] # P(k):
8.694000e-04 3.952537e+03 
2.077466e-03 8.582857e+03 
3.285532e-03 1.229927e+04 
4.493598e-03 1.524601e+04 
5.701664e-03 1.752234e+04 
6.909730e-03 1.921909e+04 
8.117797e-03 2.044912e+04 
9.325863e-03 2.127115e+04 
1.053393e-02 2.174804e+04 
1.174199e-02 2.194050e+04 
1.295006e-02 2.188556e+04 
1.415813e-02 2.163440e+04 
1.536619e-02 2.123158e+04 
1.657426e-02 2.070932e+04 
1.778233e-02 2.010409e+04 
1.899039e-02 1.945907e+04 
2.019846e-02 1.877616e+04 
2.140652e-02 1.807016e+04 
2.261459e-02 1.735855e+04 
2.382266e-02 1.666115e+04 
2.503072e-02 1.599104e+04 
2.623879e-02 1.535429e+04 
2.744685e-02 1.475296e+04 
2.865492e-02 1.419265e+04 
2.986299e-02 1.367408e+04 
3.100100e-02 1.322376e+04 
3.220400e-02 1.278736e+04 
3.288100e-02 1.255962e+04 
3.424300e-02 1.213809e+04 
3.555100e-02 1.177445e+04 
3.686000e-02 1.144778e+04 
3.795000e-02 1.119997e+04 
3.929100e-02 1.092294e+04 
4.039800e-02 1.071230e+04 
4.164000e-02 1.049083e+04 
4.294400e-02 1.027030e+04 
4.415000e-02 1.007411e+04 
4.542900e-02 9.867516e+03 
4.660900e-02 9.678491e+03 
4.782300e-02 9.476981e+03 
4.892900e-02 9.290568e+03 
5.031200e-02 9.049570e+03 
5.155900e-02 8.822819e+03 
5.238100e-02 8.669266e+03 
5.378200e-02 8.401280e+03 
5.513400e-02 8.134716e+03 
5.627600e-02 7.905385e+03 
5.735300e-02 7.687970e+03 
5.870100e-02 7.416480e+03 
5.988700e-02 7.181208e+03 
6.113500e-02 6.938936e+03 
6.225900e-02 6.727066e+03 
6.340100e-02 6.519879e+03 
6.480200e-02 6.278519e+03 
6.601100e-02 6.082995e+03 
6.725500e-02 5.895176e+03 
6.829100e-02 5.750451e+03 
6.958600e-02 5.582535e+03 
7.071100e-02 5.449558e+03 
7.192300e-02 5.318587e+03 
7.307400e-02 5.205367e+03 
7.412300e-02 5.110900e+03 
7.550400e-02 4.998990e+03 
7.663100e-02 4.915696e+03 
7.791200e-02 4.830515e+03 
7.912700e-02 4.756783e+03 
8.027600e-02 4.691542e+03 
8.138400e-02 4.631697e+03 
8.272200e-02 4.562355e+03 
8.406100e-02 4.494778e+03 
8.534100e-02 4.430194e+03 
8.653800e-02 4.368594e+03 
8.759800e-02 4.313200e+03 
8.900300e-02 4.237767e+03 
9.009000e-02 4.177139e+03 
9.113300e-02 4.116546e+03 
9.239600e-02 4.041793e+03 
9.358000e-02 3.969499e+03 
9.496100e-02 3.882012e+03 
9.608400e-02 3.810067e+03 
9.727500e-02 3.733655e+03 
9.852600e-02 3.651239e+03 
9.973800e-02 3.572428e+03 
1.009000e-01 3.497950e+03 
1.020900e-01 3.422170e+03 
1.034000e-01 3.341168e+03 
1.046000e-01 3.269137e+03 
1.057200e-01 3.204444e+03 
1.069100e-01 3.138088e+03 
1.082500e-01 3.067225e+03 
1.093900e-01 3.010187e+03 
1.105400e-01 2.955044e+03 
1.116900e-01 2.903939e+03 
1.129600e-01 2.850017e+03 
1.142000e-01 2.801501e+03 
1.153300e-01 2.759661e+03 
1.166400e-01 2.714321e+03 
1.177800e-01 2.677677e+03 
1.190000e-01 2.640260e+03 
1.201200e-01 2.608488e+03 
1.213400e-01 2.575010e+03 
1.227100e-01 2.540165e+03 
1.238900e-01 2.511101e+03 
1.250700e-01 2.483252e+03 
1.263200e-01 2.454408e+03 
1.275500e-01 2.426617e+03 
1.287500e-01 2.399782e+03 
1.299900e-01 2.372138e+03 
1.311300e-01 2.346617e+03 
1.323500e-01 2.318890e+03 
1.335900e-01 2.290422e+03 
1.347100e-01 2.264043e+03 
1.359800e-01 2.233922e+03 
1.372100e-01 2.203687e+03 
1.384300e-01 2.173688e+03 
1.395700e-01 2.144643e+03 
1.407700e-01 2.114538e+03 
1.420300e-01 2.081797e+03 
1.432800e-01 2.050056e+03 
1.444500e-01 2.019788e+03 
1.456300e-01 1.989913e+03 
1.468900e-01 1.958549e+03 
1.480500e-01 1.930252e+03 
1.491700e-01 1.903707e+03 
1.503800e-01 1.875899e+03 
1.516400e-01 1.847784e+03 
1.528200e-01 1.822967e+03 
1.540200e-01 1.798237e+03 
1.551900e-01 1.775806e+03 
1.564300e-01 1.752792e+03 
1.576600e-01 1.731089e+03 
1.588700e-01 1.710960e+03 
1.600900e-01 1.691111e+03 
1.612700e-01 1.673424e+03 
1.625400e-01 1.654744e+03 
1.637600e-01 1.637579e+03 
1.649500e-01 1.621397e+03 
1.662200e-01 1.604473e+03 
1.674000e-01 1.589204e+03 
1.685000e-01 1.575207e+03 
1.697500e-01 1.559435e+03 
1.710300e-01 1.543443e+03 
1.722200e-01 1.528838e+03 
1.734400e-01 1.513528e+03 
1.746400e-01 1.498703e+03 
1.758700e-01 1.483535e+03 
1.770900e-01 1.468278e+03 
1.782700e-01 1.453769e+03 
1.794600e-01 1.438992e+03 
1.807000e-01 1.423592e+03 
1.819100e-01 1.408820e+03 
1.830100e-01 1.395220e+03 
1.842200e-01 1.380432e+03 
1.855000e-01 1.365045e+03 
1.867000e-01 1.350610e+03 
1.879200e-01 1.336177e+03 
1.890900e-01 1.322555e+03 
1.902800e-01 1.308898e+03 
1.915200e-01 1.294899e+03 
1.926900e-01 1.281936e+03 
1.939000e-01 1.268854e+03 
1.951700e-01 1.255346e+03 
1.963100e-01 1.243473e+03 
1.975100e-01 1.231331e+03 
1.987800e-01 1.218684e+03 
2.000100e-01 1.206715e+03 
2.012500e-01 1.195038e+03 
2.023400e-01 1.184922e+03 
2.036100e-01 1.173362e+03 
2.048900e-01 1.162099e+03 
2.060400e-01 1.152130e+03 
2.072200e-01 1.142061e+03 
2.084200e-01 1.132151e+03 
2.096900e-01 1.121817e+03 
2.109200e-01 1.111958e+03 
2.121100e-01 1.102658e+03 
2.132700e-01 1.093722e+03 
2.145200e-01 1.084228e+03 
2.157200e-01 1.075283e+03 
2.168800e-01 1.066773e+03 
2.180700e-01 1.058159e+03 
2.193400e-01 1.049094e+03 
2.206000e-01 1.040228e+03 
2.217500e-01 1.032245e+03 
2.229500e-01 1.024024e+03 
2.241400e-01 1.015963e+03 
2.253500e-01 1.007874e+03 
2.264900e-01 1.000352e+03 
2.277100e-01 9.923946e+02 
2.289900e-01 9.841458e+02 
2.301500e-01 9.767692e+02 
2.313600e-01 9.691727e+02 
2.325600e-01 9.617229e+02 
2.337700e-01 9.543077e+02 
2.350000e-01 9.468675e+02 
2.362000e-01 9.397054e+02 
2.374100e-01 9.325793e+02 
2.386500e-01 9.253699e+02 
2.399100e-01 9.181395e+02 
2.410400e-01 9.117500e+02 
2.422500e-01 9.049924e+02 
2.435000e-01 8.980993e+02 
2.447300e-01 8.914085e+02 
2.458700e-01 8.853072e+02 
2.470600e-01 8.790132e+02 
2.483300e-01 8.723789e+02 
2.495600e-01 8.660440e+02 
2.507600e-01 8.599524e+02 
2.519600e-01 8.539329e+02 
2.532200e-01 8.476888e+02 
2.543700e-01 8.420714e+02 
2.555500e-01 8.363824e+02 
2.568000e-01 8.304269e+02 
2.580100e-01 8.247303e+02 
2.592400e-01 8.190154e+02 
2.604100e-01 8.136451e+02 
2.616100e-01 8.081992e+02 
2.628400e-01 8.026811e+02 
2.640600e-01 7.972704e+02 
2.652200e-01 7.921830e+02 
2.664300e-01 7.869349e+02 
2.676500e-01 7.817031e+02 
2.688400e-01 7.766541e+02 
2.700700e-01 7.714919e+02 
2.712400e-01 7.666355e+02 
2.724800e-01 7.615451e+02 
2.736700e-01 7.567086e+02 
2.748800e-01 7.518386e+02 
2.761000e-01 7.469821e+02 
2.773200e-01 7.421787e+02 
2.785400e-01 7.374247e+02 
2.797000e-01 7.329461e+02 
2.808900e-01 7.283994e+02 
2.821400e-01 7.236748e+02 
2.833900e-01 7.190015e+02 
2.845500e-01 7.146978e+02 
2.857800e-01 7.101820e+02 
2.870300e-01 7.056420e+02 
2.882100e-01 7.014011e+02 
2.893900e-01 6.971984e+02 
2.906300e-01 6.928250e+02 
2.918900e-01 6.884285e+02 
2.930500e-01 6.844225e+02 
2.942500e-01 6.803173e+02 
2.954200e-01 6.763472e+02 
2.966500e-01 6.722156e+02 
2.978900e-01 6.680933e+02 
2.990400e-01 6.643083e+02 
3.002700e-01 6.602949e+02 
3.015100e-01 6.562876e+02 
3.026800e-01 6.525441e+02 
3.038500e-01 6.488364e+02 
3.050300e-01 6.451329e+02 
3.062600e-01 6.413052e+02 
3.075000e-01 6.374851e+02 
3.087000e-01 6.338246e+02 
3.099100e-01 6.301693e+02 
3.111200e-01 6.265495e+02 
3.123100e-01 6.230238e+02 
3.135300e-01 6.194438e+02 
3.147300e-01 6.159562e+02 
3.159900e-01 6.123297e+02 
3.171800e-01 6.089384e+02 
3.183700e-01 6.055791e+02 
3.196300e-01 6.020561e+02 
3.208400e-01 5.987054e+02 
3.220300e-01 5.954406e+02 
3.232000e-01 5.922643e+02 
3.244300e-01 5.889577e+02 
3.256700e-01 5.856556e+02 
3.269200e-01 5.823585e+02 
3.280800e-01 5.793267e+02 
3.292500e-01 5.763027e+02 
3.304800e-01 5.731547e+02 
3.317100e-01 5.700356e+02 
3.328900e-01 5.670703e+02 
3.340700e-01 5.641311e+02 
3.353600e-01 5.609567e+02 
3.365300e-01 5.581073e+02 
3.377100e-01 5.552584e+02 
3.389200e-01 5.523627e+02 
3.401600e-01 5.494217e+02 
3.413700e-01 5.465880e+02 
3.425300e-01 5.439021e+02 
3.437700e-01 5.410559e+02 
3.449800e-01 5.383029e+02 
3.461800e-01 5.355964e+02 
3.473600e-01 5.329626e+02 
3.485800e-01 5.302752e+02 
3.498100e-01 5.275893e+02 
3.510200e-01 5.249698e+02 
3.522000e-01 5.224368e+02 
3.533900e-01 5.199036e+02 
3.546400e-01 5.172829e+02 
3.558400e-01 5.147895e+02 
3.570600e-01 5.122758e+02 
3.582700e-01 5.098036e+02 
3.595000e-01 5.073117e+02 
3.607100e-01 5.048908e+02 
3.618900e-01 5.025569e+02 
3.631200e-01 5.001441e+02 
3.643200e-01 4.978095e+02 
3.655500e-01 4.954362e+02 
3.667300e-01 4.931780e+02 
3.679500e-01 4.908804e+02 
3.691900e-01 4.885644e+02 
3.703600e-01 4.863966e+02 
3.715700e-01 4.841726e+02 
3.727700e-01 4.819845e+02 
3.739900e-01 4.797844e+02 
3.752000e-01 4.776319e+02 
3.763900e-01 4.755317e+02 
3.775800e-01 4.734478e+02 
3.788200e-01 4.712935e+02 
3.800300e-01 4.692081e+02 
3.812100e-01 4.671977e+02 
3.824200e-01 4.651573e+02 
3.836100e-01 4.631661e+02 
3.848600e-01 4.610909e+02 
3.860400e-01 4.591471e+02 
3.872400e-01 4.571853e+02 
3.884600e-01 4.552167e+02 
3.896500e-01 4.533152e+02 
3.908700e-01 4.513805e+02 
3.920600e-01 4.495077e+02 
3.933100e-01 4.475555e+02 
3.945300e-01 4.456648e+02 
3.957200e-01 4.438444e+02 
3.969300e-01 4.420101e+02 
3.981700e-01 4.401445e+02 
3.993500e-01 4.383825e+02 
4.094840e-01 4.237792e+02 
4.272360e-01 4.004449e+02 
4.454600e-01 3.789044e+02 
4.630560e-01 3.600674e+02 
4.804610e-01 3.430544e+02 
4.980690e-01 3.272698e+02 
5.159230e-01 3.125603e+02 
5.317440e-01 3.005043e+02 
5.489640e-01 2.883383e+02 
5.671990e-01 2.764501e+02 
5.838690e-01 2.663853e+02 
6.018840e-01 2.563037e+02 
6.202330e-01 2.468156e+02 
6.379250e-01 2.383175e+02 
6.545410e-01 2.309060e+02 
6.714560e-01 2.238396e+02 
6.892080e-01 2.169164e+02 
7.066010e-01 2.105790e+02 
7.240540e-01 2.046080e+02 
7.420450e-01 1.988442e+02 
7.593780e-01 1.936199e+02 
7.764720e-01 1.887513e+02 
7.942840e-01 1.839576e+02 
8.116170e-01 1.795443e+02 
8.288310e-01 1.753851e+02 
8.462240e-01 1.713841e+02 
8.631980e-01 1.676618e+02 
8.810700e-01 1.639202e+02 
8.989410e-01 1.603486e+02 
9.166330e-01 1.569637e+02 
9.345640e-01 1.536766e+02 
9.515980e-01 1.506766e+02 
9.688720e-01 1.477479e+02 
9.865640e-01 1.448572e+02 
1.031870e+00 1.379151e+02 
1.063490e+00 1.334103e+02 
1.097920e+00 1.288012e+02 
1.134370e+00 1.241991e+02 
1.167730e+00 1.202292e+02 
1.203830e+00 1.161507e+02 
1.240470e+00 1.122415e+02 
1.275790e+00 1.086534e+02 
1.309140e+00 1.054370e+02 
1.342970e+00 1.023038e+02 
1.378420e+00 9.918187e+01 
1.413200e+00 9.625040e+01 
1.448110e+00 9.343086e+01 
1.484090e+00 9.065919e+01 
1.518820e+00 8.809062e+01 
1.552880e+00 8.567234e+01 
1.588630e+00 8.323360e+01 
1.623230e+00 8.097285e+01 
1.657720e+00 7.880568e+01 
1.692450e+00 7.671159e+01 
1.726400e+00 7.473116e+01 
1.762200e+00 7.272132e+01 
1.797880e+00 7.079657e+01 
1.833270e+00 6.895592e+01 
1.869070e+00 6.716490e+01 
1.903200e+00 6.551769e+01 
1.937740e+00 6.390814e+01 
1.973190e+00 6.231259e+01 
2.007440e+00 6.082498e+01 
2.042160e+00 5.936881e+01 
2.077900e+00 5.791718e+01 
2.112390e+00 5.656681e+01 
2.146220e+00 5.527945e+01 
2.181600e+00 5.397867e+01 
2.216930e+00 5.272278e+01 
2.250760e+00 5.155652e+01 
2.286500e+00 5.036286e+01 
2.321770e+00 4.922472e+01 
2.355950e+00 4.815707e+01 
2.391280e+00 4.708323e+01 
2.426240e+00 4.605283e+01 
2.460670e+00 4.506893e+01 
2.495640e+00 4.410016e+01 
2.531080e+00 4.314740e+01 
2.566220e+00 4.222890e+01 
2.600830e+00 4.135122e+01 
2.635080e+00 4.050887e+01 
2.670340e+00 3.966249e+01 
2.705970e+00 3.883349e+01 
2.740040e+00 3.806414e+01 
2.774520e+00 3.730570e+01 
2.809730e+00 3.655214e+01 
2.844390e+00 3.583116e+01 
2.879960e+00 3.511084e+01 
2.914860e+00 3.442312e+01 
2.949410e+00 3.376101e+01 
2.984440e+00 3.310631e+01 
3.019760e+00 3.246484e+01 
3.054730e+00 3.184761e+01 
3.089030e+00 3.125483e+01 
3.124060e+00 3.066607e+01 
3.159560e+00 3.008563e+01 
3.194710e+00 2.952418e+01 
3.229010e+00 2.899048e+01 
3.263320e+00 2.846963e+01 
3.297930e+00 2.795767e+01 
3.332830e+00 2.745385e+01 
3.368040e+00 2.695796e+01 
3.403300e+00 2.647376e+01 
3.438450e+00 2.600226e+01 
3.473060e+00 2.554974e+01 
3.508440e+00 2.509838e+01 
3.543110e+00 2.466708e+01 
3.577470e+00 2.424819e+01 
3.613040e+00 2.382533e+01 
3.648120e+00 2.341833e+01 
3.682910e+00 2.302427e+01 
3.718050e+00 2.263518e+01 
3.753320e+00 2.225381e+01 
3.787980e+00 2.188746e+01 
3.822290e+00 2.153324e+01 
3.857020e+00 2.118285e+01 
3.891920e+00 2.083839e+01 
3.926650e+00 2.050246e+01 
3.961970e+00 2.016879e+01 
3.997360e+00 1.984225e+01 
4.031670e+00 1.953277e+01 
4.066330e+00 1.922645e+01 
4.101420e+00 1.892332e+01 
4.136200e+00 1.862948e+01 
4.170810e+00 1.834354e+01 
4.206250e+00 1.805666e+01 
4.241580e+00 1.777690e+01 
4.276300e+00 1.750774e+01 
4.310970e+00 1.724461e+01 
4.346120e+00 1.698351e+01 
4.380600e+00 1.673277e+01 
4.414730e+00 1.648972e+01 
4.450350e+00 1.624114e+01 
4.485320e+00 1.600223e+01 
4.519810e+00 1.577134e+01 
4.555430e+00 1.553777e+01 
4.590870e+00 1.531020e+01 
4.625480e+00 1.509249e+01 
4.659910e+00 1.488022e+01 
4.695230e+00 1.466677e+01 
4.729960e+00 1.446106e+01 
4.764450e+00 1.426078e+01 
4.799530e+00 1.406106e+01 
4.834910e+00 1.386358e+01 
4.869700e+00 1.367328e+01 
4.904370e+00 1.348727e+01 
4.939450e+00 1.330269e+01 
4.973940e+00 1.312476e+01 
5.008430e+00 1.295013e+01 
5.043810e+00 1.277443e+01 
5.078840e+00 1.260376e+01 
5.113500e+00 1.243802e+01 
5.148890e+00 1.227208e+01 
5.184210e+00 1.210954e+01 
5.219060e+00 1.195215e+01 
5.253660e+00 1.179883e+01 
5.288570e+00 1.164690e+01 
5.323420e+00 1.149805e+01 
5.358440e+00 1.135125e+01 
5.393590e+00 1.120651e+01 
5.428310e+00 1.106621e+01 
5.462800e+00 1.092933e+01 
5.497640e+00 1.079343e+01 
5.532670e+00 1.065932e+01 
5.567280e+00 1.052912e+01 
5.602000e+00 1.040072e+01 
5.637270e+00 1.027272e+01 
5.672410e+00 1.014740e+01 
5.707020e+00 1.002603e+01 
5.742040e+00 9.905469e+00 
5.777430e+00 9.785703e+00 
5.812210e+00 9.669942e+00 
5.846820e+00 9.556799e+00 
5.881610e+00 9.444949e+00 
5.916510e+00 9.334552e+00 
5.951600e+00 9.225558e+00 
5.986560e+00 9.118803e+00 
6.021830e+00 9.012820e+00 
6.056490e+00 8.910471e+00 
6.091160e+00 8.809820e+00 
6.125830e+00 8.710728e+00 
6.161090e+00 8.611600e+00 
6.195760e+00 8.515815e+00 
6.230420e+00 8.421518e+00 
6.265690e+00 8.327041e+00 
6.300950e+00 8.234324e+00 
6.335620e+00 8.144537e+00 
6.370880e+00 8.054598e+00 
6.405550e+00 7.967669e+00 
6.440220e+00 7.882097e+00 
6.475480e+00 7.796360e+00 
6.510150e+00 7.713376e+00 
6.544810e+00 7.631792e+00 
6.580080e+00 7.549985e+00 
6.614750e+00 7.470737e+00 
6.649410e+00 7.392904e+00 
6.684080e+00 7.316207e+00 
6.719340e+00 7.239321e+00 
6.754010e+00 7.164862e+00 
6.788680e+00 7.091597e+00 
6.823940e+00 7.018135e+00 
6.859800e+00 6.944489e+00 
6.894470e+00 6.874472e+00 
6.929140e+00 6.805485e+00 
6.963800e+00 6.737463e+00 
6.999070e+00 6.669209e+00 
7.033730e+00 6.603253e+00 
7.068400e+00 6.538169e+00 
7.103660e+00 6.472875e+00 
7.138330e+00 6.409622e+00 
7.173600e+00 6.346306e+00 
7.208260e+00 6.284917e+00 
7.243530e+00 6.223279e+00 
7.277600e+00 6.164637e+00 
7.312860e+00 6.104849e+00 
7.348120e+00 6.045852e+00 
7.382790e+00 5.988599e+00 
7.417460e+00 5.932216e+00 
7.452720e+00 5.875684e+00 
7.487390e+00 5.820815e+00 
7.522650e+00 5.765727e+00 
7.557320e+00 5.712392e+00 
7.591990e+00 5.659780e+00 
7.627250e+00 5.606951e+00 
7.662510e+00 5.554792e+00 
7.697180e+00 5.504294e+00 
7.731850e+00 5.454476e+00 
7.766510e+00 5.405286e+00 
7.801180e+00 5.356686e+00 
7.836440e+00 5.307997e+00 
7.871110e+00 5.260789e+00 
7.906380e+00 5.213350e+00 
7.941040e+00 5.167299e+00 
7.976310e+00 5.121072e+00 
8.011570e+00 5.075500e+00 
8.046240e+00 5.031228e+00 
8.080900e+00 4.987494e+00 
8.115570e+00 4.944304e+00 
8.150830e+00 4.901047e+00 
8.185500e+00 4.859015e+00 
8.220770e+00 4.816759e+00 
8.255430e+00 4.775721e+00 
8.290100e+00 4.735275e+00 
8.324770e+00 4.695309e+00 
8.359430e+00 4.655814e+00 
8.394700e+00 4.616086e+00 
8.429960e+00 4.576916e+00 
8.464630e+00 4.538929e+00 
8.499890e+00 4.500735e+00 
8.534560e+00 4.463606e+00 
8.569200e+00 4.426924e+00 
