# Parameters:
# omega_b = 0.022618, omega_m = 0.123858, n_s = 0.856299, h = 84.291339, w = -1.000000, sigma_8 = 0.734646
# z = 0.900000
#
# k[1/Mpc] # P(k):
8.694000e-04 1.198234e+04 
2.077466e-03 2.284142e+04 
3.285532e-03 3.031411e+04 
4.493598e-03 3.539656e+04 
5.701664e-03 3.866079e+04 
6.909730e-03 4.053775e+04 
8.117797e-03 4.141701e+04 
9.325863e-03 4.149623e+04 
1.053393e-02 4.095149e+04 
1.174199e-02 3.993269e+04 
1.295006e-02 3.853620e+04 
1.415813e-02 3.688217e+04 
1.536619e-02 3.506498e+04 
1.657426e-02 3.314077e+04 
1.778233e-02 3.111443e+04 
1.899039e-02 2.903201e+04 
2.019846e-02 2.702817e+04 
2.140652e-02 2.519360e+04 
2.261459e-02 2.351525e+04 
2.382266e-02 2.198646e+04 
2.503072e-02 2.060821e+04 
2.623879e-02 1.937611e+04 
2.744685e-02 1.828705e+04 
2.865492e-02 1.732973e+04 
2.986299e-02 1.649194e+04 
3.100100e-02 1.580572e+04 
3.220400e-02 1.517490e+04 
3.288100e-02 1.486067e+04 
3.424300e-02 1.430126e+04 
3.555100e-02 1.383887e+04 
3.686000e-02 1.343688e+04 
3.795000e-02 1.313699e+04 
3.929100e-02 1.280150e+04 
4.039800e-02 1.254079e+04 
4.164000e-02 1.225785e+04 
4.294400e-02 1.195696e+04 
4.415000e-02 1.167567e+04 
4.542900e-02 1.135854e+04 
4.660900e-02 1.105647e+04 
4.782300e-02 1.071892e+04 
4.892900e-02 1.040102e+04 
5.031200e-02 9.985409e+03 
5.155900e-02 9.595335e+03 
5.238100e-02 9.334157e+03 
5.378200e-02 8.886411e+03 
5.513400e-02 8.455568e+03 
5.627600e-02 8.098334e+03 
5.735300e-02 7.771685e+03 
5.870100e-02 7.381073e+03 
5.988700e-02 7.058003e+03 
6.113500e-02 6.740759e+03 
6.225900e-02 6.477188e+03 
6.340100e-02 6.231998e+03 
6.480200e-02 5.959980e+03 
6.601100e-02 5.753401e+03 
6.725500e-02 5.565717e+03 
6.829100e-02 5.429725e+03 
6.958600e-02 5.278775e+03 
7.071100e-02 5.165890e+03 
7.192300e-02 5.059727e+03 
7.307400e-02 4.971666e+03 
7.412300e-02 4.900362e+03 
7.550400e-02 4.817768e+03 
7.663100e-02 4.756401e+03 
7.791200e-02 4.691864e+03 
7.912700e-02 4.632234e+03 
8.027600e-02 4.575440e+03 
8.138400e-02 4.519286e+03 
8.272200e-02 4.448004e+03 
8.406100e-02 4.371768e+03 
8.534100e-02 4.291612e+03 
8.653800e-02 4.210195e+03 
8.759800e-02 4.134606e+03 
8.900300e-02 4.028862e+03 
9.009000e-02 3.942568e+03 
9.113300e-02 3.856307e+03 
9.239600e-02 3.750520e+03 
9.358000e-02 3.649564e+03 
9.496100e-02 3.530526e+03 
9.608400e-02 3.435063e+03 
9.727500e-02 3.335769e+03 
9.852600e-02 3.233919e+03 
9.973800e-02 3.139433e+03 
1.009000e-01 3.052523e+03 
1.020900e-01 2.969826e+03 
1.034000e-01 2.884356e+03 
1.046000e-01 2.811306e+03 
1.057200e-01 2.750537e+03 
1.069100e-01 2.689965e+03 
1.082500e-01 2.630146e+03 
1.093900e-01 2.584816e+03 
1.105400e-01 2.542641e+03 
1.116900e-01 2.506909e+03 
1.129600e-01 2.470194e+03 
1.142000e-01 2.439360e+03 
1.153300e-01 2.413105e+03 
1.166400e-01 2.385217e+03 
1.177800e-01 2.362065e+03 
1.190000e-01 2.338133e+03 
1.201200e-01 2.315507e+03 
1.213400e-01 2.291235e+03 
1.227100e-01 2.261106e+03 
1.238900e-01 2.234829e+03 
1.250700e-01 2.205899e+03 
1.263200e-01 2.174554e+03 
1.275500e-01 2.141292e+03 
1.287500e-01 2.108035e+03 
1.299900e-01 2.072001e+03 
1.311300e-01 2.038435e+03 
1.323500e-01 2.001528e+03 
1.335900e-01 1.964169e+03 
1.347100e-01 1.930203e+03 
1.359800e-01 1.892357e+03 
1.372100e-01 1.856086e+03 
1.384300e-01 1.821079e+03 
1.395700e-01 1.789312e+03 
1.407700e-01 1.756753e+03 
1.420300e-01 1.724340e+03 
1.432800e-01 1.692972e+03 
1.444500e-01 1.665720e+03 
1.456300e-01 1.638844e+03 
1.468900e-01 1.612164e+03 
1.480500e-01 1.588545e+03 
1.491700e-01 1.566925e+03 
1.503800e-01 1.544961e+03 
1.516400e-01 1.522859e+03 
1.528200e-01 1.503835e+03 
1.540200e-01 1.484868e+03 
1.551900e-01 1.467688e+03 
1.564300e-01 1.450063e+03 
1.576600e-01 1.433252e+03 
1.588700e-01 1.417428e+03 
1.600900e-01 1.401784e+03 
1.612700e-01 1.387135e+03 
1.625400e-01 1.371664e+03 
1.637600e-01 1.356902e+03 
1.649500e-01 1.342661e+03 
1.662200e-01 1.327637e+03 
1.674000e-01 1.313356e+03 
1.685000e-01 1.300269e+03 
1.697500e-01 1.285205e+03 
1.710300e-01 1.269620e+03 
1.722200e-01 1.255395e+03 
1.734400e-01 1.240151e+03 
1.746400e-01 1.225388e+03 
1.758700e-01 1.210294e+03 
1.770900e-01 1.195118e+03 
1.782700e-01 1.180701e+03 
1.794600e-01 1.166160e+03 
1.807000e-01 1.151108e+03 
1.819100e-01 1.136685e+03 
1.830100e-01 1.123734e+03 
1.842200e-01 1.109718e+03 
1.855000e-01 1.095166e+03 
1.867000e-01 1.081973e+03 
1.879200e-01 1.068791e+03 
1.890900e-01 1.056428e+03 
1.902800e-01 1.044406e+03 
1.915200e-01 1.032088e+03 
1.926900e-01 1.020773e+03 
1.939000e-01 1.009635e+03 
1.951700e-01 9.981375e+02 
1.963100e-01 9.880962e+02 
1.975100e-01 9.779942e+02 
1.987800e-01 9.674736e+02 
2.000100e-01 9.575454e+02 
2.012500e-01 9.479193e+02 
2.023400e-01 9.395819e+02 
2.036100e-01 9.300443e+02 
2.048900e-01 9.207127e+02 
2.060400e-01 9.124543e+02 
2.072200e-01 9.041033e+02 
2.084200e-01 8.957579e+02 
2.096900e-01 8.870575e+02 
2.109200e-01 8.787579e+02 
2.121100e-01 8.707614e+02 
2.132700e-01 8.630715e+02 
2.145200e-01 8.549035e+02 
2.157200e-01 8.470985e+02 
2.168800e-01 8.396230e+02 
2.180700e-01 8.320598e+02 
2.193400e-01 8.240635e+02 
2.206000e-01 8.161716e+02 
2.217500e-01 8.090693e+02 
2.229500e-01 8.017586e+02 
2.241400e-01 7.945441e+02 
2.253500e-01 7.873073e+02 
2.264900e-01 7.805805e+02 
2.277100e-01 7.734770e+02 
2.289900e-01 7.661282e+02 
2.301500e-01 7.595595e+02 
2.313600e-01 7.527987e+02 
2.325600e-01 7.462375e+02 
2.337700e-01 7.397093e+02 
2.350000e-01 7.331620e+02 
2.362000e-01 7.269037e+02 
2.374100e-01 7.207284e+02 
2.386500e-01 7.144832e+02 
2.399100e-01 7.082222e+02 
2.410400e-01 7.027701e+02 
2.422500e-01 6.970156e+02 
2.435000e-01 6.911476e+02 
2.447300e-01 6.854689e+02 
2.458700e-01 6.803537e+02 
2.470600e-01 6.750781e+02 
2.483300e-01 6.695186e+02 
2.495600e-01 6.642356e+02 
2.507600e-01 6.591898e+02 
2.519600e-01 6.542047e+02 
2.532200e-01 6.490347e+02 
2.543700e-01 6.444018e+02 
2.555500e-01 6.397225e+02 
2.568000e-01 6.348249e+02 
2.580100e-01 6.301410e+02 
2.592400e-01 6.254505e+02 
2.604100e-01 6.210469e+02 
2.616100e-01 6.165820e+02 
2.628400e-01 6.120589e+02 
2.640600e-01 6.076197e+02 
2.652200e-01 6.034444e+02 
2.664300e-01 5.991381e+02 
2.676500e-01 5.948460e+02 
2.688400e-01 5.906952e+02 
2.700700e-01 5.864463e+02 
2.712400e-01 5.824498e+02 
2.724800e-01 5.782616e+02 
2.736700e-01 5.742740e+02 
2.748800e-01 5.702504e+02 
2.761000e-01 5.662388e+02 
2.773200e-01 5.622719e+02 
2.785400e-01 5.583404e+02 
2.797000e-01 5.546247e+02 
2.808900e-01 5.508533e+02 
2.821400e-01 5.469353e+02 
2.833900e-01 5.430600e+02 
2.845500e-01 5.394782e+02 
2.857800e-01 5.357207e+02 
2.870300e-01 5.319440e+02 
2.882100e-01 5.284171e+02 
2.893900e-01 5.249158e+02 
2.906300e-01 5.212697e+02 
2.918900e-01 5.176051e+02 
2.930500e-01 5.142669e+02 
2.942500e-01 5.108462e+02 
2.954200e-01 5.075364e+02 
2.966500e-01 5.040927e+02 
2.978900e-01 5.006578e+02 
2.990400e-01 4.975047e+02 
3.002700e-01 4.941631e+02 
3.015100e-01 4.908281e+02 
3.026800e-01 4.877132e+02 
3.038500e-01 4.846290e+02 
3.050300e-01 4.815491e+02 
3.062600e-01 4.783719e+02 
3.075000e-01 4.752017e+02 
3.087000e-01 4.721648e+02 
3.099100e-01 4.691330e+02 
3.111200e-01 4.661346e+02 
3.123100e-01 4.632203e+02 
3.135300e-01 4.602618e+02 
3.147300e-01 4.573804e+02 
3.159900e-01 4.543850e+02 
3.171800e-01 4.515912e+02 
3.183700e-01 4.488289e+02 
3.196300e-01 4.459326e+02 
3.208400e-01 4.431785e+02 
3.220300e-01 4.404958e+02 
3.232000e-01 4.378932e+02 
3.244300e-01 4.351871e+02 
3.256700e-01 4.324854e+02 
3.269200e-01 4.297883e+02 
3.280800e-01 4.273089e+02 
3.292500e-01 4.248433e+02 
3.304800e-01 4.222792e+02 
3.317100e-01 4.197393e+02 
3.328900e-01 4.173251e+02 
3.340700e-01 4.149326e+02 
3.353600e-01 4.123559e+02 
3.365300e-01 4.100460e+02 
3.377100e-01 4.077370e+02 
3.389200e-01 4.053905e+02 
3.401600e-01 4.030078e+02 
3.413700e-01 4.007157e+02 
3.425300e-01 3.985458e+02 
3.437700e-01 3.962468e+02 
3.449800e-01 3.940236e+02 
3.461800e-01 3.918383e+02 
3.473600e-01 3.897133e+02 
3.485800e-01 3.875485e+02 
3.498100e-01 3.853854e+02 
3.510200e-01 3.832761e+02 
3.522000e-01 3.812367e+02 
3.533900e-01 3.791976e+02 
3.546400e-01 3.770910e+02 
3.558400e-01 3.750871e+02 
3.570600e-01 3.730673e+02 
3.582700e-01 3.710813e+02 
3.595000e-01 3.690797e+02 
3.607100e-01 3.671360e+02 
3.618900e-01 3.652631e+02 
3.631200e-01 3.633271e+02 
3.643200e-01 3.614542e+02 
3.655500e-01 3.595505e+02 
3.667300e-01 3.577394e+02 
3.679500e-01 3.558973e+02 
3.691900e-01 3.540407e+02 
3.703600e-01 3.523032e+02 
3.715700e-01 3.505209e+02 
3.727700e-01 3.487676e+02 
3.739900e-01 3.470046e+02 
3.752000e-01 3.452791e+02 
3.763900e-01 3.435958e+02 
3.775800e-01 3.419259e+02 
3.788200e-01 3.401997e+02 
3.800300e-01 3.385290e+02 
3.812100e-01 3.369182e+02 
3.824200e-01 3.352831e+02 
3.836100e-01 3.336877e+02 
3.848600e-01 3.320252e+02 
3.860400e-01 3.304681e+02 
3.872400e-01 3.288969e+02 
3.884600e-01 3.273198e+02 
3.896500e-01 3.257963e+02 
3.908700e-01 3.242465e+02 
3.920600e-01 3.227464e+02 
3.933100e-01 3.211830e+02 
3.945300e-01 3.196690e+02 
3.957200e-01 3.182106e+02 
3.969300e-01 3.167410e+02 
3.981700e-01 3.152465e+02 
3.993500e-01 3.138352e+02 
4.094840e-01 3.021495e+02 
4.272360e-01 2.835066e+02 
4.454600e-01 2.663819e+02 
4.630560e-01 2.514989e+02 
4.804610e-01 2.381528e+02 
4.980690e-01 2.258599e+02 
5.159230e-01 2.144857e+02 
5.317440e-01 2.052168e+02 
5.489640e-01 1.959105e+02 
5.671990e-01 1.868563e+02 
5.838690e-01 1.792156e+02 
6.018840e-01 1.715834e+02 
6.202330e-01 1.644165e+02 
6.379250e-01 1.580094e+02 
6.545410e-01 1.524292e+02 
6.714560e-01 1.471197e+02 
6.892080e-01 1.419242e+02 
7.066010e-01 1.371782e+02 
7.240540e-01 1.327166e+02 
7.420450e-01 1.284212e+02 
7.593780e-01 1.245398e+02 
7.764720e-01 1.209343e+02 
7.942840e-01 1.173967e+02 
8.116170e-01 1.141550e+02 
8.288310e-01 1.111139e+02 
8.462240e-01 1.082028e+02 
8.631980e-01 1.055078e+02 
8.810700e-01 1.028135e+02 
8.989410e-01 1.002565e+02 
9.166330e-01 9.784734e+01 
9.345640e-01 9.552214e+01 
9.515980e-01 9.341379e+01 
9.688720e-01 9.136839e+01 
9.865640e-01 8.936397e+01 
1.031870e+00 8.459978e+01 
1.063490e+00 8.155312e+01 
1.097920e+00 7.847078e+01 
1.134370e+00 7.542938e+01 
1.167730e+00 7.283456e+01 
1.203830e+00 7.020041e+01 
1.240470e+00 6.769809e+01 
1.275790e+00 6.542705e+01 
1.309140e+00 6.340468e+01 
1.342970e+00 6.145488e+01 
1.378420e+00 5.952296e+01 
1.413200e+00 5.772252e+01 
1.448110e+00 5.600263e+01 
1.484090e+00 5.432030e+01 
1.518820e+00 5.277025e+01 
1.552880e+00 5.131853e+01 
1.588630e+00 4.986055e+01 
1.623230e+00 4.851401e+01 
1.657720e+00 4.722756e+01 
1.692450e+00 4.598854e+01 
1.726400e+00 4.482099e+01 
1.762200e+00 4.363904e+01 
1.797880e+00 4.250988e+01 
1.833270e+00 4.143224e+01 
1.869070e+00 4.038597e+01 
1.903200e+00 3.942492e+01 
1.937740e+00 3.848725e+01 
1.973190e+00 3.755915e+01 
2.007440e+00 3.669455e+01 
2.042160e+00 3.584909e+01 
2.077900e+00 3.500689e+01 
2.112390e+00 3.422392e+01 
2.146220e+00 3.347790e+01 
2.181600e+00 3.272441e+01 
2.216930e+00 3.199713e+01 
2.250760e+00 3.132183e+01 
2.286500e+00 3.063067e+01 
2.321770e+00 2.997166e+01 
2.355950e+00 2.935339e+01 
2.391280e+00 2.873151e+01 
2.426240e+00 2.813439e+01 
2.460670e+00 2.756395e+01 
2.495640e+00 2.700213e+01 
2.531080e+00 2.644934e+01 
2.566220e+00 2.591605e+01 
2.600830e+00 2.540614e+01 
2.635080e+00 2.491645e+01 
2.670340e+00 2.442400e+01 
2.705970e+00 2.394127e+01 
2.740040e+00 2.349296e+01 
2.774520e+00 2.305064e+01 
2.809730e+00 2.261067e+01 
2.844390e+00 2.218937e+01 
2.879960e+00 2.176803e+01 
2.914860e+00 2.136524e+01 
2.949410e+00 2.097708e+01 
2.984440e+00 2.059274e+01 
3.019760e+00 2.021583e+01 
3.054730e+00 1.985287e+01 
3.089030e+00 1.950359e+01 
3.124060e+00 1.915641e+01 
3.159560e+00 1.881380e+01 
3.194710e+00 1.848181e+01 
3.229010e+00 1.816593e+01 
3.263320e+00 1.785710e+01 
3.297930e+00 1.755331e+01 
3.332830e+00 1.725403e+01 
3.368040e+00 1.695894e+01 
3.403300e+00 1.667040e+01 
3.438450e+00 1.638894e+01 
3.473060e+00 1.611860e+01 
3.508440e+00 1.584848e+01 
3.543110e+00 1.559015e+01 
3.577470e+00 1.533868e+01 
3.613040e+00 1.508462e+01 
3.648120e+00 1.483972e+01 
3.682910e+00 1.460234e+01 
3.718050e+00 1.436756e+01 
3.753320e+00 1.413716e+01 
3.787980e+00 1.391547e+01 
3.822290e+00 1.370086e+01 
3.857020e+00 1.348821e+01 
3.891920e+00 1.327893e+01 
3.926650e+00 1.307448e+01 
3.961970e+00 1.287119e+01 
3.997360e+00 1.267184e+01 
4.031670e+00 1.248277e+01 
4.066330e+00 1.229529e+01 
4.101420e+00 1.210969e+01 
4.136200e+00 1.192931e+01 
4.170810e+00 1.175371e+01 
4.206250e+00 1.157713e+01 
4.241580e+00 1.140483e+01 
4.276300e+00 1.123878e+01 
4.310970e+00 1.107629e+01 
4.346120e+00 1.091486e+01 
4.380600e+00 1.075956e+01 
4.414730e+00 1.060897e+01 
4.450350e+00 1.045453e+01 
4.485320e+00 1.030606e+01 
4.519810e+00 1.016233e+01 
4.555430e+00 1.001679e+01 
4.590870e+00 9.874864e+00 
4.625480e+00 9.738842e+00 
4.659910e+00 9.606188e+00 
4.695230e+00 9.472486e+00 
4.729960e+00 9.343559e+00 
4.764450e+00 9.217901e+00 
4.799530e+00 9.092398e+00 
4.834910e+00 8.968280e+00 
4.869700e+00 8.848413e+00 
4.904370e+00 8.731191e+00 
4.939450e+00 8.614777e+00 
4.973940e+00 8.502349e+00 
5.008430e+00 8.391993e+00 
5.043810e+00 8.280773e+00 
5.078840e+00 8.172633e+00 
5.113500e+00 8.067592e+00 
5.148890e+00 7.962232e+00 
5.184210e+00 7.859004e+00 
5.219060e+00 7.758966e+00 
5.253660e+00 7.661341e+00 
5.288570e+00 7.564585e+00 
5.323420e+00 7.469686e+00 
5.358440e+00 7.375983e+00 
5.393590e+00 7.283583e+00 
5.428310e+00 7.193893e+00 
5.462800e+00 7.106320e+00 
5.497640e+00 7.019366e+00 
5.532670e+00 6.933425e+00 
5.567280e+00 6.849951e+00 
5.602000e+00 6.767616e+00 
5.637270e+00 6.685413e+00 
5.672410e+00 6.604898e+00 
5.707020e+00 6.526913e+00 
5.742040e+00 6.449325e+00 
5.777430e+00 6.372220e+00 
5.812210e+00 6.297688e+00 
5.846820e+00 6.224750e+00 
5.881610e+00 6.152619e+00 
5.916510e+00 6.081420e+00 
5.951600e+00 6.011040e+00 
5.986560e+00 5.942067e+00 
6.021830e+00 5.873588e+00 
6.056490e+00 5.807402e+00 
6.091160e+00 5.742268e+00 
6.125830e+00 5.678140e+00 
6.161090e+00 5.613962e+00 
6.195760e+00 5.551899e+00 
6.230420e+00 5.490796e+00 
6.265690e+00 5.429571e+00 
6.300950e+00 5.369399e+00 
6.335620e+00 5.311128e+00 
6.370880e+00 5.252755e+00 
6.405550e+00 5.196303e+00 
6.440220e+00 5.140720e+00 
6.475480e+00 5.085027e+00 
6.510150e+00 5.031102e+00 
6.544810e+00 4.978041e+00 
6.580080e+00 4.924834e+00 
6.614750e+00 4.873291e+00 
6.649410e+00 4.822633e+00 
6.684080e+00 4.772708e+00 
6.719340e+00 4.722659e+00 
6.754010e+00 4.674181e+00 
6.788680e+00 4.626464e+00 
6.823940e+00 4.578619e+00 
6.859800e+00 4.530653e+00 
6.894470e+00 4.485028e+00 
6.929140e+00 4.440067e+00 
6.963800e+00 4.395734e+00 
6.999070e+00 4.351248e+00 
7.033730e+00 4.308236e+00 
7.068400e+00 4.265792e+00 
7.103660e+00 4.223212e+00 
7.138330e+00 4.181959e+00 
7.173600e+00 4.140660e+00 
7.208260e+00 4.100618e+00 
7.243530e+00 4.060414e+00 
7.277600e+00 4.022162e+00 
7.312860e+00 3.983160e+00 
7.348120e+00 3.944674e+00 
7.382790e+00 3.907325e+00 
7.417460e+00 3.870543e+00 
7.452720e+00 3.833662e+00 
7.487390e+00 3.797865e+00 
7.522650e+00 3.761926e+00 
7.557320e+00 3.727134e+00 
7.591990e+00 3.692816e+00 
7.627250e+00 3.658355e+00 
7.662510e+00 3.624333e+00 
7.697180e+00 3.591396e+00 
7.731850e+00 3.558903e+00 
7.766510e+00 3.526820e+00 
7.801180e+00 3.495122e+00 
7.836440e+00 3.463370e+00 
7.871110e+00 3.432588e+00 
7.906380e+00 3.401655e+00 
7.941040e+00 3.371626e+00 
7.976310e+00 3.341494e+00 
8.011570e+00 3.311801e+00 
8.046240e+00 3.282955e+00 
8.080900e+00 3.254459e+00 
8.115570e+00 3.226318e+00 
8.150830e+00 3.198140e+00 
8.185500e+00 3.170759e+00 
8.220770e+00 3.143232e+00 
8.255430e+00 3.116498e+00 
8.290100e+00 3.090174e+00 
8.324770e+00 3.064166e+00 
8.359430e+00 3.038463e+00 
8.394700e+00 3.012609e+00 
8.429960e+00 2.987125e+00 
8.464630e+00 2.962417e+00 
8.499890e+00 2.937574e+00 
8.534560e+00 2.913424e+00 
8.569200e+00 2.889564e+00 
