# Parameters:
# omega_b = 0.022728, omega_m = 0.120827, n_s = 1.012205, h = 59.251969, w = -1.000000, sigma_8 = 0.742520
# z = 0.900000
#
# k[1/Mpc] # P(k):
8.694000e-04 8.212480e+03 
2.077466e-03 1.796145e+04 
3.285532e-03 2.556024e+04 
4.493598e-03 3.128824e+04 
5.701664e-03 3.541804e+04 
6.909730e-03 3.821087e+04 
8.117797e-03 3.996407e+04 
9.325863e-03 4.083344e+04 
1.053393e-02 4.097753e+04 
1.174199e-02 4.054483e+04 
1.295006e-02 3.962891e+04 
1.415813e-02 3.835471e+04 
1.536619e-02 3.683220e+04 
1.657426e-02 3.515396e+04 
1.778233e-02 3.349124e+04 
1.899039e-02 3.201275e+04 
2.019846e-02 3.056544e+04 
2.140652e-02 2.905229e+04 
2.261459e-02 2.754761e+04 
2.382266e-02 2.612490e+04 
2.503072e-02 2.480950e+04 
2.623879e-02 2.360614e+04 
2.744685e-02 2.251621e+04 
2.865492e-02 2.153651e+04 
2.986299e-02 2.065979e+04 
3.100100e-02 1.992361e+04 
3.220400e-02 1.922971e+04 
3.288100e-02 1.887523e+04 
3.424300e-02 1.822836e+04 
3.555100e-02 1.767585e+04 
3.686000e-02 1.717913e+04 
3.795000e-02 1.679852e+04 
3.929100e-02 1.636177e+04 
4.039800e-02 1.601854e+04 
4.164000e-02 1.564579e+04 
4.294400e-02 1.525564e+04 
4.415000e-02 1.489813e+04 
4.542900e-02 1.450905e+04 
4.660900e-02 1.414814e+04 
4.782300e-02 1.376062e+04 
4.892900e-02 1.340412e+04 
5.031200e-02 1.294960e+04 
5.155900e-02 1.253211e+04 
5.238100e-02 1.225561e+04 
5.378200e-02 1.178485e+04 
5.513400e-02 1.133308e+04 
5.627600e-02 1.095697e+04 
5.735300e-02 1.061010e+04 
5.870100e-02 1.018942e+04 
5.988700e-02 9.834738e+03 
6.113500e-02 9.478593e+03 
6.225900e-02 9.174594e+03 
6.340100e-02 8.883460e+03 
6.480200e-02 8.550403e+03 
6.601100e-02 8.286311e+03 
6.725500e-02 8.036740e+03 
6.829100e-02 7.847514e+03 
6.958600e-02 7.630205e+03 
7.071100e-02 7.460241e+03 
7.192300e-02 7.294332e+03 
7.307400e-02 7.151911e+03 
7.412300e-02 7.033557e+03 
7.550400e-02 6.893470e+03 
7.663100e-02 6.788785e+03 
7.791200e-02 6.680198e+03 
7.912700e-02 6.583713e+03 
8.027600e-02 6.495728e+03 
8.138400e-02 6.412377e+03 
8.272200e-02 6.311697e+03 
8.406100e-02 6.208962e+03 
8.534100e-02 6.105492e+03 
8.653800e-02 6.002956e+03 
8.759800e-02 5.908790e+03 
8.900300e-02 5.778125e+03 
9.009000e-02 5.671852e+03 
9.113300e-02 5.565541e+03 
9.239600e-02 5.434897e+03 
9.358000e-02 5.309810e+03 
9.496100e-02 5.161728e+03 
9.608400e-02 5.042543e+03 
9.727500e-02 4.918166e+03 
9.852600e-02 4.790207e+03 
9.973800e-02 4.671062e+03 
1.009000e-01 4.561084e+03 
1.020900e-01 4.455735e+03 
1.034000e-01 4.346144e+03 
1.046000e-01 4.251781e+03 
1.057200e-01 4.171801e+03 
1.069100e-01 4.091315e+03 
1.082500e-01 4.009614e+03 
1.093900e-01 3.945928e+03 
1.105400e-01 3.885564e+03 
1.116900e-01 3.831572e+03 
1.129600e-01 3.774999e+03 
1.142000e-01 3.724637e+03 
1.153300e-01 3.680779e+03 
1.166400e-01 3.632605e+03 
1.177800e-01 3.591949e+03 
1.190000e-01 3.549589e+03 
1.201200e-01 3.510327e+03 
1.213400e-01 3.468333e+03 
1.227100e-01 3.419053e+03 
1.238900e-01 3.376803e+03 
1.250700e-01 3.332641e+03 
1.263200e-01 3.285751e+03 
1.275500e-01 3.238018e+03 
1.287500e-01 3.191266e+03 
1.299900e-01 3.142069e+03 
1.311300e-01 3.096938e+03 
1.323500e-01 3.048322e+03 
1.335900e-01 2.999551e+03 
1.347100e-01 2.955798e+03 
1.359800e-01 2.907199e+03 
1.372100e-01 2.861001e+03 
1.384300e-01 2.816376e+03 
1.395700e-01 2.775923e+03 
1.407700e-01 2.734359e+03 
1.420300e-01 2.692679e+03 
1.432800e-01 2.652266e+03 
1.444500e-01 2.616490e+03 
1.456300e-01 2.581154e+03 
1.468900e-01 2.545296e+03 
1.480500e-01 2.513288e+03 
1.491700e-01 2.483478e+03 
1.503800e-01 2.452534e+03 
1.516400e-01 2.421142e+03 
1.528200e-01 2.393082e+03 
1.540200e-01 2.365097e+03 
1.551900e-01 2.338829e+03 
1.564300e-01 2.311642e+03 
1.576600e-01 2.285329e+03 
1.588700e-01 2.260094e+03 
1.600900e-01 2.235127e+03 
1.612700e-01 2.211392e+03 
1.625400e-01 2.186324e+03 
1.637600e-01 2.162520e+03 
1.649500e-01 2.139618e+03 
1.662200e-01 2.115557e+03 
1.674000e-01 2.093221e+03 
1.685000e-01 2.072751e+03 
1.697500e-01 2.049629e+03 
1.710300e-01 2.026131e+03 
1.722200e-01 2.004677e+03 
1.734400e-01 1.982560e+03 
1.746400e-01 1.961165e+03 
1.758700e-01 1.939507e+03 
1.770900e-01 1.918175e+03 
1.782700e-01 1.897895e+03 
1.794600e-01 1.877690e+03 
1.807000e-01 1.856931e+03 
1.819100e-01 1.837020e+03 
1.830100e-01 1.819239e+03 
1.842200e-01 1.799996e+03 
1.855000e-01 1.779995e+03 
1.867000e-01 1.761753e+03 
1.879200e-01 1.743509e+03 
1.890900e-01 1.726342e+03 
1.902800e-01 1.709413e+03 
1.915200e-01 1.692055e+03 
1.926900e-01 1.676017e+03 
1.939000e-01 1.659952e+03 
1.951700e-01 1.643360e+03 
1.963100e-01 1.628772e+03 
1.975100e-01 1.613844e+03 
1.987800e-01 1.598291e+03 
2.000100e-01 1.583530e+03 
2.012500e-01 1.569034e+03 
2.023400e-01 1.556474e+03 
2.036100e-01 1.542070e+03 
2.048900e-01 1.527852e+03 
2.060400e-01 1.515265e+03 
2.072200e-01 1.502530e+03 
2.084200e-01 1.489754e+03 
2.096900e-01 1.476431e+03 
2.109200e-01 1.463718e+03 
2.121100e-01 1.451457e+03 
2.132700e-01 1.439662e+03 
2.145200e-01 1.427131e+03 
2.157200e-01 1.415130e+03 
2.168800e-01 1.403621e+03 
2.180700e-01 1.391975e+03 
2.193400e-01 1.379608e+03 
2.206000e-01 1.367307e+03 
2.217500e-01 1.356235e+03 
2.229500e-01 1.344834e+03 
2.241400e-01 1.333343e+03 
2.253500e-01 1.321808e+03 
2.264900e-01 1.311083e+03 
2.277100e-01 1.299570e+03 
2.289900e-01 1.287450e+03 
2.301500e-01 1.276615e+03 
2.313600e-01 1.265459e+03 
2.325600e-01 1.254175e+03 
2.337700e-01 1.242948e+03 
2.350000e-01 1.231690e+03 
2.362000e-01 1.220712e+03 
2.374100e-01 1.209623e+03 
2.386500e-01 1.198413e+03 
2.399100e-01 1.187177e+03 
2.410400e-01 1.177061e+03 
2.422500e-01 1.166345e+03 
2.435000e-01 1.155424e+03 
2.447300e-01 1.144810e+03 
2.458700e-01 1.135057e+03 
2.470600e-01 1.125003e+03 
2.483300e-01 1.114414e+03 
2.495600e-01 1.104331e+03 
2.507600e-01 1.094668e+03 
2.519600e-01 1.085128e+03 
2.532200e-01 1.075240e+03 
2.543700e-01 1.066456e+03 
2.555500e-01 1.057637e+03 
2.568000e-01 1.048412e+03 
2.580100e-01 1.039593e+03 
2.592400e-01 1.030946e+03 
2.604100e-01 1.022910e+03 
2.616100e-01 1.014765e+03 
2.628400e-01 1.006516e+03 
2.640600e-01 9.986591e+02 
2.652200e-01 9.913639e+02 
2.664300e-01 9.838411e+02 
2.676500e-01 9.763445e+02 
2.688400e-01 9.692955e+02 
2.700700e-01 9.622046e+02 
2.712400e-01 9.555352e+02 
2.724800e-01 9.485462e+02 
2.736700e-01 9.420286e+02 
2.748800e-01 9.355917e+02 
2.761000e-01 9.291733e+02 
2.773200e-01 9.228261e+02 
2.785400e-01 9.166016e+02 
2.797000e-01 9.108569e+02 
2.808900e-01 9.050252e+02 
2.821400e-01 8.989658e+02 
2.833900e-01 8.929775e+02 
2.845500e-01 8.875735e+02 
2.857800e-01 8.819032e+02 
2.870300e-01 8.762027e+02 
2.882100e-01 8.708780e+02 
2.893900e-01 8.656482e+02 
2.906300e-01 8.602313e+02 
2.918900e-01 8.547856e+02 
2.930500e-01 8.498237e+02 
2.942500e-01 8.447485e+02 
2.954200e-01 8.398711e+02 
2.966500e-01 8.347950e+02 
2.978900e-01 8.297303e+02 
2.990400e-01 8.250799e+02 
3.002700e-01 8.201655e+02 
3.015100e-01 8.152667e+02 
3.026800e-01 8.106901e+02 
3.038500e-01 8.061572e+02 
3.050300e-01 8.016295e+02 
3.062600e-01 7.969640e+02 
3.075000e-01 7.923075e+02 
3.087000e-01 7.878453e+02 
3.099100e-01 7.833895e+02 
3.111200e-01 7.789804e+02 
3.123100e-01 7.746920e+02 
3.135300e-01 7.703374e+02 
3.147300e-01 7.660951e+02 
3.159900e-01 7.616837e+02 
3.171800e-01 7.575634e+02 
3.183700e-01 7.534852e+02 
3.196300e-01 7.492081e+02 
3.208400e-01 7.451400e+02 
3.220300e-01 7.411761e+02 
3.232000e-01 7.373227e+02 
3.244300e-01 7.333121e+02 
3.256700e-01 7.293070e+02 
3.269200e-01 7.253076e+02 
3.280800e-01 7.216300e+02 
3.292500e-01 7.179652e+02 
3.304800e-01 7.141509e+02 
3.317100e-01 7.103716e+02 
3.328900e-01 7.067784e+02 
3.340700e-01 7.032167e+02 
3.353600e-01 6.993717e+02 
3.365300e-01 6.959208e+02 
3.377100e-01 6.924704e+02 
3.389200e-01 6.889632e+02 
3.401600e-01 6.854010e+02 
3.413700e-01 6.819683e+02 
3.425300e-01 6.787142e+02 
3.437700e-01 6.752657e+02 
3.449800e-01 6.719301e+02 
3.461800e-01 6.686506e+02 
3.473600e-01 6.654589e+02 
3.485800e-01 6.622012e+02 
3.498100e-01 6.589452e+02 
3.510200e-01 6.557697e+02 
3.522000e-01 6.526988e+02 
3.533900e-01 6.496276e+02 
3.546400e-01 6.464471e+02 
3.558400e-01 6.434209e+02 
3.570600e-01 6.403699e+02 
3.582700e-01 6.373693e+02 
3.595000e-01 6.343446e+02 
3.607100e-01 6.314039e+02 
3.618900e-01 6.285673e+02 
3.631200e-01 6.256347e+02 
3.643200e-01 6.227972e+02 
3.655500e-01 6.199125e+02 
3.667300e-01 6.171676e+02 
3.679500e-01 6.143702e+02 
3.691900e-01 6.115504e+02 
3.703600e-01 6.089110e+02 
3.715700e-01 6.062029e+02 
3.727700e-01 6.035386e+02 
3.739900e-01 6.008579e+02 
3.752000e-01 5.982321e+02 
3.763900e-01 5.956699e+02 
3.775800e-01 5.931276e+02 
3.788200e-01 5.904993e+02 
3.800300e-01 5.879550e+02 
3.812100e-01 5.854995e+02 
3.824200e-01 5.830053e+02 
3.836100e-01 5.805712e+02 
3.848600e-01 5.780342e+02 
3.860400e-01 5.756579e+02 
3.872400e-01 5.732596e+02 
3.884600e-01 5.708499e+02 
3.896500e-01 5.685211e+02 
3.908700e-01 5.661516e+02 
3.920600e-01 5.638579e+02 
3.933100e-01 5.614669e+02 
3.945300e-01 5.591512e+02 
3.957200e-01 5.569179e+02 
3.969300e-01 5.546663e+02 
3.981700e-01 5.523763e+02 
3.993500e-01 5.502133e+02 
4.094840e-01 5.322722e+02 
4.272360e-01 5.035299e+02 
4.454600e-01 4.769555e+02 
4.630560e-01 4.536961e+02 
4.804610e-01 4.326962e+02 
4.980690e-01 4.132209e+02 
5.159230e-01 3.950908e+02 
5.317440e-01 3.802372e+02 
5.489640e-01 3.652520e+02 
5.671990e-01 3.506117e+02 
5.838690e-01 3.382114e+02 
6.018840e-01 3.257761e+02 
6.202330e-01 3.140491e+02 
6.379250e-01 3.035383e+02 
6.545410e-01 2.943448e+02 
6.714560e-01 2.855588e+02 
6.892080e-01 2.769358e+02 
7.066010e-01 2.690098e+02 
7.240540e-01 2.615291e+02 
7.420450e-01 2.542763e+02 
7.593780e-01 2.476812e+02 
7.764720e-01 2.415170e+02 
7.942840e-01 2.354300e+02 
8.116170e-01 2.298013e+02 
8.288310e-01 2.244782e+02 
8.462240e-01 2.193424e+02 
8.631980e-01 2.145457e+02 
8.810700e-01 2.097126e+02 
8.989410e-01 2.050853e+02 
9.166330e-01 2.006866e+02 
9.345640e-01 1.964030e+02 
9.515980e-01 1.924813e+02 
9.688720e-01 1.886435e+02 
9.865640e-01 1.848451e+02 
1.031870e+00 1.756995e+02 
1.063490e+00 1.697398e+02 
1.097920e+00 1.636261e+02 
1.134370e+00 1.575110e+02 
1.167730e+00 1.522230e+02 
1.203830e+00 1.467876e+02 
1.240470e+00 1.415728e+02 
1.275790e+00 1.367844e+02 
1.309140e+00 1.324940e+02 
1.342970e+00 1.283160e+02 
1.378420e+00 1.241534e+02 
1.413200e+00 1.202484e+02 
1.448110e+00 1.164976e+02 
1.484090e+00 1.128122e+02 
1.518820e+00 1.094035e+02 
1.552880e+00 1.061992e+02 
1.588630e+00 1.029745e+02 
1.623230e+00 9.998740e+01 
1.657720e+00 9.712897e+01 
1.692450e+00 9.437288e+01 
1.726400e+00 9.177070e+01 
1.762200e+00 8.913310e+01 
1.797880e+00 8.661490e+01 
1.833270e+00 8.420939e+01 
1.869070e+00 8.187298e+01 
1.903200e+00 7.972988e+01 
1.937740e+00 7.763931e+01 
1.973190e+00 7.556968e+01 
2.007440e+00 7.364476e+01 
2.042160e+00 7.176480e+01 
2.077900e+00 6.989347e+01 
2.112390e+00 6.815678e+01 
2.146220e+00 6.650354e+01 
2.181600e+00 6.483660e+01 
2.216930e+00 6.323077e+01 
2.250760e+00 6.174200e+01 
2.286500e+00 6.022070e+01 
2.321770e+00 5.877295e+01 
2.355950e+00 5.741776e+01 
2.391280e+00 5.605715e+01 
2.426240e+00 5.475446e+01 
2.460670e+00 5.351270e+01 
2.495640e+00 5.229165e+01 
2.531080e+00 5.109272e+01 
2.566220e+00 4.993964e+01 
2.600830e+00 4.883983e+01 
2.635080e+00 4.778599e+01 
2.670340e+00 4.672984e+01 
2.705970e+00 4.569670e+01 
2.740040e+00 4.473896e+01 
2.774520e+00 4.379575e+01 
2.809730e+00 4.286106e+01 
2.844390e+00 4.196837e+01 
2.879960e+00 4.107817e+01 
2.914860e+00 4.022931e+01 
2.949410e+00 3.941305e+01 
2.984440e+00 3.860793e+01 
3.019760e+00 3.781982e+01 
3.054730e+00 3.706217e+01 
3.089030e+00 3.633669e+01 
3.124060e+00 3.561671e+01 
3.159560e+00 3.490760e+01 
3.194710e+00 3.422318e+01 
3.229010e+00 3.357334e+01 
3.263320e+00 3.294070e+01 
3.297930e+00 3.231933e+01 
3.332830e+00 3.170845e+01 
3.368040e+00 3.110811e+01 
3.403300e+00 3.052266e+01 
3.438450e+00 2.995378e+01 
3.473060e+00 2.940827e+01 
3.508440e+00 2.886507e+01 
3.543110e+00 2.834638e+01 
3.577470e+00 2.784370e+01 
3.613040e+00 2.733661e+01 
3.648120e+00 2.684911e+01 
3.682910e+00 2.637761e+01 
3.718050e+00 2.591282e+01 
3.753320e+00 2.545774e+01 
3.787980e+00 2.502121e+01 
3.822290e+00 2.459955e+01 
3.857020e+00 2.418302e+01 
3.891920e+00 2.377395e+01 
3.926650e+00 2.337559e+01 
3.961970e+00 2.298022e+01 
3.997360e+00 2.259382e+01 
4.031670e+00 2.222785e+01 
4.066330e+00 2.186627e+01 
4.101420e+00 2.150859e+01 
4.136200e+00 2.116238e+01 
4.170810e+00 2.082560e+01 
4.206250e+00 2.048813e+01 
4.241580e+00 2.015923e+01 
4.276300e+00 1.984328e+01 
4.310970e+00 1.953472e+01 
4.346120e+00 1.922879e+01 
4.380600e+00 1.893532e+01 
4.414730e+00 1.865095e+01 
4.450350e+00 1.836058e+01 
4.485320e+00 1.808159e+01 
4.519810e+00 1.781235e+01 
4.555430e+00 1.754016e+01 
4.590870e+00 1.727517e+01 
4.625480e+00 1.702195e+01 
4.659910e+00 1.677512e+01 
4.695230e+00 1.652726e+01 
4.729960e+00 1.628850e+01 
4.764450e+00 1.605621e+01 
4.799530e+00 1.582483e+01 
4.834910e+00 1.559611e+01 
4.869700e+00 1.537597e+01 
4.904370e+00 1.516089e+01 
4.939450e+00 1.494759e+01 
4.973940e+00 1.474220e+01 
5.008430e+00 1.454068e+01 
5.043810e+00 1.433810e+01 
5.078840e+00 1.414146e+01 
5.113500e+00 1.395053e+01 
5.148890e+00 1.375966e+01 
5.184210e+00 1.357276e+01 
5.219060e+00 1.339186e+01 
5.253660e+00 1.321580e+01 
5.288570e+00 1.304138e+01 
5.323420e+00 1.287060e+01 
5.358440e+00 1.270230e+01 
5.393590e+00 1.253640e+01 
5.428310e+00 1.237574e+01 
5.462800e+00 1.221908e+01 
5.497640e+00 1.206359e+01 
5.532670e+00 1.191028e+01 
5.567280e+00 1.176151e+01 
5.602000e+00 1.161482e+01 
5.637270e+00 1.146872e+01 
5.672410e+00 1.132573e+01 
5.707020e+00 1.118727e+01 
5.742040e+00 1.104987e+01 
5.777430e+00 1.091342e+01 
5.812210e+00 1.078155e+01 
5.846820e+00 1.065278e+01 
5.881610e+00 1.052553e+01 
5.916510e+00 1.039995e+01 
5.951600e+00 1.027605e+01 
5.986560e+00 1.015475e+01 
6.021830e+00 1.003434e+01 
6.056490e+00 9.918129e+00 
6.091160e+00 9.803904e+00 
6.125830e+00 9.691464e+00 
6.161090e+00 9.579029e+00 
6.195760e+00 9.470466e+00 
6.230420e+00 9.363603e+00 
6.265690e+00 9.256554e+00 
6.300950e+00 9.151578e+00 
6.335620e+00 9.049935e+00 
6.370880e+00 8.948132e+00 
6.405550e+00 8.849806e+00 
6.440220e+00 8.753051e+00 
6.475480e+00 8.656120e+00 
6.510150e+00 8.562332e+00 
6.544810e+00 8.470178e+00 
6.580080e+00 8.377782e+00 
6.614750e+00 8.288289e+00 
6.649410e+00 8.200447e+00 
6.684080e+00 8.113908e+00 
6.719340e+00 8.027165e+00 
6.754010e+00 7.943187e+00 
6.788680e+00 7.860607e+00 
6.823940e+00 7.777815e+00 
6.859800e+00 7.694824e+00 
6.894470e+00 7.615960e+00 
6.929140e+00 7.538275e+00 
6.963800e+00 7.461685e+00 
6.999070e+00 7.384845e+00 
7.033730e+00 7.310638e+00 
7.068400e+00 7.237418e+00 
7.103660e+00 7.163971e+00 
7.138330e+00 7.092838e+00 
7.173600e+00 7.021668e+00 
7.208260e+00 6.952671e+00 
7.243530e+00 6.883400e+00 
7.277600e+00 6.817524e+00 
7.312860e+00 6.750385e+00 
7.348120e+00 6.684140e+00 
7.382790e+00 6.619860e+00 
7.417460e+00 6.556579e+00 
7.452720e+00 6.493146e+00 
7.487390e+00 6.431583e+00 
7.522650e+00 6.369781e+00 
7.557320e+00 6.309971e+00 
7.591990e+00 6.250986e+00 
7.627250e+00 6.191760e+00 
7.662510e+00 6.133293e+00 
7.697180e+00 6.076709e+00 
7.731850e+00 6.020901e+00 
7.766510e+00 5.965800e+00 
7.801180e+00 5.911364e+00 
7.836440e+00 5.856843e+00 
7.871110e+00 5.803991e+00 
7.906380e+00 5.750885e+00 
7.941040e+00 5.699337e+00 
7.976310e+00 5.647609e+00 
8.011570e+00 5.596634e+00 
8.046240e+00 5.547117e+00 
8.080900e+00 5.498205e+00 
8.115570e+00 5.449906e+00 
8.150830e+00 5.401544e+00 
8.185500e+00 5.354557e+00 
8.220770e+00 5.307322e+00 
8.255430e+00 5.261452e+00 
8.290100e+00 5.216271e+00 
8.324770e+00 5.171633e+00 
8.359430e+00 5.127523e+00 
8.394700e+00 5.083157e+00 
8.429960e+00 5.039419e+00 
8.464630e+00 4.997008e+00 
8.499890e+00 4.954369e+00 
8.534560e+00 4.912922e+00 
8.569200e+00 4.871978e+00 
