# Parameters:
# omega_b = 0.021894, omega_m = 0.140118, n_s = 1.001181, h = 61.377953, w = -1.000000, sigma_8 = 0.855906
# z = 0.900000
#
# k[1/Mpc] # P(k):
8.694000e-04 6.503810e+03 
2.077466e-03 1.433690e+04 
3.285532e-03 2.063185e+04 
4.493598e-03 2.557920e+04 
5.701664e-03 2.934293e+04 
6.909730e-03 3.208615e+04 
8.117797e-03 3.401205e+04 
9.325863e-03 3.522613e+04 
1.053393e-02 3.584069e+04 
1.174199e-02 3.596416e+04 
1.295006e-02 3.566339e+04 
1.415813e-02 3.503133e+04 
1.536619e-02 3.415023e+04 
1.657426e-02 3.308365e+04 
1.778233e-02 3.192515e+04 
1.899039e-02 3.077670e+04 
2.019846e-02 2.959511e+04 
2.140652e-02 2.836668e+04 
2.261459e-02 2.713440e+04 
2.382266e-02 2.594361e+04 
2.503072e-02 2.481720e+04 
2.623879e-02 2.376356e+04 
2.744685e-02 2.278602e+04 
2.865492e-02 2.188915e+04 
2.986299e-02 2.107104e+04 
3.100100e-02 2.037085e+04 
3.220400e-02 1.970035e+04 
3.288100e-02 1.935354e+04 
3.424300e-02 1.871527e+04 
3.555100e-02 1.816654e+04 
3.686000e-02 1.767277e+04 
3.795000e-02 1.729605e+04 
3.929100e-02 1.686910e+04 
4.039800e-02 1.653891e+04 
4.164000e-02 1.618588e+04 
4.294400e-02 1.582520e+04 
4.415000e-02 1.549940e+04 
4.542900e-02 1.515050e+04 
4.660900e-02 1.482906e+04 
4.782300e-02 1.448558e+04 
4.892900e-02 1.416906e+04 
5.031200e-02 1.376340e+04 
5.155900e-02 1.338705e+04 
5.238100e-02 1.313536e+04 
5.378200e-02 1.270196e+04 
5.513400e-02 1.227885e+04 
5.627600e-02 1.192073e+04 
5.735300e-02 1.158557e+04 
5.870100e-02 1.117236e+04 
5.988700e-02 1.081816e+04 
6.113500e-02 1.045670e+04 
6.225900e-02 1.014298e+04 
6.340100e-02 9.837815e+03 
6.480200e-02 9.483541e+03 
6.601100e-02 9.197270e+03 
6.725500e-02 8.922469e+03 
6.829100e-02 8.710576e+03 
6.958600e-02 8.464345e+03 
7.071100e-02 8.268897e+03 
7.192300e-02 8.075906e+03 
7.307400e-02 7.908598e+03 
7.412300e-02 7.768641e+03 
7.550400e-02 7.602314e+03 
7.663100e-02 7.478180e+03 
7.791200e-02 7.350785e+03 
7.912700e-02 7.240094e+03 
8.027600e-02 7.141725e+03 
8.138400e-02 7.051060e+03 
8.272200e-02 6.945307e+03 
8.406100e-02 6.841351e+03 
8.534100e-02 6.740742e+03 
8.653800e-02 6.643653e+03 
8.759800e-02 6.555650e+03 
8.900300e-02 6.434805e+03 
9.009000e-02 6.336959e+03 
9.113300e-02 6.238779e+03 
9.239600e-02 6.117519e+03 
9.358000e-02 6.000325e+03 
9.496100e-02 5.859262e+03 
9.608400e-02 5.744031e+03 
9.727500e-02 5.622328e+03 
9.852600e-02 5.493382e+03 
9.973800e-02 5.371349e+03 
1.009000e-01 5.257060e+03 
1.020900e-01 5.143569e+03 
1.034000e-01 5.023545e+03 
1.046000e-01 4.918145e+03 
1.057200e-01 4.825549e+03 
1.069100e-01 4.731210e+03 
1.082500e-01 4.632241e+03 
1.093900e-01 4.553384e+03 
1.105400e-01 4.477602e+03 
1.116900e-01 4.408028e+03 
1.129600e-01 4.334691e+03 
1.142000e-01 4.268698e+03 
1.153300e-01 4.211480e+03 
1.166400e-01 4.149015e+03 
1.177800e-01 4.097621e+03 
1.190000e-01 4.044693e+03 
1.201200e-01 3.998180e+03 
1.213400e-01 3.948874e+03 
1.227100e-01 3.895050e+03 
1.238900e-01 3.849668e+03 
1.250700e-01 3.804631e+03 
1.263200e-01 3.757537e+03 
1.275500e-01 3.711170e+03 
1.287500e-01 3.666222e+03 
1.299900e-01 3.619644e+03 
1.311300e-01 3.576905e+03 
1.323500e-01 3.530858e+03 
1.335900e-01 3.484228e+03 
1.347100e-01 3.441848e+03 
1.359800e-01 3.394158e+03 
1.372100e-01 3.347651e+03 
1.384300e-01 3.302094e+03 
1.395700e-01 3.259348e+03 
1.407700e-01 3.215200e+03 
1.420300e-01 3.168849e+03 
1.432800e-01 3.123891e+03 
1.444500e-01 3.082210e+03 
1.456300e-01 3.041039e+03 
1.468900e-01 2.998221e+03 
1.480500e-01 2.959687e+03 
1.491700e-01 2.923504e+03 
1.503800e-01 2.885565e+03 
1.516400e-01 2.847076e+03 
1.528200e-01 2.812641e+03 
1.540200e-01 2.778304e+03 
1.551900e-01 2.746454e+03 
1.564300e-01 2.713588e+03 
1.576600e-01 2.682136e+03 
1.588700e-01 2.652400e+03 
1.600900e-01 2.623027e+03 
1.612700e-01 2.595958e+03 
1.625400e-01 2.567368e+03 
1.637600e-01 2.540702e+03 
1.649500e-01 2.515327e+03 
1.662200e-01 2.488752e+03 
1.674000e-01 2.464574e+03 
1.685000e-01 2.442412e+03 
1.697500e-01 2.417522e+03 
1.710300e-01 2.392366e+03 
1.722200e-01 2.369392e+03 
1.734400e-01 2.345753e+03 
1.746400e-01 2.322879e+03 
1.758700e-01 2.299661e+03 
1.770900e-01 2.276676e+03 
1.782700e-01 2.254816e+03 
1.794600e-01 2.232866e+03 
1.807000e-01 2.210197e+03 
1.819100e-01 2.188447e+03 
1.830100e-01 2.168743e+03 
1.842200e-01 2.147366e+03 
1.855000e-01 2.125127e+03 
1.867000e-01 2.104513e+03 
1.879200e-01 2.083892e+03 
1.890900e-01 2.064440e+03 
1.902800e-01 2.045018e+03 
1.915200e-01 2.025101e+03 
1.926900e-01 2.006648e+03 
1.939000e-01 1.988007e+03 
1.951700e-01 1.968752e+03 
1.963100e-01 1.951792e+03 
1.975100e-01 1.934363e+03 
1.987800e-01 1.916202e+03 
2.000100e-01 1.898965e+03 
2.012500e-01 1.882035e+03 
2.023400e-01 1.867366e+03 
2.036100e-01 1.850559e+03 
2.048900e-01 1.834036e+03 
2.060400e-01 1.819408e+03 
2.072200e-01 1.804616e+03 
2.084200e-01 1.789902e+03 
2.096900e-01 1.774556e+03 
2.109200e-01 1.759911e+03 
2.121100e-01 1.745940e+03 
2.132700e-01 1.732507e+03 
2.145200e-01 1.718233e+03 
2.157200e-01 1.704678e+03 
2.168800e-01 1.691732e+03 
2.180700e-01 1.678627e+03 
2.193400e-01 1.664767e+03 
2.206000e-01 1.651085e+03 
2.217500e-01 1.638766e+03 
2.229500e-01 1.626079e+03 
2.241400e-01 1.613441e+03 
2.253500e-01 1.600754e+03 
2.264900e-01 1.588956e+03 
2.277100e-01 1.576350e+03 
2.289900e-01 1.563147e+03 
2.301500e-01 1.551339e+03 
2.313600e-01 1.539178e+03 
2.325600e-01 1.526986e+03 
2.337700e-01 1.514851e+03 
2.350000e-01 1.502677e+03 
2.362000e-01 1.490840e+03 
2.374100e-01 1.478925e+03 
2.386500e-01 1.466872e+03 
2.399100e-01 1.454785e+03 
2.410400e-01 1.443936e+03 
2.422500e-01 1.432442e+03 
2.435000e-01 1.420720e+03 
2.447300e-01 1.409323e+03 
2.458700e-01 1.398846e+03 
2.470600e-01 1.388040e+03 
2.483300e-01 1.376652e+03 
2.495600e-01 1.365784e+03 
2.507600e-01 1.355340e+03 
2.519600e-01 1.345021e+03 
2.532200e-01 1.334320e+03 
2.543700e-01 1.324763e+03 
2.555500e-01 1.315133e+03 
2.568000e-01 1.305054e+03 
2.580100e-01 1.295414e+03 
2.592400e-01 1.285886e+03 
2.604100e-01 1.276995e+03 
2.616100e-01 1.267981e+03 
2.628400e-01 1.258848e+03 
2.640600e-01 1.250066e+03 
2.652200e-01 1.241878e+03 
2.664300e-01 1.233431e+03 
2.676500e-01 1.225011e+03 
2.688400e-01 1.217032e+03 
2.700700e-01 1.208964e+03 
2.712400e-01 1.201374e+03 
2.724800e-01 1.193419e+03 
2.736700e-01 1.185959e+03 
2.748800e-01 1.178548e+03 
2.761000e-01 1.171158e+03 
2.773200e-01 1.163848e+03 
2.785400e-01 1.156660e+03 
2.797000e-01 1.149989e+03 
2.808900e-01 1.143217e+03 
2.821400e-01 1.136178e+03 
2.833900e-01 1.129220e+03 
2.845500e-01 1.122909e+03 
2.857800e-01 1.116287e+03 
2.870300e-01 1.109628e+03 
2.882100e-01 1.103407e+03 
2.893900e-01 1.097286e+03 
2.906300e-01 1.090940e+03 
2.918900e-01 1.084558e+03 
2.930500e-01 1.078743e+03 
2.942500e-01 1.072793e+03 
2.954200e-01 1.067066e+03 
2.966500e-01 1.061105e+03 
2.978900e-01 1.055157e+03 
2.990400e-01 1.049695e+03 
3.002700e-01 1.043919e+03 
3.015100e-01 1.038159e+03 
3.026800e-01 1.032777e+03 
3.038500e-01 1.027447e+03 
3.050300e-01 1.022121e+03 
3.062600e-01 1.016630e+03 
3.075000e-01 1.011148e+03 
3.087000e-01 1.005895e+03 
3.099100e-01 1.000649e+03 
3.111200e-01 9.954551e+02 
3.123100e-01 9.903999e+02 
3.135300e-01 9.852662e+02 
3.147300e-01 9.802643e+02 
3.159900e-01 9.750626e+02 
3.171800e-01 9.701996e+02 
3.183700e-01 9.653833e+02 
3.196300e-01 9.603317e+02 
3.208400e-01 9.555264e+02 
3.220300e-01 9.508438e+02 
3.232000e-01 9.462863e+02 
3.244300e-01 9.415406e+02 
3.256700e-01 9.368009e+02 
3.269200e-01 9.320677e+02 
3.280800e-01 9.277148e+02 
3.292500e-01 9.233719e+02 
3.304800e-01 9.188500e+02 
3.317100e-01 9.143692e+02 
3.328900e-01 9.101087e+02 
3.340700e-01 9.058851e+02 
3.353600e-01 9.013191e+02 
3.365300e-01 8.972185e+02 
3.377100e-01 8.931181e+02 
3.389200e-01 8.889499e+02 
3.401600e-01 8.847160e+02 
3.413700e-01 8.806318e+02 
3.425300e-01 8.767571e+02 
3.437700e-01 8.726507e+02 
3.449800e-01 8.686785e+02 
3.461800e-01 8.647727e+02 
3.473600e-01 8.609694e+02 
3.485800e-01 8.570828e+02 
3.498100e-01 8.531981e+02 
3.510200e-01 8.494090e+02 
3.522000e-01 8.457446e+02 
3.533900e-01 8.420795e+02 
3.546400e-01 8.382780e+02 
3.558400e-01 8.346602e+02 
3.570600e-01 8.310126e+02 
3.582700e-01 8.274250e+02 
3.595000e-01 8.238085e+02 
3.607100e-01 8.202894e+02 
3.618900e-01 8.168925e+02 
3.631200e-01 8.133805e+02 
3.643200e-01 8.099821e+02 
3.655500e-01 8.065272e+02 
3.667300e-01 8.032393e+02 
3.679500e-01 7.998837e+02 
3.691900e-01 7.965009e+02 
3.703600e-01 7.933345e+02 
3.715700e-01 7.900855e+02 
3.727700e-01 7.868888e+02 
3.739900e-01 7.836712e+02 
3.752000e-01 7.805172e+02 
3.763900e-01 7.774395e+02 
3.775800e-01 7.743855e+02 
3.788200e-01 7.712283e+02 
3.800300e-01 7.681717e+02 
3.812100e-01 7.652194e+02 
3.824200e-01 7.622189e+02 
3.836100e-01 7.592906e+02 
3.848600e-01 7.562385e+02 
3.860400e-01 7.533796e+02 
3.872400e-01 7.504940e+02 
3.884600e-01 7.475924e+02 
3.896500e-01 7.447872e+02 
3.908700e-01 7.419330e+02 
3.920600e-01 7.391699e+02 
3.933100e-01 7.362896e+02 
3.945300e-01 7.334999e+02 
3.957200e-01 7.308066e+02 
3.969300e-01 7.280905e+02 
3.981700e-01 7.253279e+02 
3.993500e-01 7.227186e+02 
4.094840e-01 7.010519e+02 
4.272360e-01 6.662534e+02 
4.454600e-01 6.339610e+02 
4.630560e-01 6.055883e+02 
4.804610e-01 5.798777e+02 
4.980690e-01 5.559459e+02 
5.159230e-01 5.335923e+02 
5.317440e-01 5.152243e+02 
5.489640e-01 4.966426e+02 
5.671990e-01 4.784436e+02 
5.838690e-01 4.629962e+02 
6.018840e-01 4.474688e+02 
6.202330e-01 4.327875e+02 
6.379250e-01 4.196106e+02 
6.545410e-01 4.080547e+02 
6.714560e-01 3.969840e+02 
6.892080e-01 3.861010e+02 
7.066010e-01 3.760625e+02 
7.240540e-01 3.665686e+02 
7.420450e-01 3.573278e+02 
7.593780e-01 3.488967e+02 
7.764720e-01 3.409906e+02 
7.942840e-01 3.331570e+02 
8.116170e-01 3.258774e+02 
8.288310e-01 3.189635e+02 
8.462240e-01 3.122648e+02 
8.631980e-01 3.059792e+02 
8.810700e-01 2.996197e+02 
8.989410e-01 2.935027e+02 
9.166330e-01 2.876610e+02 
9.345640e-01 2.819450e+02 
9.515980e-01 2.766855e+02 
9.688720e-01 2.715150e+02 
9.865640e-01 2.663712e+02 
1.031870e+00 2.539020e+02 
1.063490e+00 2.456969e+02 
1.097920e+00 2.372203e+02 
1.134370e+00 2.286804e+02 
1.167730e+00 2.212448e+02 
1.203830e+00 2.135524e+02 
1.240470e+00 2.061337e+02 
1.275790e+00 1.992802e+02 
1.309140e+00 1.931193e+02 
1.342970e+00 1.870875e+02 
1.378420e+00 1.810602e+02 
1.413200e+00 1.753853e+02 
1.448110e+00 1.699173e+02 
1.484090e+00 1.645310e+02 
1.518820e+00 1.595372e+02 
1.552880e+00 1.548321e+02 
1.588630e+00 1.500898e+02 
1.623230e+00 1.456886e+02 
1.657720e+00 1.414717e+02 
1.692450e+00 1.374014e+02 
1.726400e+00 1.335524e+02 
1.762200e+00 1.296467e+02 
1.797880e+00 1.259166e+02 
1.833270e+00 1.223501e+02 
1.869070e+00 1.188832e+02 
1.903200e+00 1.157034e+02 
1.937740e+00 1.126002e+02 
1.973190e+00 1.095260e+02 
2.007440e+00 1.066672e+02 
2.042160e+00 1.038752e+02 
2.077900e+00 1.010953e+02 
2.112390e+00 9.851630e+01 
2.146220e+00 9.606060e+01 
2.181600e+00 9.358523e+01 
2.216930e+00 9.120132e+01 
2.250760e+00 8.899157e+01 
2.286500e+00 8.673401e+01 
2.321770e+00 8.458641e+01 
2.355950e+00 8.257720e+01 
2.391280e+00 8.056028e+01 
2.426240e+00 7.863071e+01 
2.460670e+00 7.679235e+01 
2.495640e+00 7.498517e+01 
2.531080e+00 7.321138e+01 
2.566220e+00 7.150686e+01 
2.600830e+00 6.988214e+01 
2.635080e+00 6.832626e+01 
2.670340e+00 6.676827e+01 
2.705970e+00 6.524502e+01 
2.740040e+00 6.383359e+01 
2.774520e+00 6.244408e+01 
2.809730e+00 6.106865e+01 
2.844390e+00 5.975604e+01 
2.879960e+00 5.844815e+01 
2.914860e+00 5.720176e+01 
2.949410e+00 5.600402e+01 
2.984440e+00 5.482398e+01 
3.019760e+00 5.366942e+01 
3.054730e+00 5.255999e+01 
3.089030e+00 5.149926e+01 
3.124060e+00 5.044703e+01 
3.159560e+00 4.941118e+01 
3.194710e+00 4.841265e+01 
3.229010e+00 4.746519e+01 
3.263320e+00 4.654404e+01 
3.297930e+00 4.563965e+01 
3.332830e+00 4.475099e+01 
3.368040e+00 4.387859e+01 
3.403300e+00 4.302857e+01 
3.438450e+00 4.220362e+01 
3.473060e+00 4.141298e+01 
3.508440e+00 4.062642e+01 
3.543110e+00 3.987573e+01 
3.577470e+00 3.914924e+01 
3.613040e+00 3.841671e+01 
3.648120e+00 3.771306e+01 
3.682910e+00 3.703295e+01 
3.718050e+00 3.636322e+01 
3.753320e+00 3.570798e+01 
3.787980e+00 3.508007e+01 
3.822290e+00 3.447398e+01 
3.857020e+00 3.387585e+01 
3.891920e+00 3.328882e+01 
3.926650e+00 3.271774e+01 
3.961970e+00 3.215128e+01 
3.997360e+00 3.159831e+01 
4.031670e+00 3.107479e+01 
4.066330e+00 3.055812e+01 
4.101420e+00 3.004715e+01 
4.136200e+00 2.955326e+01 
4.170810e+00 2.907291e+01 
4.206250e+00 2.859213e+01 
4.241580e+00 2.812373e+01 
4.276300e+00 2.767424e+01 
4.310970e+00 2.723556e+01 
4.346120e+00 2.680089e+01 
4.380600e+00 2.638432e+01 
4.414730e+00 2.598075e+01 
4.450350e+00 2.556928e+01 
4.485320e+00 2.517402e+01 
4.519810e+00 2.479292e+01 
4.555430e+00 2.440788e+01 
4.590870e+00 2.403321e+01 
4.625480e+00 2.367554e+01 
4.659910e+00 2.332695e+01 
4.695230e+00 2.297733e+01 
4.729960e+00 2.264064e+01 
4.764450e+00 2.231327e+01 
4.799530e+00 2.198748e+01 
4.834910e+00 2.166548e+01 
4.869700e+00 2.135591e+01 
4.904370e+00 2.105353e+01 
4.939450e+00 2.075379e+01 
4.973940e+00 2.046546e+01 
5.008430e+00 2.018259e+01 
5.043810e+00 1.989848e+01 
5.078840e+00 1.962284e+01 
5.113500e+00 1.935524e+01 
5.148890e+00 1.908803e+01 
5.184210e+00 1.882639e+01 
5.219060e+00 1.857324e+01 
5.253660e+00 1.832712e+01 
5.288570e+00 1.808329e+01 
5.323420e+00 1.784469e+01 
5.358440e+00 1.760971e+01 
5.393590e+00 1.737808e+01 
5.428310e+00 1.715394e+01 
5.462800e+00 1.693549e+01 
5.497640e+00 1.671866e+01 
5.532670e+00 1.650505e+01 
5.567280e+00 1.629783e+01 
5.602000e+00 1.609351e+01 
5.637270e+00 1.589017e+01 
5.672410e+00 1.569121e+01 
5.707020e+00 1.549855e+01 
5.742040e+00 1.530752e+01 
5.777430e+00 1.511786e+01 
5.812210e+00 1.493457e+01 
5.846820e+00 1.475570e+01 
5.881610e+00 1.457897e+01 
5.916510e+00 1.440457e+01 
5.951600e+00 1.423260e+01 
5.986560e+00 1.406428e+01 
6.021830e+00 1.389720e+01 
6.056490e+00 1.373601e+01 
6.091160e+00 1.357763e+01 
6.125830e+00 1.342173e+01 
6.161090e+00 1.326587e+01 
6.195760e+00 1.311543e+01 
6.230420e+00 1.296735e+01 
6.265690e+00 1.281902e+01 
6.300950e+00 1.267365e+01 
6.335620e+00 1.253290e+01 
6.370880e+00 1.239193e+01 
6.405550e+00 1.225580e+01 
6.440220e+00 1.212187e+01 
6.475480e+00 1.198770e+01 
6.510150e+00 1.185789e+01 
6.544810e+00 1.173039e+01 
6.580080e+00 1.160256e+01 
6.614750e+00 1.147873e+01 
6.649410e+00 1.135723e+01 
6.684080e+00 1.123753e+01 
6.719340e+00 1.111755e+01 
6.754010e+00 1.100140e+01 
6.788680e+00 1.088719e+01 
6.823940e+00 1.077269e+01 
6.859800e+00 1.065791e+01 
6.894470e+00 1.054886e+01 
6.929140e+00 1.044143e+01 
6.963800e+00 1.033552e+01 
6.999070e+00 1.022927e+01 
7.033730e+00 1.012667e+01 
7.068400e+00 1.002543e+01 
7.103660e+00 9.923874e+00 
7.138330e+00 9.825517e+00 
7.173600e+00 9.727102e+00 
7.208260e+00 9.631689e+00 
7.243530e+00 9.535898e+00 
7.277600e+00 9.444795e+00 
7.312860e+00 9.351939e+00 
7.348120e+00 9.260319e+00 
7.382790e+00 9.171415e+00 
7.417460e+00 9.083882e+00 
7.452720e+00 8.996131e+00 
7.487390e+00 8.910967e+00 
7.522650e+00 8.825471e+00 
7.557320e+00 8.742711e+00 
7.591990e+00 8.661083e+00 
7.627250e+00 8.579123e+00 
7.662510e+00 8.498211e+00 
7.697180e+00 8.419890e+00 
7.731850e+00 8.342634e+00 
7.766510e+00 8.266358e+00 
7.801180e+00 8.191002e+00 
7.836440e+00 8.115506e+00 
7.871110e+00 8.042308e+00 
7.906380e+00 7.968759e+00 
7.941040e+00 7.897366e+00 
7.976310e+00 7.825704e+00 
8.011570e+00 7.755060e+00 
8.046240e+00 7.686437e+00 
8.080900e+00 7.618652e+00 
8.115570e+00 7.551711e+00 
8.150830e+00 7.484656e+00 
8.185500e+00 7.419507e+00 
8.220770e+00 7.354016e+00 
8.255430e+00 7.290416e+00 
8.290100e+00 7.227728e+00 
8.324770e+00 7.165789e+00 
8.359430e+00 7.104583e+00 
8.394700e+00 7.043023e+00 
8.429960e+00 6.982313e+00 
8.464630e+00 6.923424e+00 
8.499890e+00 6.864219e+00 
8.534560e+00 6.806669e+00 
8.569200e+00 6.749818e+00 
