# Parameters:
# omega_b = 0.022933, omega_m = 0.138189, n_s = 1.031102, h = 59.488189, w = -1.000000, sigma_8 = 0.879528
# z = 0.900000
#
# k[1/Mpc] # P(k):
8.694000e-04 6.545715e+03 
2.077466e-03 1.477387e+04 
3.285532e-03 2.150872e+04 
4.493598e-03 2.688470e+04 
5.701664e-03 3.101091e+04 
6.909730e-03 3.404809e+04 
8.117797e-03 3.621064e+04 
9.325863e-03 3.760600e+04 
1.053393e-02 3.834751e+04 
1.174199e-02 3.854456e+04 
1.295006e-02 3.826725e+04 
1.415813e-02 3.761681e+04 
1.536619e-02 3.668299e+04 
1.657426e-02 3.553586e+04 
1.778233e-02 3.428058e+04 
1.899039e-02 3.305116e+04 
2.019846e-02 3.180571e+04 
2.140652e-02 3.050995e+04 
2.261459e-02 2.920454e+04 
2.382266e-02 2.794087e+04 
2.503072e-02 2.674492e+04 
2.623879e-02 2.562616e+04 
2.744685e-02 2.458856e+04 
2.865492e-02 2.363701e+04 
2.986299e-02 2.276947e+04 
3.100100e-02 2.202737e+04 
3.220400e-02 2.131697e+04 
3.288100e-02 2.094954e+04 
3.424300e-02 2.027304e+04 
3.555100e-02 1.969084e+04 
3.686000e-02 1.916600e+04 
3.795000e-02 1.876472e+04 
3.929100e-02 1.830843e+04 
4.039800e-02 1.795440e+04 
4.164000e-02 1.757481e+04 
4.294400e-02 1.718561e+04 
4.415000e-02 1.683347e+04 
4.542900e-02 1.645584e+04 
4.660900e-02 1.610787e+04 
4.782300e-02 1.573638e+04 
4.892900e-02 1.539446e+04 
5.031200e-02 1.495703e+04 
5.155900e-02 1.455210e+04 
5.238100e-02 1.428175e+04 
5.378200e-02 1.381695e+04 
5.513400e-02 1.336399e+04 
5.627600e-02 1.298104e+04 
5.735300e-02 1.262285e+04 
5.870100e-02 1.218133e+04 
5.988700e-02 1.180274e+04 
6.113500e-02 1.141612e+04 
6.225900e-02 1.108016e+04 
6.340100e-02 1.075291e+04 
6.480200e-02 1.037236e+04 
6.601100e-02 1.006413e+04 
6.725500e-02 9.767611e+03 
6.829100e-02 9.538437e+03 
6.958600e-02 9.271663e+03 
7.071100e-02 9.059483e+03 
7.192300e-02 8.849656e+03 
7.307400e-02 8.667535e+03 
7.412300e-02 8.515078e+03 
7.550400e-02 8.333838e+03 
7.663100e-02 8.198601e+03 
7.791200e-02 8.059964e+03 
7.912700e-02 7.939726e+03 
8.027600e-02 7.833046e+03 
8.138400e-02 7.734860e+03 
8.272200e-02 7.620496e+03 
8.406100e-02 7.508176e+03 
8.534100e-02 7.399453e+03 
8.653800e-02 7.294400e+03 
8.759800e-02 7.199055e+03 
8.900300e-02 7.067896e+03 
9.009000e-02 6.961478e+03 
9.113300e-02 6.854504e+03 
9.239600e-02 6.722238e+03 
9.358000e-02 6.594259e+03 
9.496100e-02 6.440113e+03 
9.608400e-02 6.314191e+03 
9.727500e-02 6.181207e+03 
9.852600e-02 6.040497e+03 
9.973800e-02 5.907452e+03 
1.009000e-01 5.782950e+03 
1.020900e-01 5.659650e+03 
1.034000e-01 5.529401e+03 
1.046000e-01 5.415183e+03 
1.057200e-01 5.315093e+03 
1.069100e-01 5.213187e+03 
1.082500e-01 5.106483e+03 
1.093900e-01 5.021531e+03 
1.105400e-01 4.939930e+03 
1.116900e-01 4.865031e+03 
1.129600e-01 4.786058e+03 
1.142000e-01 4.714898e+03 
1.153300e-01 4.653116e+03 
1.166400e-01 4.585537e+03 
1.177800e-01 4.529745e+03 
1.190000e-01 4.472196e+03 
1.201200e-01 4.421348e+03 
1.213400e-01 4.367397e+03 
1.227100e-01 4.308133e+03 
1.238900e-01 4.258105e+03 
1.250700e-01 4.208273e+03 
1.263200e-01 4.156129e+03 
1.275500e-01 4.104709e+03 
1.287500e-01 4.054879e+03 
1.299900e-01 4.003268e+03 
1.311300e-01 3.955987e+03 
1.323500e-01 3.905161e+03 
1.335900e-01 3.853820e+03 
1.347100e-01 3.807322e+03 
1.359800e-01 3.755124e+03 
1.372100e-01 3.704468e+03 
1.384300e-01 3.654943e+03 
1.395700e-01 3.608708e+03 
1.407700e-01 3.560977e+03 
1.420300e-01 3.511135e+03 
1.432800e-01 3.462781e+03 
1.444500e-01 3.418117e+03 
1.456300e-01 3.373992e+03 
1.468900e-01 3.328115e+03 
1.480500e-01 3.286826e+03 
1.491700e-01 3.248010e+03 
1.503800e-01 3.207253e+03 
1.516400e-01 3.165860e+03 
1.528200e-01 3.128652e+03 
1.540200e-01 3.091546e+03 
1.551900e-01 3.056918e+03 
1.564300e-01 3.021130e+03 
1.576600e-01 2.986761e+03 
1.588700e-01 2.954123e+03 
1.600900e-01 2.921871e+03 
1.612700e-01 2.891948e+03 
1.625400e-01 2.860341e+03 
1.637600e-01 2.830790e+03 
1.649500e-01 2.802626e+03 
1.662200e-01 2.773130e+03 
1.674000e-01 2.746290e+03 
1.685000e-01 2.721686e+03 
1.697500e-01 2.694097e+03 
1.710300e-01 2.666254e+03 
1.722200e-01 2.640826e+03 
1.734400e-01 2.614799e+03 
1.746400e-01 2.589619e+03 
1.758700e-01 2.564110e+03 
1.770900e-01 2.538955e+03 
1.782700e-01 2.515030e+03 
1.794600e-01 2.491082e+03 
1.807000e-01 2.466399e+03 
1.819100e-01 2.442716e+03 
1.830100e-01 2.421324e+03 
1.842200e-01 2.398126e+03 
1.855000e-01 2.373991e+03 
1.867000e-01 2.351653e+03 
1.879200e-01 2.329306e+03 
1.890900e-01 2.308223e+03 
1.902800e-01 2.287165e+03 
1.915200e-01 2.265568e+03 
1.926900e-01 2.245549e+03 
1.939000e-01 2.225299e+03 
1.951700e-01 2.204378e+03 
1.963100e-01 2.185937e+03 
1.975100e-01 2.166947e+03 
1.987800e-01 2.147159e+03 
2.000100e-01 2.128361e+03 
2.012500e-01 2.109861e+03 
2.023400e-01 2.093830e+03 
2.036100e-01 2.075454e+03 
2.048900e-01 2.057349e+03 
2.060400e-01 2.041319e+03 
2.072200e-01 2.025107e+03 
2.084200e-01 2.008945e+03 
2.096900e-01 1.992088e+03 
2.109200e-01 1.976001e+03 
2.121100e-01 1.960621e+03 
2.132700e-01 1.945832e+03 
2.145200e-01 1.930115e+03 
2.157200e-01 1.915166e+03 
2.168800e-01 1.900875e+03 
2.180700e-01 1.886410e+03 
2.193400e-01 1.871090e+03 
2.206000e-01 1.855931e+03 
2.217500e-01 1.842280e+03 
2.229500e-01 1.828222e+03 
2.241400e-01 1.814151e+03 
2.253500e-01 1.800024e+03 
2.264900e-01 1.786885e+03 
2.277100e-01 1.772802e+03 
2.289900e-01 1.758001e+03 
2.301500e-01 1.744766e+03 
2.313600e-01 1.731132e+03 
2.325600e-01 1.717364e+03 
2.337700e-01 1.703661e+03 
2.350000e-01 1.689913e+03 
2.362000e-01 1.676503e+03 
2.374100e-01 1.662950e+03 
2.386500e-01 1.649241e+03 
2.399100e-01 1.635496e+03 
2.410400e-01 1.623092e+03 
2.422500e-01 1.609945e+03 
2.435000e-01 1.596537e+03 
2.447300e-01 1.583494e+03 
2.458700e-01 1.571469e+03 
2.470600e-01 1.559067e+03 
2.483300e-01 1.546000e+03 
2.495600e-01 1.533526e+03 
2.507600e-01 1.521537e+03 
2.519600e-01 1.509693e+03 
2.532200e-01 1.497411e+03 
2.543700e-01 1.486462e+03 
2.555500e-01 1.475444e+03 
2.568000e-01 1.463911e+03 
2.580100e-01 1.452883e+03 
2.592400e-01 1.442024e+03 
2.604100e-01 1.431912e+03 
2.616100e-01 1.421658e+03 
2.628400e-01 1.411270e+03 
2.640600e-01 1.401337e+03 
2.652200e-01 1.392097e+03 
2.664300e-01 1.382566e+03 
2.676500e-01 1.373066e+03 
2.688400e-01 1.364109e+03 
2.700700e-01 1.355083e+03 
2.712400e-01 1.346592e+03 
2.724800e-01 1.337692e+03 
2.736700e-01 1.329380e+03 
2.748800e-01 1.321157e+03 
2.761000e-01 1.312956e+03 
2.773200e-01 1.304845e+03 
2.785400e-01 1.296886e+03 
2.797000e-01 1.289534e+03 
2.808900e-01 1.282070e+03 
2.821400e-01 1.274313e+03 
2.833900e-01 1.266645e+03 
2.845500e-01 1.259726e+03 
2.857800e-01 1.252464e+03 
2.870300e-01 1.245163e+03 
2.882100e-01 1.238342e+03 
2.893900e-01 1.231645e+03 
2.906300e-01 1.224710e+03 
2.918900e-01 1.217738e+03 
2.930500e-01 1.211383e+03 
2.942500e-01 1.204884e+03 
2.954200e-01 1.198638e+03 
2.966500e-01 1.192138e+03 
2.978900e-01 1.185651e+03 
2.990400e-01 1.179694e+03 
3.002700e-01 1.173400e+03 
3.015100e-01 1.167125e+03 
3.026800e-01 1.161263e+03 
3.038500e-01 1.155456e+03 
3.050300e-01 1.149655e+03 
3.062600e-01 1.143675e+03 
3.075000e-01 1.137707e+03 
3.087000e-01 1.131987e+03 
3.099100e-01 1.126274e+03 
3.111200e-01 1.120619e+03 
3.123100e-01 1.115115e+03 
3.135300e-01 1.109526e+03 
3.147300e-01 1.104080e+03 
3.159900e-01 1.098416e+03 
3.171800e-01 1.093121e+03 
3.183700e-01 1.087876e+03 
3.196300e-01 1.082374e+03 
3.208400e-01 1.077141e+03 
3.220300e-01 1.072041e+03 
3.232000e-01 1.067076e+03 
3.244300e-01 1.061906e+03 
3.256700e-01 1.056742e+03 
3.269200e-01 1.051585e+03 
3.280800e-01 1.046842e+03 
3.292500e-01 1.042109e+03 
3.304800e-01 1.037180e+03 
3.317100e-01 1.032295e+03 
3.328900e-01 1.027651e+03 
3.340700e-01 1.023047e+03 
3.353600e-01 1.018068e+03 
3.365300e-01 1.013595e+03 
3.377100e-01 1.009122e+03 
3.389200e-01 1.004575e+03 
3.401600e-01 9.999570e+02 
3.413700e-01 9.955000e+02 
3.425300e-01 9.912703e+02 
3.437700e-01 9.867876e+02 
3.449800e-01 9.824513e+02 
3.461800e-01 9.781876e+02 
3.473600e-01 9.740347e+02 
3.485800e-01 9.697889e+02 
3.498100e-01 9.655449e+02 
3.510200e-01 9.614054e+02 
3.522000e-01 9.574022e+02 
3.533900e-01 9.533981e+02 
3.546400e-01 9.492416e+02 
3.558400e-01 9.452858e+02 
3.570600e-01 9.412975e+02 
3.582700e-01 9.373747e+02 
3.595000e-01 9.334201e+02 
3.607100e-01 9.295705e+02 
3.618900e-01 9.258532e+02 
3.631200e-01 9.220100e+02 
3.643200e-01 9.182910e+02 
3.655500e-01 9.145101e+02 
3.667300e-01 9.109121e+02 
3.679500e-01 9.072367e+02 
3.691900e-01 9.035315e+02 
3.703600e-01 9.000633e+02 
3.715700e-01 8.965047e+02 
3.727700e-01 8.930034e+02 
3.739900e-01 8.894782e+02 
3.752000e-01 8.860210e+02 
3.763900e-01 8.826475e+02 
3.775800e-01 8.793000e+02 
3.788200e-01 8.758393e+02 
3.800300e-01 8.724889e+02 
3.812100e-01 8.692512e+02 
3.824200e-01 8.659595e+02 
3.836100e-01 8.627470e+02 
3.848600e-01 8.593988e+02 
3.860400e-01 8.562624e+02 
3.872400e-01 8.530969e+02 
3.884600e-01 8.499120e+02 
3.896500e-01 8.468323e+02 
3.908700e-01 8.436988e+02 
3.920600e-01 8.406653e+02 
3.933100e-01 8.375031e+02 
3.945300e-01 8.344405e+02 
3.957200e-01 8.314817e+02 
3.969300e-01 8.284972e+02 
3.981700e-01 8.254617e+02 
3.993500e-01 8.225945e+02 
4.094840e-01 7.987755e+02 
4.272360e-01 7.604720e+02 
4.454600e-01 7.248740e+02 
4.630560e-01 6.935521e+02 
4.804610e-01 6.651358e+02 
4.980690e-01 6.386547e+02 
5.159230e-01 6.138969e+02 
5.317440e-01 5.935351e+02 
5.489640e-01 5.729191e+02 
5.671990e-01 5.527126e+02 
5.838690e-01 5.355489e+02 
6.018840e-01 5.182798e+02 
6.202330e-01 5.019322e+02 
6.379250e-01 4.872525e+02 
6.545410e-01 4.743607e+02 
6.714560e-01 4.619951e+02 
6.892080e-01 4.498294e+02 
7.066010e-01 4.385855e+02 
7.240540e-01 4.279412e+02 
7.420450e-01 4.175579e+02 
7.593780e-01 4.080676e+02 
7.764720e-01 3.991531e+02 
7.942840e-01 3.903050e+02 
8.116170e-01 3.820612e+02 
8.288310e-01 3.742142e+02 
8.462240e-01 3.665959e+02 
8.631980e-01 3.594301e+02 
8.810700e-01 3.521661e+02 
8.989410e-01 3.451636e+02 
9.166330e-01 3.384613e+02 
9.345640e-01 3.318887e+02 
9.515980e-01 3.258265e+02 
9.688720e-01 3.198546e+02 
9.865640e-01 3.138996e+02 
1.031870e+00 2.994227e+02 
1.063490e+00 2.898563e+02 
1.097920e+00 2.799443e+02 
1.134370e+00 2.699302e+02 
1.167730e+00 2.611867e+02 
1.203830e+00 2.521200e+02 
1.240470e+00 2.433589e+02 
1.275790e+00 2.352479e+02 
1.309140e+00 2.279489e+02 
1.342970e+00 2.207902e+02 
1.378420e+00 2.136299e+02 
1.413200e+00 2.068809e+02 
1.448110e+00 2.003726e+02 
1.484090e+00 1.939566e+02 
1.518820e+00 1.880052e+02 
1.552880e+00 1.823951e+02 
1.588630e+00 1.767393e+02 
1.623230e+00 1.714878e+02 
1.657720e+00 1.664556e+02 
1.692450e+00 1.615983e+02 
1.726400e+00 1.570039e+02 
1.762200e+00 1.523410e+02 
1.797880e+00 1.478893e+02 
1.833270e+00 1.436324e+02 
1.869070e+00 1.394945e+02 
1.903200e+00 1.357008e+02 
1.937740e+00 1.319991e+02 
1.973190e+00 1.283320e+02 
2.007440e+00 1.249233e+02 
2.042160e+00 1.215953e+02 
2.077900e+00 1.182824e+02 
2.112390e+00 1.152103e+02 
2.146220e+00 1.122855e+02 
2.181600e+00 1.093386e+02 
2.216930e+00 1.065018e+02 
2.250760e+00 1.038731e+02 
2.286500e+00 1.011883e+02 
2.321770e+00 9.863548e+01 
2.355950e+00 9.624833e+01 
2.391280e+00 9.385283e+01 
2.426240e+00 9.156241e+01 
2.460670e+00 8.938124e+01 
2.495640e+00 8.723773e+01 
2.531080e+00 8.513462e+01 
2.566220e+00 8.311490e+01 
2.600830e+00 8.119072e+01 
2.635080e+00 7.934888e+01 
2.670340e+00 7.750576e+01 
2.705970e+00 7.570443e+01 
2.740040e+00 7.403588e+01 
2.774520e+00 7.239372e+01 
2.809730e+00 7.076942e+01 
2.844390e+00 6.922014e+01 
2.879960e+00 6.767726e+01 
2.914860e+00 6.620753e+01 
2.949410e+00 6.479574e+01 
2.984440e+00 6.340585e+01 
3.019760e+00 6.204639e+01 
3.054730e+00 6.074047e+01 
3.089030e+00 5.949303e+01 
3.124060e+00 5.825592e+01 
3.159560e+00 5.703846e+01 
3.194710e+00 5.586572e+01 
3.229010e+00 5.475342e+01 
3.263320e+00 5.367285e+01 
3.297930e+00 5.261223e+01 
3.332830e+00 5.157039e+01 
3.368040e+00 5.054821e+01 
3.403300e+00 4.955274e+01 
3.438450e+00 4.858732e+01 
3.473060e+00 4.766233e+01 
3.508440e+00 4.674264e+01 
3.543110e+00 4.586514e+01 
3.577470e+00 4.501660e+01 
3.613040e+00 4.416122e+01 
3.648120e+00 4.333993e+01 
3.682910e+00 4.254642e+01 
3.718050e+00 4.176550e+01 
3.753320e+00 4.100178e+01 
3.787980e+00 4.027030e+01 
3.822290e+00 3.956453e+01 
3.857020e+00 3.886839e+01 
3.891920e+00 3.818542e+01 
3.926650e+00 3.752138e+01 
3.961970e+00 3.686293e+01 
3.997360e+00 3.622053e+01 
4.031670e+00 3.561248e+01 
4.066330e+00 3.501277e+01 
4.101420e+00 3.441978e+01 
4.136200e+00 3.384698e+01 
4.170810e+00 3.328995e+01 
4.206250e+00 3.273275e+01 
4.241580e+00 3.219001e+01 
4.276300e+00 3.166949e+01 
4.310970e+00 3.116167e+01 
4.346120e+00 3.065866e+01 
4.380600e+00 3.017682e+01 
4.414730e+00 2.971009e+01 
4.450350e+00 2.923457e+01 
4.485320e+00 2.877783e+01 
4.519810e+00 2.833770e+01 
4.555430e+00 2.789314e+01 
4.590870e+00 2.746068e+01 
4.625480e+00 2.704804e+01 
4.659910e+00 2.664592e+01 
4.695230e+00 2.624285e+01 
4.729960e+00 2.585476e+01 
4.764450e+00 2.547754e+01 
4.799530e+00 2.510231e+01 
4.834910e+00 2.473148e+01 
4.869700e+00 2.437515e+01 
4.904370e+00 2.402717e+01 
4.939450e+00 2.368231e+01 
4.973940e+00 2.335073e+01 
5.008430e+00 2.302547e+01 
5.043810e+00 2.269891e+01 
5.078840e+00 2.238218e+01 
5.113500e+00 2.207470e+01 
5.148890e+00 2.176786e+01 
5.184210e+00 2.146745e+01 
5.219060e+00 2.117683e+01 
5.253660e+00 2.089442e+01 
5.288570e+00 2.061465e+01 
5.323420e+00 2.034097e+01 
5.358440e+00 2.007151e+01 
5.393590e+00 1.980593e+01 
5.428310e+00 1.954902e+01 
5.462800e+00 1.929870e+01 
5.497640e+00 1.905024e+01 
5.532670e+00 1.880558e+01 
5.567280e+00 1.856828e+01 
5.602000e+00 1.833430e+01 
5.637270e+00 1.810155e+01 
5.672410e+00 1.787382e+01 
5.707020e+00 1.765332e+01 
5.742040e+00 1.743479e+01 
5.777430e+00 1.721783e+01 
5.812210e+00 1.700818e+01 
5.846820e+00 1.680366e+01 
5.881610e+00 1.660161e+01 
5.916510e+00 1.640222e+01 
5.951600e+00 1.620567e+01 
5.986560e+00 1.601332e+01 
6.021830e+00 1.582240e+01 
6.056490e+00 1.563825e+01 
6.091160e+00 1.545735e+01 
6.125830e+00 1.527928e+01 
6.161090e+00 1.510127e+01 
6.195760e+00 1.492951e+01 
6.230420e+00 1.476044e+01 
6.265690e+00 1.459108e+01 
6.300950e+00 1.442518e+01 
6.335620e+00 1.426454e+01 
6.370880e+00 1.410365e+01 
6.405550e+00 1.394832e+01 
6.440220e+00 1.379551e+01 
6.475480e+00 1.364243e+01 
6.510150e+00 1.349434e+01 
6.544810e+00 1.334892e+01 
6.580080e+00 1.320312e+01 
6.614750e+00 1.306189e+01 
6.649410e+00 1.292334e+01 
6.684080e+00 1.278684e+01 
6.719340e+00 1.265003e+01 
6.754010e+00 1.251760e+01 
6.788680e+00 1.238739e+01 
6.823940e+00 1.225686e+01 
6.859800e+00 1.212601e+01 
6.894470e+00 1.200170e+01 
6.929140e+00 1.187925e+01 
6.963800e+00 1.175853e+01 
6.999070e+00 1.163742e+01 
7.033730e+00 1.152049e+01 
7.068400e+00 1.140512e+01 
7.103660e+00 1.128938e+01 
7.138330e+00 1.117730e+01 
7.173600e+00 1.106515e+01 
7.208260e+00 1.095642e+01 
7.243530e+00 1.084727e+01 
7.277600e+00 1.074346e+01 
7.312860e+00 1.063765e+01 
7.348120e+00 1.053326e+01 
7.382790e+00 1.043196e+01 
7.417460e+00 1.033223e+01 
7.452720e+00 1.023224e+01 
7.487390e+00 1.013521e+01 
7.522650e+00 1.003780e+01 
7.557320e+00 9.943498e+00 
7.591990e+00 9.850491e+00 
7.627250e+00 9.757107e+00 
7.662510e+00 9.664918e+00 
7.697180e+00 9.575680e+00 
7.731850e+00 9.487655e+00 
7.766510e+00 9.400747e+00 
7.801180e+00 9.314890e+00 
7.836440e+00 9.228867e+00 
7.871110e+00 9.145460e+00 
7.906380e+00 9.061654e+00 
7.941040e+00 8.980307e+00 
7.976310e+00 8.898647e+00 
8.011570e+00 8.818143e+00 
8.046240e+00 8.739943e+00 
8.080900e+00 8.662700e+00 
8.115570e+00 8.586416e+00 
8.150830e+00 8.509995e+00 
8.185500e+00 8.435747e+00 
8.220770e+00 8.361109e+00 
8.255430e+00 8.288629e+00 
8.290100e+00 8.217176e+00 
8.324770e+00 8.146578e+00 
8.359430e+00 8.076815e+00 
8.394700e+00 8.006650e+00 
8.429960e+00 7.937448e+00 
8.464630e+00 7.870313e+00 
8.499890e+00 7.802820e+00 
8.534560e+00 7.737214e+00 
8.569200e+00 7.672407e+00 
