# Parameters:
# omega_b = 0.021972, omega_m = 0.151142, n_s = 0.955512, h = 57.834646, w = -1.000000, sigma_8 = 0.762992
# z = 0.900000
#
# k[1/Mpc] # P(k):
8.694000e-04 5.278964e+03 
2.077466e-03 1.126776e+04 
3.285532e-03 1.601484e+04 
4.493598e-03 1.974003e+04 
5.701664e-03 2.258517e+04 
6.909730e-03 2.467674e+04 
8.117797e-03 2.616610e+04 
9.325863e-03 2.713187e+04 
1.053393e-02 2.765686e+04 
1.174199e-02 2.782064e+04 
1.295006e-02 2.767131e+04 
1.415813e-02 2.727548e+04 
1.536619e-02 2.669210e+04 
1.657426e-02 2.596708e+04 
1.778233e-02 2.517354e+04 
1.899039e-02 2.438942e+04 
2.019846e-02 2.356933e+04 
2.140652e-02 2.269424e+04 
2.261459e-02 2.179742e+04 
2.382266e-02 2.091534e+04 
2.503072e-02 2.006676e+04 
2.623879e-02 1.925924e+04 
2.744685e-02 1.849488e+04 
2.865492e-02 1.778093e+04 
2.986299e-02 1.711830e+04 
3.100100e-02 1.654070e+04 
3.220400e-02 1.597869e+04 
3.288100e-02 1.568413e+04 
3.424300e-02 1.513655e+04 
3.555100e-02 1.466154e+04 
3.686000e-02 1.423221e+04 
3.795000e-02 1.390500e+04 
3.929100e-02 1.353736e+04 
4.039800e-02 1.325716e+04 
4.164000e-02 1.296254e+04 
4.294400e-02 1.267034e+04 
4.415000e-02 1.241191e+04 
4.542900e-02 1.214298e+04 
4.660900e-02 1.189942e+04 
4.782300e-02 1.164417e+04 
4.892900e-02 1.141074e+04 
5.031200e-02 1.111302e+04 
5.155900e-02 1.083659e+04 
5.238100e-02 1.065092e+04 
5.378200e-02 1.032911e+04 
5.513400e-02 1.001111e+04 
5.627600e-02 9.738439e+03 
5.735300e-02 9.480167e+03 
5.870100e-02 9.157383e+03 
5.988700e-02 8.876906e+03 
6.113500e-02 8.586904e+03 
6.225900e-02 8.331816e+03 
6.340100e-02 8.080677e+03 
6.480200e-02 7.785964e+03 
6.601100e-02 7.544616e+03 
6.725500e-02 7.310446e+03 
6.829100e-02 7.127864e+03 
6.958600e-02 6.914164e+03 
7.071100e-02 6.742957e+03 
7.192300e-02 6.572692e+03 
7.307400e-02 6.424158e+03 
7.412300e-02 6.299320e+03 
7.550400e-02 6.150365e+03 
7.663100e-02 6.039101e+03 
7.791200e-02 5.925211e+03 
7.912700e-02 5.827167e+03 
8.027600e-02 5.741158e+03 
8.138400e-02 5.663093e+03 
8.272200e-02 5.574004e+03 
8.406100e-02 5.488746e+03 
8.534100e-02 5.408992e+03 
8.653800e-02 5.334169e+03 
8.759800e-02 5.267510e+03 
8.900300e-02 5.177542e+03 
9.009000e-02 5.105689e+03 
9.113300e-02 5.034055e+03 
9.239600e-02 4.945749e+03 
9.358000e-02 4.860323e+03 
9.496100e-02 4.756727e+03 
9.608400e-02 4.671355e+03 
9.727500e-02 4.580523e+03 
9.852600e-02 4.482150e+03 
9.973800e-02 4.387864e+03 
1.009000e-01 4.298578e+03 
1.020900e-01 4.207262e+03 
1.034000e-01 4.109393e+03 
1.046000e-01 4.022091e+03 
1.057200e-01 3.943166e+03 
1.069100e-01 3.862002e+03 
1.082500e-01 3.774704e+03 
1.093900e-01 3.704018e+03 
1.105400e-01 3.635437e+03 
1.116900e-01 3.571282e+03 
1.129600e-01 3.503395e+03 
1.142000e-01 3.441804e+03 
1.153300e-01 3.388528e+03 
1.166400e-01 3.330535e+03 
1.177800e-01 3.283538e+03 
1.190000e-01 3.235488e+03 
1.201200e-01 3.194757e+03 
1.213400e-01 3.151855e+03 
1.227100e-01 3.107574e+03 
1.238900e-01 3.070762e+03 
1.250700e-01 3.035901e+03 
1.263200e-01 2.999994e+03 
1.275500e-01 2.965842e+03 
1.287500e-01 2.933111e+03 
1.299900e-01 2.899776e+03 
1.311300e-01 2.869203e+03 
1.323500e-01 2.836281e+03 
1.335900e-01 2.802614e+03 
1.347100e-01 2.771589e+03 
1.359800e-01 2.736206e+03 
1.372100e-01 2.700779e+03 
1.384300e-01 2.665610e+03 
1.395700e-01 2.631526e+03 
1.407700e-01 2.596176e+03 
1.420300e-01 2.557566e+03 
1.432800e-01 2.520125e+03 
1.444500e-01 2.484157e+03 
1.456300e-01 2.448645e+03 
1.468900e-01 2.411110e+03 
1.480500e-01 2.377165e+03 
1.491700e-01 2.345167e+03 
1.503800e-01 2.311454e+03 
1.516400e-01 2.277298e+03 
1.528200e-01 2.246855e+03 
1.540200e-01 2.216517e+03 
1.551900e-01 2.188739e+03 
1.564300e-01 2.160175e+03 
1.576600e-01 2.133126e+03 
1.588700e-01 2.107899e+03 
1.600900e-01 2.083020e+03 
1.612700e-01 2.060721e+03 
1.625400e-01 2.037171e+03 
1.637600e-01 2.015546e+03 
1.649500e-01 1.995167e+03 
1.662200e-01 1.973878e+03 
1.674000e-01 1.954806e+03 
1.685000e-01 1.937323e+03 
1.697500e-01 1.917754e+03 
1.710300e-01 1.898040e+03 
1.722200e-01 1.880035e+03 
1.734400e-01 1.861441e+03 
1.746400e-01 1.843446e+03 
1.758700e-01 1.825113e+03 
1.770900e-01 1.806827e+03 
1.782700e-01 1.789436e+03 
1.794600e-01 1.771817e+03 
1.807000e-01 1.753516e+03 
1.819100e-01 1.735960e+03 
1.830100e-01 1.719846e+03 
1.842200e-01 1.702330e+03 
1.855000e-01 1.684100e+03 
1.867000e-01 1.666984e+03 
1.879200e-01 1.649867e+03 
1.890900e-01 1.633696e+03 
1.902800e-01 1.617423e+03 
1.915200e-01 1.600738e+03 
1.926900e-01 1.585263e+03 
1.939000e-01 1.569568e+03 
1.951700e-01 1.553359e+03 
1.963100e-01 1.539083e+03 
1.975100e-01 1.524406e+03 
1.987800e-01 1.509116e+03 
2.000100e-01 1.494620e+03 
2.012500e-01 1.480416e+03 
2.023400e-01 1.468110e+03 
2.036100e-01 1.454033e+03 
2.048900e-01 1.440270e+03 
2.060400e-01 1.428087e+03 
2.072200e-01 1.415778e+03 
2.084200e-01 1.403638e+03 
2.096900e-01 1.390978e+03 
2.109200e-01 1.378898e+03 
2.121100e-01 1.367492e+03 
2.132700e-01 1.356532e+03 
2.145200e-01 1.344886e+03 
2.157200e-01 1.333908e+03 
2.168800e-01 1.323461e+03 
2.180700e-01 1.312886e+03 
2.193400e-01 1.301747e+03 
2.206000e-01 1.290834e+03 
2.217500e-01 1.281009e+03 
2.229500e-01 1.270890e+03 
2.241400e-01 1.260921e+03 
2.253500e-01 1.250918e+03 
2.264900e-01 1.241614e+03 
2.277100e-01 1.231732e+03 
2.289900e-01 1.221443e+03 
2.301500e-01 1.212242e+03 
2.313600e-01 1.202767e+03 
2.325600e-01 1.193374e+03 
2.337700e-01 1.184025e+03 
2.350000e-01 1.174645e+03 
2.362000e-01 1.165566e+03 
2.374100e-01 1.156476e+03 
2.386500e-01 1.147281e+03 
2.399100e-01 1.138059e+03 
2.410400e-01 1.129833e+03 
2.422500e-01 1.121125e+03 
2.435000e-01 1.112243e+03 
2.447300e-01 1.103611e+03 
2.458700e-01 1.095696e+03 
2.470600e-01 1.087532e+03 
2.483300e-01 1.078927e+03 
2.495600e-01 1.070706e+03 
2.507600e-01 1.062796e+03 
2.519600e-01 1.054980e+03 
2.532200e-01 1.046874e+03 
2.543700e-01 1.039601e+03 
2.555500e-01 1.032251e+03 
2.568000e-01 1.024557e+03 
2.580100e-01 1.017198e+03 
2.592400e-01 1.009866e+03 
2.604100e-01 1.002998e+03 
2.616100e-01 9.960337e+02 
2.628400e-01 9.889778e+02 
2.640600e-01 9.821241e+02 
2.652200e-01 9.757056e+02 
2.664300e-01 9.690847e+02 
2.676500e-01 9.624847e+02 
2.688400e-01 9.561717e+02 
2.700700e-01 9.497521e+02 
2.712400e-01 9.437130e+02 
2.724800e-01 9.373830e+02 
2.736700e-01 9.314077e+02 
2.748800e-01 9.254311e+02 
2.761000e-01 9.194711e+02 
2.773200e-01 9.135762e+02 
2.785400e-01 9.077610e+02 
2.797000e-01 9.023229e+02 
2.808900e-01 8.968020e+02 
2.821400e-01 8.910649e+02 
2.833900e-01 8.853917e+02 
2.845500e-01 8.802067e+02 
2.857800e-01 8.747657e+02 
2.870300e-01 8.692955e+02 
2.882100e-01 8.641855e+02 
2.893900e-01 8.591390e+02 
2.906300e-01 8.538969e+02 
2.918900e-01 8.486268e+02 
2.930500e-01 8.438245e+02 
2.942500e-01 8.389068e+02 
2.954200e-01 8.341620e+02 
2.966500e-01 8.292238e+02 
2.978900e-01 8.242966e+02 
2.990400e-01 8.197723e+02 
3.002700e-01 8.149807e+02 
3.015100e-01 8.101992e+02 
3.026800e-01 8.057320e+02 
3.038500e-01 8.013075e+02 
3.050300e-01 7.968877e+02 
3.062600e-01 7.923232e+02 
3.075000e-01 7.877675e+02 
3.087000e-01 7.834018e+02 
3.099100e-01 7.790421e+02 
3.111200e-01 7.747250e+02 
3.123100e-01 7.705206e+02 
3.135300e-01 7.662511e+02 
3.147300e-01 7.620917e+02 
3.159900e-01 7.577663e+02 
3.171800e-01 7.537212e+02 
3.183700e-01 7.497141e+02 
3.196300e-01 7.455116e+02 
3.208400e-01 7.415142e+02 
3.220300e-01 7.376192e+02 
3.232000e-01 7.338283e+02 
3.244300e-01 7.298810e+02 
3.256700e-01 7.259389e+02 
3.269200e-01 7.220025e+02 
3.280800e-01 7.183827e+02 
3.292500e-01 7.147711e+02 
3.304800e-01 7.110107e+02 
3.317100e-01 7.072848e+02 
3.328900e-01 7.037424e+02 
3.340700e-01 7.002308e+02 
3.353600e-01 6.964365e+02 
3.365300e-01 6.930297e+02 
3.377100e-01 6.896234e+02 
3.389200e-01 6.861610e+02 
3.401600e-01 6.826443e+02 
3.413700e-01 6.792541e+02 
3.425300e-01 6.760394e+02 
3.437700e-01 6.726326e+02 
3.449800e-01 6.693374e+02 
3.461800e-01 6.660976e+02 
3.473600e-01 6.629441e+02 
3.485800e-01 6.597246e+02 
3.498100e-01 6.565068e+02 
3.510200e-01 6.533685e+02 
3.522000e-01 6.503336e+02 
3.533900e-01 6.472983e+02 
3.546400e-01 6.441555e+02 
3.558400e-01 6.411650e+02 
3.570600e-01 6.381501e+02 
3.582700e-01 6.351850e+02 
3.595000e-01 6.321960e+02 
3.607100e-01 6.292908e+02 
3.618900e-01 6.264890e+02 
3.631200e-01 6.235924e+02 
3.643200e-01 6.207896e+02 
3.655500e-01 6.179403e+02 
3.667300e-01 6.152289e+02 
3.679500e-01 6.124680e+02 
3.691900e-01 6.096848e+02 
3.703600e-01 6.070798e+02 
3.715700e-01 6.044069e+02 
3.727700e-01 6.017772e+02 
3.739900e-01 5.991324e+02 
3.752000e-01 5.965435e+02 
3.763900e-01 5.940174e+02 
3.775800e-01 5.915108e+02 
3.788200e-01 5.889195e+02 
3.800300e-01 5.864109e+02 
3.812100e-01 5.839915e+02 
3.824200e-01 5.815352e+02 
3.836100e-01 5.791380e+02 
3.848600e-01 5.766395e+02 
3.860400e-01 5.742992e+02 
3.872400e-01 5.719372e+02 
3.884600e-01 5.695658e+02 
3.896500e-01 5.672747e+02 
3.908700e-01 5.649437e+02 
3.920600e-01 5.626871e+02 
3.933100e-01 5.603348e+02 
3.945300e-01 5.580565e+02 
3.957200e-01 5.558616e+02 
3.969300e-01 5.536493e+02 
3.981700e-01 5.513993e+02 
3.993500e-01 5.492741e+02 
4.094840e-01 5.316515e+02 
4.272360e-01 5.034535e+02 
4.454600e-01 4.773779e+02 
4.630560e-01 4.545337e+02 
4.804610e-01 4.338727e+02 
4.980690e-01 4.146760e+02 
5.159230e-01 3.967699e+02 
5.317440e-01 3.820798e+02 
5.489640e-01 3.672438e+02 
5.671990e-01 3.527387e+02 
5.838690e-01 3.404505e+02 
6.018840e-01 3.281307e+02 
6.202330e-01 3.165216e+02 
6.379250e-01 3.061196e+02 
6.545410e-01 2.970332e+02 
6.714560e-01 2.883560e+02 
6.892080e-01 2.798464e+02 
7.066010e-01 2.720350e+02 
7.240540e-01 2.646651e+02 
7.420450e-01 2.575278e+02 
7.593780e-01 2.510411e+02 
7.764720e-01 2.449800e+02 
7.942840e-01 2.389958e+02 
8.116170e-01 2.334637e+02 
8.288310e-01 2.282316e+02 
8.462240e-01 2.231816e+02 
8.631980e-01 2.184645e+02 
8.810700e-01 2.137081e+02 
8.989410e-01 2.091509e+02 
9.166330e-01 2.048157e+02 
9.345640e-01 2.005900e+02 
9.515980e-01 1.967180e+02 
9.688720e-01 1.929248e+02 
9.865640e-01 1.891659e+02 
1.031870e+00 1.800960e+02 
1.063490e+00 1.741689e+02 
1.097920e+00 1.680741e+02 
1.134370e+00 1.619618e+02 
1.167730e+00 1.566644e+02 
1.203830e+00 1.512031e+02 
1.240470e+00 1.459530e+02 
1.275790e+00 1.411192e+02 
1.309140e+00 1.367804e+02 
1.342970e+00 1.325445e+02 
1.378420e+00 1.283186e+02 
1.413200e+00 1.243462e+02 
1.448110e+00 1.205235e+02 
1.484090e+00 1.167629e+02 
1.518820e+00 1.132786e+02 
1.552880e+00 1.099981e+02 
1.588630e+00 1.066922e+02 
1.623230e+00 1.036271e+02 
1.657720e+00 1.006908e+02 
1.692450e+00 9.785613e+01 
1.726400e+00 9.517703e+01 
1.762200e+00 9.245965e+01 
1.797880e+00 8.986187e+01 
1.833270e+00 8.737907e+01 
1.869070e+00 8.496578e+01 
1.903200e+00 8.275020e+01 
1.937740e+00 8.058759e+01 
1.973190e+00 7.844576e+01 
2.007440e+00 7.645230e+01 
2.042160e+00 7.450407e+01 
2.077900e+00 7.256421e+01 
2.112390e+00 7.076270e+01 
2.146220e+00 6.904742e+01 
2.181600e+00 6.731704e+01 
2.216930e+00 6.564928e+01 
2.250760e+00 6.410275e+01 
2.286500e+00 6.252206e+01 
2.321770e+00 6.101726e+01 
2.355950e+00 5.960808e+01 
2.391280e+00 5.819303e+01 
2.426240e+00 5.683780e+01 
2.460670e+00 5.554572e+01 
2.495640e+00 5.427507e+01 
2.531080e+00 5.302736e+01 
2.566220e+00 5.182695e+01 
2.600830e+00 5.068176e+01 
2.635080e+00 4.958429e+01 
2.670340e+00 4.848409e+01 
2.705970e+00 4.740788e+01 
2.740040e+00 4.641027e+01 
2.774520e+00 4.542796e+01 
2.809730e+00 4.445419e+01 
2.844390e+00 4.352402e+01 
2.879960e+00 4.259634e+01 
2.914860e+00 4.171192e+01 
2.949410e+00 4.086149e+01 
2.984440e+00 4.002245e+01 
3.019760e+00 3.920128e+01 
3.054730e+00 3.841193e+01 
3.089030e+00 3.765593e+01 
3.124060e+00 3.690577e+01 
3.159560e+00 3.616704e+01 
3.194710e+00 3.545400e+01 
3.229010e+00 3.477698e+01 
3.263320e+00 3.411781e+01 
3.297930e+00 3.347046e+01 
3.332830e+00 3.283415e+01 
3.368040e+00 3.220890e+01 
3.403300e+00 3.159921e+01 
3.438450e+00 3.100675e+01 
3.473060e+00 3.043865e+01 
3.508440e+00 2.987304e+01 
3.543110e+00 2.933300e+01 
3.577470e+00 2.880969e+01 
3.613040e+00 2.828184e+01 
3.648120e+00 2.777450e+01 
3.682910e+00 2.728382e+01 
3.718050e+00 2.680017e+01 
3.753320e+00 2.632668e+01 
3.787980e+00 2.587253e+01 
3.822290e+00 2.543391e+01 
3.857020e+00 2.500068e+01 
3.891920e+00 2.457525e+01 
3.926650e+00 2.416101e+01 
3.961970e+00 2.374993e+01 
3.997360e+00 2.334828e+01 
4.031670e+00 2.296788e+01 
4.066330e+00 2.259208e+01 
4.101420e+00 2.222036e+01 
4.136200e+00 2.186070e+01 
4.170810e+00 2.151084e+01 
4.206250e+00 2.116039e+01 
4.241580e+00 2.081887e+01 
4.276300e+00 2.049082e+01 
4.310970e+00 2.017045e+01 
4.346120e+00 1.985287e+01 
4.380600e+00 1.954829e+01 
4.414730e+00 1.925317e+01 
4.450350e+00 1.895192e+01 
4.485320e+00 1.866250e+01 
4.519810e+00 1.838322e+01 
4.555430e+00 1.810093e+01 
4.590870e+00 1.782612e+01 
4.625480e+00 1.756358e+01 
4.659910e+00 1.730768e+01 
4.695230e+00 1.705079e+01 
4.729960e+00 1.680334e+01 
4.764450e+00 1.656263e+01 
4.799530e+00 1.632291e+01 
4.834910e+00 1.608596e+01 
4.869700e+00 1.585796e+01 
4.904370e+00 1.563521e+01 
4.939450e+00 1.541434e+01 
4.973940e+00 1.520170e+01 
5.008430e+00 1.499308e+01 
5.043810e+00 1.478341e+01 
5.078840e+00 1.457992e+01 
5.113500e+00 1.438234e+01 
5.148890e+00 1.418487e+01 
5.184210e+00 1.399151e+01 
5.219060e+00 1.380436e+01 
5.253660e+00 1.362230e+01 
5.288570e+00 1.344193e+01 
5.323420e+00 1.326536e+01 
5.358440e+00 1.309138e+01 
5.393590e+00 1.291988e+01 
5.428310e+00 1.275384e+01 
5.462800e+00 1.259194e+01 
5.497640e+00 1.243125e+01 
5.532670e+00 1.227285e+01 
5.567280e+00 1.211917e+01 
5.602000e+00 1.196763e+01 
5.637270e+00 1.181673e+01 
5.672410e+00 1.166906e+01 
5.707020e+00 1.152607e+01 
5.742040e+00 1.138421e+01 
5.777430e+00 1.124334e+01 
5.812210e+00 1.110720e+01 
5.846820e+00 1.097429e+01 
5.881610e+00 1.084295e+01 
5.916510e+00 1.071334e+01 
5.951600e+00 1.058549e+01 
5.986560e+00 1.046033e+01 
6.021830e+00 1.033610e+01 
6.056490e+00 1.021622e+01 
6.091160e+00 1.009840e+01 
6.125830e+00 9.982424e+00 
6.161090e+00 9.866459e+00 
6.195760e+00 9.754503e+00 
6.230420e+00 9.644301e+00 
6.265690e+00 9.533909e+00 
6.300950e+00 9.425690e+00 
6.335620e+00 9.320908e+00 
6.370880e+00 9.215961e+00 
6.405550e+00 9.114607e+00 
6.440220e+00 9.014876e+00 
6.475480e+00 8.914964e+00 
6.510150e+00 8.818300e+00 
6.544810e+00 8.723340e+00 
6.580080e+00 8.628131e+00 
6.614750e+00 8.535913e+00 
6.649410e+00 8.445412e+00 
6.684080e+00 8.356255e+00 
6.719340e+00 8.266889e+00 
6.754010e+00 8.180374e+00 
6.788680e+00 8.095306e+00 
6.823940e+00 8.010019e+00 
6.859800e+00 7.924528e+00 
6.894470e+00 7.843301e+00 
6.929140e+00 7.763292e+00 
6.963800e+00 7.684410e+00 
6.999070e+00 7.605273e+00 
7.033730e+00 7.528859e+00 
7.068400e+00 7.453463e+00 
7.103660e+00 7.377831e+00 
7.138330e+00 7.304586e+00 
7.173600e+00 7.231308e+00 
7.208260e+00 7.160267e+00 
7.243530e+00 7.088944e+00 
7.277600e+00 7.021119e+00 
7.312860e+00 6.951995e+00 
7.348120e+00 6.883791e+00 
7.382790e+00 6.817611e+00 
7.417460e+00 6.752465e+00 
7.452720e+00 6.687165e+00 
7.487390e+00 6.623790e+00 
7.522650e+00 6.560169e+00 
7.557320e+00 6.498601e+00 
7.591990e+00 6.437883e+00 
7.627250e+00 6.376917e+00 
7.662510e+00 6.316732e+00 
7.697180e+00 6.258489e+00 
7.731850e+00 6.201044e+00 
7.766510e+00 6.144328e+00 
7.801180e+00 6.088297e+00 
7.836440e+00 6.032180e+00 
7.871110e+00 5.977784e+00 
7.906380e+00 5.923127e+00 
7.941040e+00 5.870072e+00 
7.976310e+00 5.816830e+00 
8.011570e+00 5.764359e+00 
8.046240e+00 5.713390e+00 
8.080900e+00 5.663043e+00 
8.115570e+00 5.613329e+00 
8.150830e+00 5.563556e+00 
8.185500e+00 5.515197e+00 
8.220770e+00 5.466583e+00 
8.255430e+00 5.419373e+00 
8.290100e+00 5.372866e+00 
8.324770e+00 5.326916e+00 
8.359430e+00 5.281511e+00 
8.394700e+00 5.235842e+00 
8.429960e+00 5.190821e+00 
8.464630e+00 5.147169e+00 
8.499890e+00 5.103281e+00 
8.534560e+00 5.060620e+00 
8.569200e+00 5.018477e+00 
