# Parameters:
# omega_b = 0.022902, omega_m = 0.152795, n_s = 0.901969, h = 80.039370, w = -1.000000, sigma_8 = 0.753543
# z = 0.900000
#
# k[1/Mpc] # P(k):
8.694000e-04 5.212488e+03 
2.077466e-03 1.060749e+04 
3.285532e-03 1.471155e+04 
4.493598e-03 1.784075e+04 
5.701664e-03 2.015250e+04 
6.909730e-03 2.179292e+04 
8.117797e-03 2.291668e+04 
9.325863e-03 2.360216e+04 
1.053393e-02 2.392345e+04 
1.174199e-02 2.394642e+04 
1.295006e-02 2.371479e+04 
1.415813e-02 2.328650e+04 
1.536619e-02 2.270735e+04 
1.657426e-02 2.199959e+04 
1.778233e-02 2.112817e+04 
1.899039e-02 2.009520e+04 
2.019846e-02 1.904558e+04 
2.140652e-02 1.807934e+04 
2.261459e-02 1.717455e+04 
2.382266e-02 1.631859e+04 
2.503072e-02 1.551674e+04 
2.623879e-02 1.477275e+04 
2.744685e-02 1.408838e+04 
2.865492e-02 1.346567e+04 
2.986299e-02 1.290280e+04 
3.100100e-02 1.242660e+04 
3.220400e-02 1.197667e+04 
3.288100e-02 1.174759e+04 
3.424300e-02 1.133336e+04 
3.555100e-02 1.098661e+04 
3.686000e-02 1.068444e+04 
3.795000e-02 1.046084e+04 
3.929100e-02 1.021707e+04 
4.039800e-02 1.003417e+04 
4.164000e-02 9.842530e+03 
4.294400e-02 9.649264e+03 
4.415000e-02 9.473859e+03 
4.542900e-02 9.281656e+03 
4.660900e-02 9.100055e+03 
4.782300e-02 8.896646e+03 
4.892900e-02 8.702774e+03 
5.031200e-02 8.444102e+03 
5.155900e-02 8.194227e+03 
5.238100e-02 8.022803e+03 
5.378200e-02 7.721185e+03 
5.513400e-02 7.420369e+03 
5.627600e-02 7.162771e+03 
5.735300e-02 6.920776e+03 
5.870100e-02 6.622915e+03 
5.988700e-02 6.369565e+03 
6.113500e-02 6.114115e+03 
6.225900e-02 5.896173e+03 
6.340100e-02 5.688434e+03 
6.480200e-02 5.452635e+03 
6.601100e-02 5.268221e+03 
6.725500e-02 5.096444e+03 
6.829100e-02 4.968501e+03 
6.958600e-02 4.823642e+03 
7.071100e-02 4.712446e+03 
7.192300e-02 4.605633e+03 
7.307400e-02 4.515362e+03 
7.412300e-02 4.441326e+03 
7.550400e-02 4.354960e+03 
7.663100e-02 4.291070e+03 
7.791200e-02 4.225569e+03 
7.912700e-02 4.167908e+03 
8.027600e-02 4.115759e+03 
8.138400e-02 4.066765e+03 
8.272200e-02 4.008198e+03 
8.406100e-02 3.949165e+03 
8.534100e-02 3.890662e+03 
8.653800e-02 3.833412e+03 
8.759800e-02 3.781188e+03 
8.900300e-02 3.709097e+03 
9.009000e-02 3.650542e+03 
9.113300e-02 3.591637e+03 
9.239600e-02 3.518704e+03 
9.358000e-02 3.447918e+03 
9.496100e-02 3.361962e+03 
9.608400e-02 3.291181e+03 
9.727500e-02 3.215972e+03 
9.852600e-02 3.134721e+03 
9.973800e-02 3.057172e+03 
1.009000e-01 2.984031e+03 
1.020900e-01 2.910094e+03 
1.034000e-01 2.831570e+03 
1.046000e-01 2.762263e+03 
1.057200e-01 2.701177e+03 
1.069100e-01 2.639081e+03 
1.082500e-01 2.574375e+03 
1.093900e-01 2.523498e+03 
1.105400e-01 2.475024e+03 
1.116900e-01 2.431873e+03 
1.129600e-01 2.386977e+03 
1.142000e-01 2.348214e+03 
1.153300e-01 2.315358e+03 
1.166400e-01 2.280670e+03 
1.177800e-01 2.253208e+03 
1.190000e-01 2.225447e+03 
1.201200e-01 2.201979e+03 
1.213400e-01 2.177272e+03 
1.227100e-01 2.150909e+03 
1.238900e-01 2.128668e+03 
1.250700e-01 2.106473e+03 
1.263200e-01 2.083034e+03 
1.275500e-01 2.059444e+03 
1.287500e-01 2.036108e+03 
1.299900e-01 2.011195e+03 
1.311300e-01 1.987748e+03 
1.323500e-01 1.961623e+03 
1.335900e-01 1.934521e+03 
1.347100e-01 1.909057e+03 
1.359800e-01 1.879914e+03 
1.372100e-01 1.850527e+03 
1.384300e-01 1.821439e+03 
1.395700e-01 1.793404e+03 
1.407700e-01 1.764417e+03 
1.420300e-01 1.733318e+03 
1.432800e-01 1.703206e+03 
1.444500e-01 1.675096e+03 
1.456300e-01 1.647379e+03 
1.468900e-01 1.618828e+03 
1.480500e-01 1.593244e+03 
1.491700e-01 1.569552e+03 
1.503800e-01 1.545121e+03 
1.516400e-01 1.520559e+03 
1.528200e-01 1.499438e+03 
1.540200e-01 1.478394e+03 
1.551900e-01 1.459782e+03 
1.564300e-01 1.440808e+03 
1.576600e-01 1.423114e+03 
1.588700e-01 1.406947e+03 
1.600900e-01 1.391016e+03 
1.612700e-01 1.377035e+03 
1.625400e-01 1.362267e+03 
1.637600e-01 1.348671e+03 
1.649500e-01 1.335836e+03 
1.662200e-01 1.322369e+03 
1.674000e-01 1.309981e+03 
1.685000e-01 1.298625e+03 
1.697500e-01 1.285610e+03 
1.710300e-01 1.272198e+03 
1.722200e-01 1.259949e+03 
1.734400e-01 1.246658e+03 
1.746400e-01 1.233773e+03 
1.758700e-01 1.220476e+03 
1.770900e-01 1.206871e+03 
1.782700e-01 1.193938e+03 
1.794600e-01 1.180647e+03 
1.807000e-01 1.166724e+03 
1.819100e-01 1.153374e+03 
1.830100e-01 1.141064e+03 
1.842200e-01 1.127682e+03 
1.855000e-01 1.113768e+03 
1.867000e-01 1.100822e+03 
1.879200e-01 1.087883e+03 
1.890900e-01 1.075706e+03 
1.902800e-01 1.063655e+03 
1.915200e-01 1.051307e+03 
1.926900e-01 1.039927e+03 
1.939000e-01 1.028606e+03 
1.951700e-01 1.016920e+03 
1.963100e-01 1.006700e+03 
1.975100e-01 9.963828e+02 
1.987800e-01 9.856380e+02 
2.000100e-01 9.755103e+02 
2.012500e-01 9.657191e+02 
2.023400e-01 9.572386e+02 
2.036100e-01 9.475602e+02 
2.048900e-01 9.381799e+02 
2.060400e-01 9.298779e+02 
2.072200e-01 9.214930e+02 
2.084200e-01 9.132426e+02 
2.096900e-01 9.046403e+02 
2.109200e-01 8.964333e+02 
2.121100e-01 8.886662e+02 
2.132700e-01 8.812028e+02 
2.145200e-01 8.732738e+02 
2.157200e-01 8.657898e+02 
2.168800e-01 8.586629e+02 
2.180700e-01 8.514507e+02 
2.193400e-01 8.438679e+02 
2.206000e-01 8.364640e+02 
2.217500e-01 8.297987e+02 
2.229500e-01 8.229356e+02 
2.241400e-01 8.162712e+02 
2.253500e-01 8.095866e+02 
2.264900e-01 8.033705e+02 
2.277100e-01 7.968555e+02 
2.289900e-01 7.901698e+02 
2.301500e-01 7.841911e+02 
2.313600e-01 7.780358e+02 
2.325600e-01 7.721572e+02 
2.337700e-01 7.663056e+02 
2.350000e-01 7.604340e+02 
2.362000e-01 7.548575e+02 
2.374100e-01 7.493983e+02 
2.386500e-01 7.438747e+02 
2.399100e-01 7.383344e+02 
2.410400e-01 7.335537e+02 
2.422500e-01 7.285115e+02 
2.435000e-01 7.233674e+02 
2.447300e-01 7.183901e+02 
2.458700e-01 7.139168e+02 
2.470600e-01 7.093015e+02 
2.483300e-01 7.044358e+02 
2.495600e-01 6.997966e+02 
2.507600e-01 6.953452e+02 
2.519600e-01 6.909459e+02 
2.532200e-01 6.863817e+02 
2.543700e-01 6.822484e+02 
2.555500e-01 6.780437e+02 
2.568000e-01 6.736414e+02 
2.580100e-01 6.694298e+02 
2.592400e-01 6.651414e+02 
2.604100e-01 6.610833e+02 
2.616100e-01 6.569677e+02 
2.628400e-01 6.527971e+02 
2.640600e-01 6.486263e+02 
2.652200e-01 6.446724e+02 
2.664300e-01 6.405933e+02 
2.676500e-01 6.365266e+02 
2.688400e-01 6.325343e+02 
2.700700e-01 6.284101e+02 
2.712400e-01 6.245301e+02 
2.724800e-01 6.204629e+02 
2.736700e-01 6.165527e+02 
2.748800e-01 6.125683e+02 
2.761000e-01 6.085951e+02 
2.773200e-01 6.046652e+02 
2.785400e-01 6.007535e+02 
2.797000e-01 5.970220e+02 
2.808900e-01 5.932340e+02 
2.821400e-01 5.892979e+02 
2.833900e-01 5.854028e+02 
2.845500e-01 5.817722e+02 
2.857800e-01 5.779628e+02 
2.870300e-01 5.741334e+02 
2.882100e-01 5.705566e+02 
2.893900e-01 5.669934e+02 
2.906300e-01 5.632758e+02 
2.918900e-01 5.595389e+02 
2.930500e-01 5.561342e+02 
2.942500e-01 5.526422e+02 
2.954200e-01 5.492546e+02 
2.966500e-01 5.457294e+02 
2.978900e-01 5.422127e+02 
2.990400e-01 5.389840e+02 
3.002700e-01 5.355566e+02 
3.015100e-01 5.321328e+02 
3.026800e-01 5.289347e+02 
3.038500e-01 5.257676e+02 
3.050300e-01 5.226043e+02 
3.062600e-01 5.193349e+02 
3.075000e-01 5.160722e+02 
3.087000e-01 5.129462e+02 
3.099100e-01 5.098250e+02 
3.111200e-01 5.067355e+02 
3.123100e-01 5.037284e+02 
3.135300e-01 5.006753e+02 
3.147300e-01 4.977014e+02 
3.159900e-01 4.946093e+02 
3.171800e-01 4.917208e+02 
3.183700e-01 4.888617e+02 
3.196300e-01 4.858636e+02 
3.208400e-01 4.830124e+02 
3.220300e-01 4.802346e+02 
3.232000e-01 4.775358e+02 
3.244300e-01 4.747277e+02 
3.256700e-01 4.719239e+02 
3.269200e-01 4.691245e+02 
3.280800e-01 4.665507e+02 
3.292500e-01 4.639871e+02 
3.304800e-01 4.613196e+02 
3.317100e-01 4.586768e+02 
3.328900e-01 4.561646e+02 
3.340700e-01 4.536748e+02 
3.353600e-01 4.509892e+02 
3.365300e-01 4.485801e+02 
3.377100e-01 4.461716e+02 
3.389200e-01 4.437238e+02 
3.401600e-01 4.412379e+02 
3.413700e-01 4.388448e+02 
3.425300e-01 4.365779e+02 
3.437700e-01 4.341758e+02 
3.449800e-01 4.318528e+02 
3.461800e-01 4.295691e+02 
3.473600e-01 4.273476e+02 
3.485800e-01 4.250827e+02 
3.498100e-01 4.228193e+02 
3.510200e-01 4.206120e+02 
3.522000e-01 4.184778e+02 
3.533900e-01 4.163435e+02 
3.546400e-01 4.141374e+02 
3.558400e-01 4.120386e+02 
3.570600e-01 4.099230e+02 
3.582700e-01 4.078424e+02 
3.595000e-01 4.057455e+02 
3.607100e-01 4.037088e+02 
3.618900e-01 4.017458e+02 
3.631200e-01 3.997166e+02 
3.643200e-01 3.977534e+02 
3.655500e-01 3.957578e+02 
3.667300e-01 3.938590e+02 
3.679500e-01 3.919277e+02 
3.691900e-01 3.899811e+02 
3.703600e-01 3.881592e+02 
3.715700e-01 3.862900e+02 
3.727700e-01 3.844513e+02 
3.739900e-01 3.826025e+02 
3.752000e-01 3.807936e+02 
3.763900e-01 3.790288e+02 
3.775800e-01 3.772777e+02 
3.788200e-01 3.754677e+02 
3.800300e-01 3.737156e+02 
3.812100e-01 3.720266e+02 
3.824200e-01 3.703124e+02 
3.836100e-01 3.686396e+02 
3.848600e-01 3.668963e+02 
3.860400e-01 3.652635e+02 
3.872400e-01 3.636157e+02 
3.884600e-01 3.619621e+02 
3.896500e-01 3.603648e+02 
3.908700e-01 3.587398e+02 
3.920600e-01 3.571668e+02 
3.933100e-01 3.555273e+02 
3.945300e-01 3.539395e+02 
3.957200e-01 3.524106e+02 
3.969300e-01 3.508700e+02 
3.981700e-01 3.493033e+02 
3.993500e-01 3.478236e+02 
4.094840e-01 3.355661e+02 
4.272360e-01 3.159962e+02 
4.454600e-01 2.979738e+02 
4.630560e-01 2.822606e+02 
4.804610e-01 2.681157e+02 
4.980690e-01 2.550362e+02 
5.159230e-01 2.428850e+02 
5.317440e-01 2.329510e+02 
5.489640e-01 2.229477e+02 
5.671990e-01 2.131895e+02 
5.838690e-01 2.049385e+02 
6.018840e-01 1.966838e+02 
6.202330e-01 1.889232e+02 
6.379250e-01 1.819769e+02 
6.545410e-01 1.759241e+02 
6.714560e-01 1.701604e+02 
6.892080e-01 1.645172e+02 
7.066010e-01 1.593608e+02 
7.240540e-01 1.545088e+02 
7.420450e-01 1.498357e+02 
7.593780e-01 1.456096e+02 
7.764720e-01 1.416804e+02 
7.942840e-01 1.378213e+02 
8.116170e-01 1.342811e+02 
8.288310e-01 1.309560e+02 
8.462240e-01 1.277682e+02 
8.631980e-01 1.248136e+02 
8.810700e-01 1.218544e+02 
8.989410e-01 1.190409e+02 
9.166330e-01 1.163852e+02 
9.345640e-01 1.138171e+02 
9.515980e-01 1.114838e+02 
9.688720e-01 1.092154e+02 
9.865640e-01 1.069871e+02 
1.031870e+00 1.016699e+02 
1.063490e+00 9.825139e+01 
1.097920e+00 9.477822e+01 
1.134370e+00 9.133395e+01 
1.167730e+00 8.838279e+01 
1.203830e+00 8.537054e+01 
1.240470e+00 8.249776e+01 
1.275790e+00 7.987679e+01 
1.309140e+00 7.753500e+01 
1.342970e+00 7.526549e+01 
1.378420e+00 7.301042e+01 
1.413200e+00 7.090027e+01 
1.448110e+00 6.887646e+01 
1.484090e+00 6.689147e+01 
1.518820e+00 6.505569e+01 
1.552880e+00 6.333073e+01 
1.588630e+00 6.159310e+01 
1.623230e+00 5.998456e+01 
1.657720e+00 5.844396e+01 
1.692450e+00 5.695629e+01 
1.726400e+00 5.555060e+01 
1.762200e+00 5.412479e+01 
1.797880e+00 5.275921e+01 
1.833270e+00 5.145372e+01 
1.869070e+00 5.018358e+01 
1.903200e+00 4.901475e+01 
1.937740e+00 4.787250e+01 
1.973190e+00 4.674010e+01 
2.007440e+00 4.568351e+01 
2.042160e+00 4.464864e+01 
2.077900e+00 4.361647e+01 
2.112390e+00 4.265557e+01 
2.146220e+00 4.173888e+01 
2.181600e+00 4.081186e+01 
2.216930e+00 3.991597e+01 
2.250760e+00 3.908329e+01 
2.286500e+00 3.823030e+01 
2.321770e+00 3.741620e+01 
2.355950e+00 3.665169e+01 
2.391280e+00 3.588189e+01 
2.426240e+00 3.514220e+01 
2.460670e+00 3.443510e+01 
2.495640e+00 3.373824e+01 
2.531080e+00 3.305210e+01 
2.566220e+00 3.238962e+01 
2.600830e+00 3.175580e+01 
2.635080e+00 3.114681e+01 
2.670340e+00 3.053382e+01 
2.705970e+00 2.993273e+01 
2.740040e+00 2.937435e+01 
2.774520e+00 2.882327e+01 
2.809730e+00 2.827477e+01 
2.844390e+00 2.774929e+01 
2.879960e+00 2.722352e+01 
2.914860e+00 2.672084e+01 
2.949410e+00 2.623633e+01 
2.984440e+00 2.575634e+01 
3.019760e+00 2.528555e+01 
3.054730e+00 2.483215e+01 
3.089030e+00 2.439562e+01 
3.124060e+00 2.396168e+01 
3.159560e+00 2.353340e+01 
3.194710e+00 2.311831e+01 
3.229010e+00 2.272332e+01 
3.263320e+00 2.233703e+01 
3.297930e+00 2.195703e+01 
3.332830e+00 2.158260e+01 
3.368040e+00 2.121347e+01 
3.403300e+00 2.085255e+01 
3.438450e+00 2.050041e+01 
3.473060e+00 2.016217e+01 
3.508440e+00 1.982418e+01 
3.543110e+00 1.950096e+01 
3.577470e+00 1.918632e+01 
3.613040e+00 1.886845e+01 
3.648120e+00 1.856206e+01 
3.682910e+00 1.826508e+01 
3.718050e+00 1.797136e+01 
3.753320e+00 1.768312e+01 
3.787980e+00 1.740581e+01 
3.822290e+00 1.713737e+01 
3.857020e+00 1.687141e+01 
3.891920e+00 1.660968e+01 
3.926650e+00 1.635401e+01 
3.961970e+00 1.609982e+01 
3.997360e+00 1.585064e+01 
4.031670e+00 1.561429e+01 
4.066330e+00 1.537993e+01 
4.101420e+00 1.514792e+01 
4.136200e+00 1.492254e+01 
4.170810e+00 1.470314e+01 
4.206250e+00 1.448259e+01 
4.241580e+00 1.426739e+01 
4.276300e+00 1.406001e+01 
4.310970e+00 1.385706e+01 
4.346120e+00 1.365548e+01 
4.380600e+00 1.346161e+01 
4.414730e+00 1.327361e+01 
4.450350e+00 1.308090e+01 
4.485320e+00 1.289563e+01 
4.519810e+00 1.271630e+01 
4.555430e+00 1.253473e+01 
4.590870e+00 1.235767e+01 
4.625480e+00 1.218803e+01 
4.659910e+00 1.202258e+01 
4.695230e+00 1.185589e+01 
4.729960e+00 1.169516e+01 
4.764450e+00 1.153852e+01 
4.799530e+00 1.138211e+01 
4.834910e+00 1.122742e+01 
4.869700e+00 1.107807e+01 
4.904370e+00 1.093203e+01 
4.939450e+00 1.078701e+01 
4.973940e+00 1.064699e+01 
5.008430e+00 1.050954e+01 
5.043810e+00 1.037106e+01 
5.078840e+00 1.023643e+01 
5.113500e+00 1.010566e+01 
5.148890e+00 9.974502e+00 
5.184210e+00 9.845995e+00 
5.219060e+00 9.721472e+00 
5.253660e+00 9.600000e+00 
5.288570e+00 9.479602e+00 
5.323420e+00 9.361532e+00 
5.358440e+00 9.244969e+00 
5.393590e+00 9.130021e+00 
5.428310e+00 9.018462e+00 
5.462800e+00 8.909540e+00 
5.497640e+00 8.801383e+00 
5.532670e+00 8.694506e+00 
5.567280e+00 8.590699e+00 
5.602000e+00 8.488302e+00 
5.637270e+00 8.386092e+00 
5.672410e+00 8.285980e+00 
5.707020e+00 8.189008e+00 
5.742040e+00 8.092549e+00 
5.777430e+00 7.996689e+00 
5.812210e+00 7.904021e+00 
5.846820e+00 7.813343e+00 
5.881610e+00 7.723664e+00 
5.916510e+00 7.635139e+00 
5.951600e+00 7.547646e+00 
5.986560e+00 7.461904e+00 
6.021830e+00 7.376771e+00 
6.056490e+00 7.294493e+00 
6.091160e+00 7.213523e+00 
6.125830e+00 7.133798e+00 
6.161090e+00 7.054008e+00 
6.195760e+00 6.976841e+00 
6.230420e+00 6.900864e+00 
6.265690e+00 6.824730e+00 
6.300950e+00 6.749918e+00 
6.335620e+00 6.677465e+00 
6.370880e+00 6.604880e+00 
6.405550e+00 6.534672e+00 
6.440220e+00 6.465535e+00 
6.475480e+00 6.396257e+00 
6.510150e+00 6.329176e+00 
6.544810e+00 6.263172e+00 
6.580080e+00 6.196980e+00 
6.614750e+00 6.132853e+00 
6.649410e+00 6.069820e+00 
6.684080e+00 6.007694e+00 
6.719340e+00 5.945408e+00 
6.754010e+00 5.885069e+00 
6.788680e+00 5.825662e+00 
6.823940e+00 5.766089e+00 
6.859800e+00 5.706363e+00 
6.894470e+00 5.649543e+00 
6.929140e+00 5.593543e+00 
6.963800e+00 5.538322e+00 
6.999070e+00 5.482906e+00 
7.033730e+00 5.429315e+00 
7.068400e+00 5.376428e+00 
7.103660e+00 5.323366e+00 
7.138330e+00 5.271949e+00 
7.173600e+00 5.220459e+00 
7.208260e+00 5.170531e+00 
7.243530e+00 5.120397e+00 
7.277600e+00 5.072685e+00 
7.312860e+00 5.024023e+00 
7.348120e+00 4.976002e+00 
7.382790e+00 4.929398e+00 
7.417460e+00 4.883485e+00 
7.452720e+00 4.837440e+00 
7.487390e+00 4.792746e+00 
7.522650e+00 4.747871e+00 
7.557320e+00 4.704409e+00 
7.591990e+00 4.661530e+00 
7.627250e+00 4.618470e+00 
7.662510e+00 4.575955e+00 
7.697180e+00 4.534779e+00 
7.731850e+00 4.494150e+00 
7.766510e+00 4.454032e+00 
7.801180e+00 4.414392e+00 
7.836440e+00 4.374669e+00 
7.871110e+00 4.336149e+00 
7.906380e+00 4.297438e+00 
7.941040e+00 4.259858e+00 
7.976310e+00 4.222130e+00 
8.011570e+00 4.184931e+00 
8.046240e+00 4.148792e+00 
8.080900e+00 4.113090e+00 
8.115570e+00 4.077828e+00 
8.150830e+00 4.042501e+00 
8.185500e+00 4.008174e+00 
8.220770e+00 3.973662e+00 
8.255430e+00 3.940142e+00 
8.290100e+00 3.907104e+00 
8.324770e+00 3.874456e+00 
8.359430e+00 3.842190e+00 
8.394700e+00 3.809733e+00 
8.429960e+00 3.777729e+00 
8.464630e+00 3.746688e+00 
8.499890e+00 3.715476e+00 
8.534560e+00 3.685133e+00 
8.569200e+00 3.655154e+00 
