# Parameters:
# omega_b = 0.021673, omega_m = 0.153622, n_s = 0.927165, h = 66.574803, w = -1.000000, sigma_8 = 0.819685
# z = 0.900000
#
# k[1/Mpc] # P(k):
8.694000e-04 5.921103e+03 
2.077466e-03 1.234756e+04 
3.285532e-03 1.733136e+04 
4.493598e-03 2.118411e+04 
5.701664e-03 2.408994e+04 
6.909730e-03 2.619999e+04 
8.117797e-03 2.768275e+04 
9.325863e-03 2.862615e+04 
1.053393e-02 2.911949e+04 
1.174199e-02 2.924620e+04 
1.295006e-02 2.905764e+04 
1.415813e-02 2.862256e+04 
1.536619e-02 2.799929e+04 
1.657426e-02 2.722617e+04 
1.778233e-02 2.632791e+04 
1.899039e-02 2.534259e+04 
2.019846e-02 2.431489e+04 
2.140652e-02 2.329397e+04 
2.261459e-02 2.229165e+04 
2.382266e-02 2.132273e+04 
2.503072e-02 2.040112e+04 
2.623879e-02 1.953342e+04 
2.744685e-02 1.872193e+04 
2.865492e-02 1.797209e+04 
2.986299e-02 1.728346e+04 
3.100100e-02 1.669009e+04 
3.220400e-02 1.611891e+04 
3.288100e-02 1.582248e+04 
3.424300e-02 1.527618e+04 
3.555100e-02 1.480701e+04 
3.686000e-02 1.438669e+04 
3.795000e-02 1.406820e+04 
3.929100e-02 1.371165e+04 
4.039800e-02 1.343964e+04 
4.164000e-02 1.315246e+04 
4.294400e-02 1.286425e+04 
4.415000e-02 1.260647e+04 
4.542900e-02 1.233313e+04 
4.660900e-02 1.208214e+04 
4.782300e-02 1.181384e+04 
4.892900e-02 1.156569e+04 
5.031200e-02 1.124554e+04 
5.155900e-02 1.094566e+04 
5.238100e-02 1.074351e+04 
5.378200e-02 1.039257e+04 
5.513400e-02 1.004631e+04 
5.627600e-02 9.750676e+03 
5.735300e-02 9.472233e+03 
5.870100e-02 9.126968e+03 
5.988700e-02 8.829744e+03 
6.113500e-02 8.525506e+03 
6.225900e-02 8.260925e+03 
6.340100e-02 8.003375e+03 
6.480200e-02 7.704446e+03 
6.601100e-02 7.463175e+03 
6.725500e-02 7.231929e+03 
6.829100e-02 7.053973e+03 
6.958600e-02 6.847547e+03 
7.071100e-02 6.684014e+03 
7.192300e-02 6.522779e+03 
7.307400e-02 6.383171e+03 
7.412300e-02 6.266471e+03 
7.550400e-02 6.127851e+03 
7.663100e-02 6.024428e+03 
7.791200e-02 5.918318e+03 
7.912700e-02 5.826231e+03 
8.027600e-02 5.744599e+03 
8.138400e-02 5.669624e+03 
8.272200e-02 5.582667e+03 
8.406100e-02 5.497875e+03 
8.534100e-02 5.416785e+03 
8.653800e-02 5.339415e+03 
8.759800e-02 5.269814e+03 
8.900300e-02 5.175002e+03 
9.009000e-02 5.098774e+03 
9.113300e-02 5.022578e+03 
9.239600e-02 4.928593e+03 
9.358000e-02 4.837753e+03 
9.496100e-02 4.727981e+03 
9.608400e-02 4.637865e+03 
9.727500e-02 4.542291e+03 
9.852600e-02 4.439662e+03 
9.973800e-02 4.341794e+03 
1.009000e-01 4.249529e+03 
1.020900e-01 4.156262e+03 
1.034000e-01 4.056878e+03 
1.046000e-01 3.968820e+03 
1.057200e-01 3.890254e+03 
1.069100e-01 3.809847e+03 
1.082500e-01 3.724469e+03 
1.093900e-01 3.656007e+03 
1.105400e-01 3.589969e+03 
1.116900e-01 3.529032e+03 
1.129600e-01 3.464796e+03 
1.142000e-01 3.407112e+03 
1.153300e-01 3.357339e+03 
1.166400e-01 3.303365e+03 
1.177800e-01 3.259585e+03 
1.190000e-01 3.214804e+03 
1.201200e-01 3.176453e+03 
1.213400e-01 3.135983e+03 
1.227100e-01 3.093288e+03 
1.238900e-01 3.057559e+03 
1.250700e-01 3.022949e+03 
1.263200e-01 2.986986e+03 
1.275500e-01 2.952080e+03 
1.287500e-01 2.918320e+03 
1.299900e-01 2.883456e+03 
1.311300e-01 2.851323e+03 
1.323500e-01 2.816489e+03 
1.335900e-01 2.780874e+03 
1.347100e-01 2.748064e+03 
1.359800e-01 2.710768e+03 
1.372100e-01 2.673660e+03 
1.384300e-01 2.636984e+03 
1.395700e-01 2.601808e+03 
1.407700e-01 2.565390e+03 
1.420300e-01 2.526196e+03 
1.432800e-01 2.488195e+03 
1.444500e-01 2.452260e+03 
1.456300e-01 2.416783e+03 
1.468900e-01 2.379650e+03 
1.480500e-01 2.346175e+03 
1.491700e-01 2.314770e+03 
1.503800e-01 2.281870e+03 
1.516400e-01 2.248580e+03 
1.528200e-01 2.219096e+03 
1.540200e-01 2.189710e+03 
1.551900e-01 2.162899e+03 
1.564300e-01 2.135350e+03 
1.576600e-01 2.109267e+03 
1.588700e-01 2.084948e+03 
1.600900e-01 2.060959e+03 
1.612700e-01 2.039380e+03 
1.625400e-01 2.016590e+03 
1.637600e-01 1.995564e+03 
1.649500e-01 1.975691e+03 
1.662200e-01 1.954900e+03 
1.674000e-01 1.936106e+03 
1.685000e-01 1.918877e+03 
1.697500e-01 1.899491e+03 
1.710300e-01 1.879860e+03 
1.722200e-01 1.861931e+03 
1.734400e-01 1.843256e+03 
1.746400e-01 1.825175e+03 
1.758700e-01 1.806726e+03 
1.770900e-01 1.788264e+03 
1.782700e-01 1.770706e+03 
1.794600e-01 1.752905e+03 
1.807000e-01 1.734407e+03 
1.819100e-01 1.716662e+03 
1.830100e-01 1.700409e+03 
1.842200e-01 1.682749e+03 
1.855000e-01 1.664373e+03 
1.867000e-01 1.647203e+03 
1.879200e-01 1.630031e+03 
1.890900e-01 1.613827e+03 
1.902800e-01 1.597604e+03 
1.915200e-01 1.580972e+03 
1.926900e-01 1.565568e+03 
1.939000e-01 1.550021e+03 
1.951700e-01 1.533964e+03 
1.963100e-01 1.519841e+03 
1.975100e-01 1.505376e+03 
1.987800e-01 1.490307e+03 
2.000100e-01 1.476033e+03 
2.012500e-01 1.462077e+03 
2.023400e-01 1.449986e+03 
2.036100e-01 1.436157e+03 
2.048900e-01 1.422645e+03 
2.060400e-01 1.410685e+03 
2.072200e-01 1.398601e+03 
2.084200e-01 1.386671e+03 
2.096900e-01 1.374231e+03 
2.109200e-01 1.362361e+03 
2.121100e-01 1.351135e+03 
2.132700e-01 1.340346e+03 
2.145200e-01 1.328884e+03 
2.157200e-01 1.318073e+03 
2.168800e-01 1.307782e+03 
2.180700e-01 1.297366e+03 
2.193400e-01 1.286401e+03 
2.206000e-01 1.275669e+03 
2.217500e-01 1.266006e+03 
2.229500e-01 1.256055e+03 
2.241400e-01 1.246298e+03 
2.253500e-01 1.236508e+03 
2.264900e-01 1.227402e+03 
2.277100e-01 1.217769e+03 
2.289900e-01 1.207781e+03 
2.301500e-01 1.198849e+03 
2.313600e-01 1.189651e+03 
2.325600e-01 1.180629e+03 
2.337700e-01 1.171649e+03 
2.350000e-01 1.162638e+03 
2.362000e-01 1.153963e+03 
2.374100e-01 1.145329e+03 
2.386500e-01 1.136594e+03 
2.399100e-01 1.127833e+03 
2.410400e-01 1.120086e+03 
2.422500e-01 1.111893e+03 
2.435000e-01 1.103535e+03 
2.447300e-01 1.095421e+03 
2.458700e-01 1.088019e+03 
2.470600e-01 1.080384e+03 
2.483300e-01 1.072335e+03 
2.495600e-01 1.064650e+03 
2.507600e-01 1.057261e+03 
2.519600e-01 1.049958e+03 
2.532200e-01 1.042384e+03 
2.543700e-01 1.035573e+03 
2.555500e-01 1.028677e+03 
2.568000e-01 1.021458e+03 
2.580100e-01 1.014553e+03 
2.592400e-01 1.007635e+03 
2.604100e-01 1.001137e+03 
2.616100e-01 9.945481e+02 
2.628400e-01 9.878715e+02 
2.640600e-01 9.813356e+02 
2.652200e-01 9.751944e+02 
2.664300e-01 9.688590e+02 
2.676500e-01 9.625430e+02 
2.688400e-01 9.564587e+02 
2.700700e-01 9.502444e+02 
2.712400e-01 9.443980e+02 
2.724800e-01 9.382697e+02 
2.736700e-01 9.324545e+02 
2.748800e-01 9.266069e+02 
2.761000e-01 9.207751e+02 
2.773200e-01 9.150069e+02 
2.785400e-01 9.093017e+02 
2.797000e-01 9.039352e+02 
2.808900e-01 8.984870e+02 
2.821400e-01 8.928254e+02 
2.833900e-01 8.872253e+02 
2.845500e-01 8.820778e+02 
2.857800e-01 8.766761e+02 
2.870300e-01 8.712453e+02 
2.882100e-01 8.661722e+02 
2.893900e-01 8.611497e+02 
2.906300e-01 8.559259e+02 
2.918900e-01 8.506742e+02 
2.930500e-01 8.458886e+02 
2.942500e-01 8.409856e+02 
2.954200e-01 8.362478e+02 
2.966500e-01 8.313169e+02 
2.978900e-01 8.263968e+02 
2.990400e-01 8.218790e+02 
3.002700e-01 8.170918e+02 
3.015100e-01 8.123133e+02 
3.026800e-01 8.078490e+02 
3.038500e-01 8.034273e+02 
3.050300e-01 7.990102e+02 
3.062600e-01 7.944485e+02 
3.075000e-01 7.898953e+02 
3.087000e-01 7.855321e+02 
3.099100e-01 7.811749e+02 
3.111200e-01 7.768608e+02 
3.123100e-01 7.726602e+02 
3.135300e-01 7.683947e+02 
3.147300e-01 7.642390e+02 
3.159900e-01 7.599175e+02 
3.171800e-01 7.558775e+02 
3.183700e-01 7.518762e+02 
3.196300e-01 7.476798e+02 
3.208400e-01 7.436882e+02 
3.220300e-01 7.397988e+02 
3.232000e-01 7.360148e+02 
3.244300e-01 7.320753e+02 
3.256700e-01 7.281410e+02 
3.269200e-01 7.242123e+02 
3.280800e-01 7.205996e+02 
3.292500e-01 7.169964e+02 
3.304800e-01 7.132453e+02 
3.317100e-01 7.095285e+02 
3.328900e-01 7.059947e+02 
3.340700e-01 7.024918e+02 
3.353600e-01 6.987076e+02 
3.365300e-01 6.953103e+02 
3.377100e-01 6.919134e+02 
3.389200e-01 6.884606e+02 
3.401600e-01 6.849535e+02 
3.413700e-01 6.815729e+02 
3.425300e-01 6.783675e+02 
3.437700e-01 6.749706e+02 
3.449800e-01 6.716848e+02 
3.461800e-01 6.684542e+02 
3.473600e-01 6.653097e+02 
3.485800e-01 6.620993e+02 
3.498100e-01 6.588905e+02 
3.510200e-01 6.557610e+02 
3.522000e-01 6.527346e+02 
3.533900e-01 6.497077e+02 
3.546400e-01 6.465729e+02 
3.558400e-01 6.435901e+02 
3.570600e-01 6.405828e+02 
3.582700e-01 6.376251e+02 
3.595000e-01 6.346437e+02 
3.607100e-01 6.317451e+02 
3.618900e-01 6.289493e+02 
3.631200e-01 6.260587e+02 
3.643200e-01 6.232619e+02 
3.655500e-01 6.204185e+02 
3.667300e-01 6.177128e+02 
3.679500e-01 6.149561e+02 
3.691900e-01 6.121772e+02 
3.703600e-01 6.095762e+02 
3.715700e-01 6.069074e+02 
3.727700e-01 6.042817e+02 
3.739900e-01 6.016403e+02 
3.752000e-01 5.990537e+02 
3.763900e-01 5.965298e+02 
3.775800e-01 5.940255e+02 
3.788200e-01 5.914365e+02 
3.800300e-01 5.889301e+02 
3.812100e-01 5.865118e+02 
3.824200e-01 5.840558e+02 
3.836100e-01 5.816590e+02 
3.848600e-01 5.791610e+02 
3.860400e-01 5.768210e+02 
3.872400e-01 5.744593e+02 
3.884600e-01 5.720872e+02 
3.896500e-01 5.697950e+02 
3.908700e-01 5.674628e+02 
3.920600e-01 5.652050e+02 
3.933100e-01 5.628515e+02 
3.945300e-01 5.605721e+02 
3.957200e-01 5.583747e+02 
3.969300e-01 5.561596e+02 
3.981700e-01 5.539067e+02 
3.993500e-01 5.517787e+02 
4.094840e-01 5.341282e+02 
4.272360e-01 5.058591e+02 
4.454600e-01 4.797062e+02 
4.630560e-01 4.567931e+02 
4.804610e-01 4.360752e+02 
4.980690e-01 4.168322e+02 
5.159230e-01 3.988885e+02 
5.317440e-01 3.841693e+02 
5.489640e-01 3.693034e+02 
5.671990e-01 3.547656e+02 
5.838690e-01 3.424452e+02 
6.018840e-01 3.300862e+02 
6.202330e-01 3.184311e+02 
6.379250e-01 3.079826e+02 
6.545410e-01 2.988472e+02 
6.714560e-01 2.901183e+02 
6.892080e-01 2.815529e+02 
7.066010e-01 2.736846e+02 
7.240540e-01 2.662586e+02 
7.420450e-01 2.590629e+02 
7.593780e-01 2.525212e+02 
7.764720e-01 2.464077e+02 
7.942840e-01 2.403712e+02 
8.116170e-01 2.347902e+02 
8.288310e-01 2.295121e+02 
8.462240e-01 2.244188e+02 
8.631980e-01 2.196618e+02 
8.810700e-01 2.148667e+02 
8.989410e-01 2.102740e+02 
9.166330e-01 2.059066e+02 
9.345640e-01 2.016513e+02 
9.515980e-01 1.977537e+02 
9.688720e-01 1.939372e+02 
9.865640e-01 1.901572e+02 
1.031870e+00 1.810436e+02 
1.063490e+00 1.750943e+02 
1.097920e+00 1.689822e+02 
1.134370e+00 1.628571e+02 
1.167730e+00 1.575525e+02 
1.203830e+00 1.520883e+02 
1.240470e+00 1.468380e+02 
1.275790e+00 1.420071e+02 
1.309140e+00 1.376725e+02 
1.342970e+00 1.334426e+02 
1.378420e+00 1.292235e+02 
1.413200e+00 1.252588e+02 
1.448110e+00 1.214441e+02 
1.484090e+00 1.176917e+02 
1.518820e+00 1.142154e+02 
1.552880e+00 1.109427e+02 
1.588630e+00 1.076445e+02 
1.623230e+00 1.045864e+02 
1.657720e+00 1.016566e+02 
1.692450e+00 9.882813e+01 
1.726400e+00 9.615437e+01 
1.762200e+00 9.344180e+01 
1.797880e+00 9.084858e+01 
1.833270e+00 8.836948e+01 
1.869070e+00 8.595918e+01 
1.903200e+00 8.374604e+01 
1.937740e+00 8.158536e+01 
1.973190e+00 7.944472e+01 
2.007440e+00 7.745195e+01 
2.042160e+00 7.550400e+01 
2.077900e+00 7.356371e+01 
2.112390e+00 7.176156e+01 
2.146220e+00 7.004491e+01 
2.181600e+00 6.831276e+01 
2.216930e+00 6.664285e+01 
2.250760e+00 6.509380e+01 
2.286500e+00 6.351002e+01 
2.321770e+00 6.200189e+01 
2.355950e+00 6.058929e+01 
2.391280e+00 5.917016e+01 
2.426240e+00 5.781065e+01 
2.460670e+00 5.651412e+01 
2.495640e+00 5.523869e+01 
2.531080e+00 5.398578e+01 
2.566220e+00 5.278003e+01 
2.600830e+00 5.162944e+01 
2.635080e+00 5.052649e+01 
2.670340e+00 4.942038e+01 
2.705970e+00 4.833804e+01 
2.740040e+00 4.733443e+01 
2.774520e+00 4.634581e+01 
2.809730e+00 4.536552e+01 
2.844390e+00 4.442890e+01 
2.879960e+00 4.349450e+01 
2.914860e+00 4.260328e+01 
2.949410e+00 4.174608e+01 
2.984440e+00 4.090013e+01 
3.019760e+00 4.007190e+01 
3.054730e+00 3.927555e+01 
3.089030e+00 3.851256e+01 
3.124060e+00 3.775524e+01 
3.159560e+00 3.700921e+01 
3.194710e+00 3.628889e+01 
3.229010e+00 3.560481e+01 
3.263320e+00 3.493854e+01 
3.297930e+00 3.428405e+01 
3.332830e+00 3.364048e+01 
3.368040e+00 3.300790e+01 
3.403300e+00 3.239090e+01 
3.438450e+00 3.179115e+01 
3.473060e+00 3.121595e+01 
3.508440e+00 3.064303e+01 
3.543110e+00 3.009590e+01 
3.577470e+00 2.956551e+01 
3.613040e+00 2.903040e+01 
3.648120e+00 2.851590e+01 
3.682910e+00 2.801820e+01 
3.718050e+00 2.752746e+01 
3.753320e+00 2.704692e+01 
3.787980e+00 2.658587e+01 
3.822290e+00 2.614048e+01 
3.857020e+00 2.570044e+01 
3.891920e+00 2.526821e+01 
3.926650e+00 2.484722e+01 
3.961970e+00 2.442936e+01 
3.997360e+00 2.402095e+01 
4.031670e+00 2.363408e+01 
4.066330e+00 2.325175e+01 
4.101420e+00 2.287353e+01 
4.136200e+00 2.250742e+01 
4.170810e+00 2.215125e+01 
4.206250e+00 2.179434e+01 
4.241580e+00 2.144647e+01 
4.276300e+00 2.111222e+01 
4.310970e+00 2.078574e+01 
4.346120e+00 2.046202e+01 
4.380600e+00 2.015146e+01 
4.414730e+00 1.985051e+01 
4.450350e+00 1.954319e+01 
4.485320e+00 1.924791e+01 
4.519810e+00 1.896289e+01 
4.555430e+00 1.867474e+01 
4.590870e+00 1.839418e+01 
4.625480e+00 1.812605e+01 
4.659910e+00 1.786469e+01 
4.695230e+00 1.760222e+01 
4.729960e+00 1.734936e+01 
4.764450e+00 1.710334e+01 
4.799530e+00 1.685826e+01 
4.834910e+00 1.661599e+01 
4.869700e+00 1.638279e+01 
4.904370e+00 1.615494e+01 
4.939450e+00 1.592896e+01 
4.973940e+00 1.571135e+01 
5.008430e+00 1.549783e+01 
5.043810e+00 1.528317e+01 
5.078840e+00 1.507480e+01 
5.113500e+00 1.487248e+01 
5.148890e+00 1.467019e+01 
5.184210e+00 1.447208e+01 
5.219060e+00 1.428032e+01 
5.253660e+00 1.409371e+01 
5.288570e+00 1.390881e+01 
5.323420e+00 1.372778e+01 
5.358440e+00 1.354936e+01 
5.393590e+00 1.337347e+01 
5.428310e+00 1.320313e+01 
5.462800e+00 1.303702e+01 
5.497640e+00 1.287213e+01 
5.532670e+00 1.270955e+01 
5.567280e+00 1.255178e+01 
5.602000e+00 1.239620e+01 
5.637270e+00 1.224124e+01 
5.672410e+00 1.208957e+01 
5.707020e+00 1.194270e+01 
5.742040e+00 1.179694e+01 
5.777430e+00 1.165218e+01 
5.812210e+00 1.151228e+01 
5.846820e+00 1.137565e+01 
5.881610e+00 1.124062e+01 
5.916510e+00 1.110737e+01 
5.951600e+00 1.097588e+01 
5.986560e+00 1.084715e+01 
6.021830e+00 1.071936e+01 
6.056490e+00 1.059602e+01 
6.091160e+00 1.047477e+01 
6.125830e+00 1.035542e+01 
6.161090e+00 1.023606e+01 
6.195760e+00 1.012080e+01 
6.230420e+00 1.000733e+01 
6.265690e+00 9.893668e+00 
6.300950e+00 9.782200e+00 
6.335620e+00 9.674265e+00 
6.370880e+00 9.566155e+00 
6.405550e+00 9.461721e+00 
6.440220e+00 9.358945e+00 
6.475480e+00 9.255978e+00 
6.510150e+00 9.156344e+00 
6.544810e+00 9.058439e+00 
6.580080e+00 8.960272e+00 
6.614750e+00 8.865185e+00 
6.649410e+00 8.771840e+00 
6.684080e+00 8.679873e+00 
6.719340e+00 8.587686e+00 
6.754010e+00 8.498428e+00 
6.788680e+00 8.410641e+00 
6.823940e+00 8.322624e+00 
6.859800e+00 8.234392e+00 
6.894470e+00 8.150537e+00 
6.929140e+00 8.067930e+00 
6.963800e+00 7.986484e+00 
6.999070e+00 7.904768e+00 
7.033730e+00 7.825838e+00 
7.068400e+00 7.747957e+00 
7.103660e+00 7.669829e+00 
7.138330e+00 7.594155e+00 
7.173600e+00 7.518428e+00 
7.208260e+00 7.445010e+00 
7.243530e+00 7.371298e+00 
7.277600e+00 7.301188e+00 
7.312860e+00 7.229721e+00 
7.348120e+00 7.159204e+00 
7.382790e+00 7.090776e+00 
7.417460e+00 7.023401e+00 
7.452720e+00 6.955856e+00 
7.487390e+00 6.890301e+00 
7.522650e+00 6.824489e+00 
7.557320e+00 6.760783e+00 
7.591990e+00 6.697949e+00 
7.627250e+00 6.634858e+00 
7.662510e+00 6.572571e+00 
7.697180e+00 6.512279e+00 
7.731850e+00 6.452806e+00 
7.766510e+00 6.394086e+00 
7.801180e+00 6.336073e+00 
7.836440e+00 6.277957e+00 
7.871110e+00 6.221615e+00 
7.906380e+00 6.165000e+00 
7.941040e+00 6.110043e+00 
7.976310e+00 6.054884e+00 
8.011570e+00 6.000512e+00 
8.046240e+00 5.947695e+00 
8.080900e+00 5.895522e+00 
8.115570e+00 5.843999e+00 
8.150830e+00 5.792399e+00 
8.185500e+00 5.742264e+00 
8.220770e+00 5.691864e+00 
8.255430e+00 5.642918e+00 
8.290100e+00 5.594686e+00 
8.324770e+00 5.547030e+00 
8.359430e+00 5.499936e+00 
8.394700e+00 5.452568e+00 
8.429960e+00 5.405864e+00 
8.464630e+00 5.360569e+00 
8.499890e+00 5.315030e+00 
8.534560e+00 5.270763e+00 
8.569200e+00 5.227032e+00 
