# Parameters:
# omega_b = 0.023232, omega_m = 0.145630, n_s = 0.969685, h = 57.598425, w = -1.000000, sigma_8 = 0.848031
# z = 0.900000
#
# k[1/Mpc] # P(k):
8.694000e-04 7.077133e+03 
2.077466e-03 1.521048e+04 
3.285532e-03 2.165433e+04 
4.493598e-03 2.670235e+04 
5.701664e-03 3.052141e+04 
6.909730e-03 3.329460e+04 
8.117797e-03 3.524060e+04 
9.325863e-03 3.646974e+04 
1.053393e-02 3.709398e+04 
1.174199e-02 3.721885e+04 
1.295006e-02 3.691105e+04 
1.415813e-02 3.626455e+04 
1.536619e-02 3.536190e+04 
1.657426e-02 3.426736e+04 
1.778233e-02 3.308108e+04 
1.899039e-02 3.192841e+04 
2.019846e-02 3.075999e+04 
2.140652e-02 2.953695e+04 
2.261459e-02 2.829757e+04 
2.382266e-02 2.709084e+04 
2.503072e-02 2.594146e+04 
2.623879e-02 2.485847e+04 
2.744685e-02 2.384470e+04 
2.865492e-02 2.290683e+04 
2.986299e-02 2.204404e+04 
3.100100e-02 2.129851e+04 
3.220400e-02 2.057812e+04 
3.288100e-02 2.020241e+04 
3.424300e-02 1.950601e+04 
3.555100e-02 1.890264e+04 
3.686000e-02 1.835628e+04 
3.795000e-02 1.793811e+04 
3.929100e-02 1.746402e+04 
4.039800e-02 1.709882e+04 
4.164000e-02 1.671081e+04 
4.294400e-02 1.631987e+04 
4.415000e-02 1.597083e+04 
4.542900e-02 1.560375e+04 
4.660900e-02 1.526981e+04 
4.782300e-02 1.491923e+04 
4.892900e-02 1.459938e+04 
5.031200e-02 1.419368e+04 
5.155900e-02 1.382043e+04 
5.238100e-02 1.357178e+04 
5.378200e-02 1.314467e+04 
5.513400e-02 1.272785e+04 
5.627600e-02 1.237432e+04 
5.735300e-02 1.204231e+04 
5.870100e-02 1.163081e+04 
5.988700e-02 1.127575e+04 
6.113500e-02 1.091069e+04 
6.225900e-02 1.059104e+04 
6.340100e-02 1.027728e+04 
6.480200e-02 9.909725e+03 
6.601100e-02 9.609010e+03 
6.725500e-02 9.317198e+03 
6.829100e-02 9.089441e+03 
6.958600e-02 8.822506e+03 
7.071100e-02 8.608247e+03 
7.192300e-02 8.394767e+03 
7.307400e-02 8.208167e+03 
7.412300e-02 8.051067e+03 
7.550400e-02 7.863234e+03 
7.663100e-02 7.722693e+03 
7.791200e-02 7.578522e+03 
7.912700e-02 7.454117e+03 
8.027600e-02 7.344686e+03 
8.138400e-02 7.245055e+03 
8.272200e-02 7.130849e+03 
8.406100e-02 7.020910e+03 
8.534100e-02 6.917166e+03 
8.653800e-02 6.819028e+03 
8.759800e-02 6.731105e+03 
8.900300e-02 6.611725e+03 
9.009000e-02 6.515889e+03 
9.113300e-02 6.420096e+03 
9.239600e-02 6.301935e+03 
9.358000e-02 6.187717e+03 
9.496100e-02 6.049796e+03 
9.608400e-02 5.936704e+03 
9.727500e-02 5.816876e+03 
9.852600e-02 5.688758e+03 
9.973800e-02 5.566850e+03 
1.009000e-01 5.452131e+03 
1.020900e-01 5.336733e+03 
1.034000e-01 5.213924e+03 
1.046000e-01 5.105273e+03 
1.057200e-01 5.008414e+03 
1.069100e-01 4.909217e+03 
1.082500e-01 4.803649e+03 
1.093900e-01 4.718646e+03 
1.105400e-01 4.636438e+03 
1.116900e-01 4.559867e+03 
1.129600e-01 4.478845e+03 
1.142000e-01 4.405221e+03 
1.153300e-01 4.341292e+03 
1.166400e-01 4.271332e+03 
1.177800e-01 4.213990e+03 
1.190000e-01 4.155045e+03 
1.201200e-01 4.104025e+03 
1.213400e-01 4.050084e+03 
1.227100e-01 3.992766e+03 
1.238900e-01 3.944797e+03 
1.250700e-01 3.898350e+03 
1.263200e-01 3.850213e+03 
1.275500e-01 3.803764e+03 
1.287500e-01 3.759118e+03 
1.299900e-01 3.713447e+03 
1.311300e-01 3.671717e+03 
1.323500e-01 3.627016e+03 
1.335900e-01 3.581720e+03 
1.347100e-01 3.540513e+03 
1.359800e-01 3.493978e+03 
1.372100e-01 3.448278e+03 
1.384300e-01 3.403299e+03 
1.395700e-01 3.360607e+03 
1.407700e-01 3.316431e+03 
1.420300e-01 3.269277e+03 
1.432800e-01 3.223536e+03 
1.444500e-01 3.180366e+03 
1.456300e-01 3.137725e+03 
1.468900e-01 3.092904e+03 
1.480500e-01 3.052428e+03 
1.491700e-01 3.014242e+03 
1.503800e-01 2.973969e+03 
1.516400e-01 2.933077e+03 
1.528200e-01 2.896305e+03 
1.540200e-01 2.859645e+03 
1.551900e-01 2.825599e+03 
1.564300e-01 2.790462e+03 
1.576600e-01 2.756883e+03 
1.588700e-01 2.725190e+03 
1.600900e-01 2.693900e+03 
1.612700e-01 2.665267e+03 
1.625400e-01 2.635026e+03 
1.637600e-01 2.606996e+03 
1.649500e-01 2.580427e+03 
1.662200e-01 2.552646e+03 
1.674000e-01 2.527619e+03 
1.685000e-01 2.504678e+03 
1.697500e-01 2.479046e+03 
1.710300e-01 2.453271e+03 
1.722200e-01 2.429732e+03 
1.734400e-01 2.405697e+03 
1.746400e-01 2.382449e+03 
1.758700e-01 2.358881e+03 
1.770900e-01 2.335613e+03 
1.782700e-01 2.313483e+03 
1.794600e-01 2.291268e+03 
1.807000e-01 2.268329e+03 
1.819100e-01 2.246320e+03 
1.830100e-01 2.226331e+03 
1.842200e-01 2.204636e+03 
1.855000e-01 2.182060e+03 
1.867000e-01 2.161028e+03 
1.879200e-01 2.139989e+03 
1.890900e-01 2.120122e+03 
1.902800e-01 2.100180e+03 
1.915200e-01 2.079729e+03 
1.926900e-01 2.060754e+03 
1.939000e-01 2.041496e+03 
1.951700e-01 2.021604e+03 
1.963100e-01 2.004059e+03 
1.975100e-01 1.985965e+03 
1.987800e-01 1.967113e+03 
2.000100e-01 1.949204e+03 
2.012500e-01 1.931580e+03 
2.023400e-01 1.916310e+03 
2.036100e-01 1.898815e+03 
2.048900e-01 1.881610e+03 
2.060400e-01 1.866378e+03 
2.072200e-01 1.850979e+03 
2.084200e-01 1.835684e+03 
2.096900e-01 1.819732e+03 
2.109200e-01 1.804511e+03 
2.121100e-01 1.790031e+03 
2.132700e-01 1.776110e+03 
2.145200e-01 1.761318e+03 
2.157200e-01 1.747300e+03 
2.168800e-01 1.733923e+03 
2.180700e-01 1.720383e+03 
2.193400e-01 1.706072e+03 
2.206000e-01 1.691963e+03 
2.217500e-01 1.679259e+03 
2.229500e-01 1.666176e+03 
2.241400e-01 1.653145e+03 
2.253500e-01 1.640065e+03 
2.264900e-01 1.627900e+03 
2.277100e-01 1.614892e+03 
2.289900e-01 1.601253e+03 
2.301500e-01 1.589057e+03 
2.313600e-01 1.576496e+03 
2.325600e-01 1.563860e+03 
2.337700e-01 1.551285e+03 
2.350000e-01 1.538669e+03 
2.362000e-01 1.526380e+03 
2.374100e-01 1.513982e+03 
2.386500e-01 1.501442e+03 
2.399100e-01 1.488868e+03 
2.410400e-01 1.477542e+03 
2.422500e-01 1.465539e+03 
2.435000e-01 1.453298e+03 
2.447300e-01 1.441391e+03 
2.458700e-01 1.430420e+03 
2.470600e-01 1.419105e+03 
2.483300e-01 1.407182e+03 
2.495600e-01 1.395797e+03 
2.507600e-01 1.384848e+03 
2.519600e-01 1.374031e+03 
2.532200e-01 1.362815e+03 
2.543700e-01 1.352800e+03 
2.555500e-01 1.342711e+03 
2.568000e-01 1.332152e+03 
2.580100e-01 1.322054e+03 
2.592400e-01 1.312088e+03 
2.604100e-01 1.302794e+03 
2.616100e-01 1.293371e+03 
2.628400e-01 1.283825e+03 
2.640600e-01 1.274668e+03 
2.652200e-01 1.266139e+03 
2.664300e-01 1.257341e+03 
2.676500e-01 1.248572e+03 
2.688400e-01 1.240281e+03 
2.700700e-01 1.231912e+03 
2.712400e-01 1.224038e+03 
2.724800e-01 1.215786e+03 
2.736700e-01 1.208062e+03 
2.748800e-01 1.200406e+03 
2.761000e-01 1.192771e+03 
2.773200e-01 1.185219e+03 
2.785400e-01 1.177802e+03 
2.797000e-01 1.170934e+03 
2.808900e-01 1.163961e+03 
2.821400e-01 1.156715e+03 
2.833900e-01 1.149553e+03 
2.845500e-01 1.143073e+03 
2.857800e-01 1.136273e+03 
2.870300e-01 1.129436e+03 
2.882100e-01 1.123049e+03 
2.893900e-01 1.116771e+03 
2.906300e-01 1.110266e+03 
2.918900e-01 1.103725e+03 
2.930500e-01 1.097765e+03 
2.942500e-01 1.091667e+03 
2.954200e-01 1.085803e+03 
2.966500e-01 1.079699e+03 
2.978900e-01 1.073609e+03 
2.990400e-01 1.068016e+03 
3.002700e-01 1.062104e+03 
3.015100e-01 1.056208e+03 
3.026800e-01 1.050700e+03 
3.038500e-01 1.045245e+03 
3.050300e-01 1.039794e+03 
3.062600e-01 1.034174e+03 
3.075000e-01 1.028564e+03 
3.087000e-01 1.023187e+03 
3.099100e-01 1.017817e+03 
3.111200e-01 1.012501e+03 
3.123100e-01 1.007327e+03 
3.135300e-01 1.002071e+03 
3.147300e-01 9.969513e+02 
3.159900e-01 9.916265e+02 
3.171800e-01 9.866477e+02 
3.183700e-01 9.817163e+02 
3.196300e-01 9.765439e+02 
3.208400e-01 9.716238e+02 
3.220300e-01 9.668293e+02 
3.232000e-01 9.621618e+02 
3.244300e-01 9.573011e+02 
3.256700e-01 9.524466e+02 
3.269200e-01 9.475988e+02 
3.280800e-01 9.431405e+02 
3.292500e-01 9.386916e+02 
3.304800e-01 9.340589e+02 
3.317100e-01 9.294684e+02 
3.328900e-01 9.251037e+02 
3.340700e-01 9.207768e+02 
3.353600e-01 9.160986e+02 
3.365300e-01 9.118972e+02 
3.377100e-01 9.076960e+02 
3.389200e-01 9.034253e+02 
3.401600e-01 8.990874e+02 
3.413700e-01 8.949026e+02 
3.425300e-01 8.909325e+02 
3.437700e-01 8.867249e+02 
3.449800e-01 8.826548e+02 
3.461800e-01 8.786529e+02 
3.473600e-01 8.747561e+02 
3.485800e-01 8.707743e+02 
3.498100e-01 8.667943e+02 
3.510200e-01 8.629125e+02 
3.522000e-01 8.591583e+02 
3.533900e-01 8.554035e+02 
3.546400e-01 8.515097e+02 
3.558400e-01 8.478042e+02 
3.570600e-01 8.440682e+02 
3.582700e-01 8.403936e+02 
3.595000e-01 8.366894e+02 
3.607100e-01 8.330857e+02 
3.618900e-01 8.296078e+02 
3.631200e-01 8.260119e+02 
3.643200e-01 8.225325e+02 
3.655500e-01 8.189950e+02 
3.667300e-01 8.156287e+02 
3.679500e-01 8.121946e+02 
3.691900e-01 8.087327e+02 
3.703600e-01 8.054922e+02 
3.715700e-01 8.021673e+02 
3.727700e-01 7.988959e+02 
3.739900e-01 7.956036e+02 
3.752000e-01 7.923774e+02 
3.763900e-01 7.892292e+02 
3.775800e-01 7.861054e+02 
3.788200e-01 7.828758e+02 
3.800300e-01 7.797493e+02 
3.812100e-01 7.767304e+02 
3.824200e-01 7.736630e+02 
3.836100e-01 7.706694e+02 
3.848600e-01 7.675493e+02 
3.860400e-01 7.646266e+02 
3.872400e-01 7.616768e+02 
3.884600e-01 7.587116e+02 
3.896500e-01 7.558454e+02 
3.908700e-01 7.529291e+02 
3.920600e-01 7.501059e+02 
3.933100e-01 7.471629e+02 
3.945300e-01 7.443125e+02 
3.957200e-01 7.415619e+02 
3.969300e-01 7.387884e+02 
3.981700e-01 7.359674e+02 
3.993500e-01 7.333029e+02 
4.094840e-01 7.111839e+02 
4.272360e-01 6.756874e+02 
4.454600e-01 6.427640e+02 
4.630560e-01 6.138427e+02 
4.804610e-01 5.876361e+02 
4.980690e-01 5.632422e+02 
5.159230e-01 5.404591e+02 
5.317440e-01 5.217415e+02 
5.489640e-01 5.028121e+02 
5.671990e-01 4.842821e+02 
5.838690e-01 4.685623e+02 
6.018840e-01 4.527707e+02 
6.202330e-01 4.378512e+02 
6.379250e-01 4.244678e+02 
6.545410e-01 4.127397e+02 
6.714560e-01 4.015086e+02 
6.892080e-01 3.904735e+02 
7.066010e-01 3.802978e+02 
7.240540e-01 3.706763e+02 
7.420450e-01 3.613125e+02 
7.593780e-01 3.527689e+02 
7.764720e-01 3.447563e+02 
7.942840e-01 3.368157e+02 
8.116170e-01 3.294340e+02 
8.288310e-01 3.224201e+02 
8.462240e-01 3.156216e+02 
8.631980e-01 3.092388e+02 
8.810700e-01 3.027777e+02 
8.989410e-01 2.965594e+02 
9.166330e-01 2.906172e+02 
9.345640e-01 2.847992e+02 
9.515980e-01 2.794425e+02 
9.688720e-01 2.741734e+02 
9.865640e-01 2.689278e+02 
1.031870e+00 2.562019e+02 
1.063490e+00 2.478186e+02 
1.097920e+00 2.391501e+02 
1.134370e+00 2.304126e+02 
1.167730e+00 2.228002e+02 
1.203830e+00 2.149217e+02 
1.240470e+00 2.073221e+02 
1.275790e+00 2.003001e+02 
1.309140e+00 1.939875e+02 
1.342970e+00 1.878078e+02 
1.378420e+00 1.816335e+02 
1.413200e+00 1.758213e+02 
1.448110e+00 1.702231e+02 
1.484090e+00 1.647101e+02 
1.518820e+00 1.596014e+02 
1.552880e+00 1.547899e+02 
1.588630e+00 1.499429e+02 
1.623230e+00 1.454467e+02 
1.657720e+00 1.411410e+02 
1.692450e+00 1.369872e+02 
1.726400e+00 1.330619e+02 
1.762200e+00 1.290811e+02 
1.797880e+00 1.252816e+02 
1.833270e+00 1.216510e+02 
1.869070e+00 1.181243e+02 
1.903200e+00 1.148915e+02 
1.937740e+00 1.117386e+02 
1.973190e+00 1.086173e+02 
2.007440e+00 1.057167e+02 
2.042160e+00 1.028855e+02 
2.077900e+00 1.000687e+02 
2.112390e+00 9.745687e+01 
2.146220e+00 9.497186e+01 
2.181600e+00 9.246846e+01 
2.216930e+00 9.005918e+01 
2.250760e+00 8.782740e+01 
2.286500e+00 8.554877e+01 
2.321770e+00 8.338245e+01 
2.355950e+00 8.135689e+01 
2.391280e+00 7.932520e+01 
2.426240e+00 7.738269e+01 
2.460670e+00 7.553311e+01 
2.495640e+00 7.371594e+01 
2.531080e+00 7.193361e+01 
2.566220e+00 7.022198e+01 
2.600830e+00 6.859142e+01 
2.635080e+00 6.703078e+01 
2.670340e+00 6.546926e+01 
2.705970e+00 6.394340e+01 
2.740040e+00 6.253028e+01 
2.774520e+00 6.113996e+01 
2.809730e+00 5.976461e+01 
2.844390e+00 5.845275e+01 
2.879960e+00 5.714639e+01 
2.914860e+00 5.590227e+01 
2.949410e+00 5.470727e+01 
2.984440e+00 5.353067e+01 
3.019760e+00 5.238008e+01 
3.054730e+00 5.127494e+01 
3.089030e+00 5.021915e+01 
3.124060e+00 4.917226e+01 
3.159560e+00 4.814220e+01 
3.194710e+00 4.714988e+01 
3.229010e+00 4.620867e+01 
3.263320e+00 4.529421e+01 
3.297930e+00 4.439674e+01 
3.332830e+00 4.351537e+01 
3.368040e+00 4.265057e+01 
3.403300e+00 4.180832e+01 
3.438450e+00 4.099142e+01 
3.473060e+00 4.020874e+01 
3.508440e+00 3.943062e+01 
3.543110e+00 3.868822e+01 
3.577470e+00 3.797025e+01 
3.613040e+00 3.724652e+01 
3.648120e+00 3.655170e+01 
3.682910e+00 3.588038e+01 
3.718050e+00 3.521966e+01 
3.753320e+00 3.457349e+01 
3.787980e+00 3.395456e+01 
3.822290e+00 3.335738e+01 
3.857020e+00 3.276832e+01 
3.891920e+00 3.219040e+01 
3.926650e+00 3.162848e+01 
3.961970e+00 3.107128e+01 
3.997360e+00 3.052762e+01 
4.031670e+00 3.001306e+01 
4.066330e+00 2.950553e+01 
4.101420e+00 2.900370e+01 
4.136200e+00 2.851893e+01 
4.170810e+00 2.804752e+01 
4.206250e+00 2.757597e+01 
4.241580e+00 2.711668e+01 
4.276300e+00 2.667614e+01 
4.310970e+00 2.624634e+01 
4.346120e+00 2.582060e+01 
4.380600e+00 2.541278e+01 
4.414730e+00 2.501775e+01 
4.450350e+00 2.461523e+01 
4.485320e+00 2.422862e+01 
4.519810e+00 2.385605e+01 
4.555430e+00 2.347974e+01 
4.590870e+00 2.311366e+01 
4.625480e+00 2.276435e+01 
4.659910e+00 2.242395e+01 
4.695230e+00 2.208273e+01 
4.729960e+00 2.175421e+01 
4.764450e+00 2.143487e+01 
4.799530e+00 2.111721e+01 
4.834910e+00 2.080329e+01 
4.869700e+00 2.050163e+01 
4.904370e+00 2.020704e+01 
4.939450e+00 1.991509e+01 
4.973940e+00 1.963438e+01 
5.008430e+00 1.935903e+01 
5.043810e+00 1.908256e+01 
5.078840e+00 1.881443e+01 
5.113500e+00 1.855414e+01 
5.148890e+00 1.829437e+01 
5.184210e+00 1.804006e+01 
5.219060e+00 1.779406e+01 
5.253660e+00 1.755498e+01 
5.288570e+00 1.731816e+01 
5.323420e+00 1.708650e+01 
5.358440e+00 1.685842e+01 
5.393590e+00 1.663363e+01 
5.428310e+00 1.641618e+01 
5.462800e+00 1.620431e+01 
5.497640e+00 1.599403e+01 
5.532670e+00 1.578696e+01 
5.567280e+00 1.558613e+01 
5.602000e+00 1.538813e+01 
5.637270e+00 1.519117e+01 
5.672410e+00 1.499848e+01 
5.707020e+00 1.481191e+01 
5.742040e+00 1.462701e+01 
5.777430e+00 1.444345e+01 
5.812210e+00 1.426609e+01 
5.846820e+00 1.409307e+01 
5.881610e+00 1.392216e+01 
5.916510e+00 1.375351e+01 
5.951600e+00 1.358728e+01 
5.986560e+00 1.342461e+01 
6.021830e+00 1.326316e+01 
6.056490e+00 1.310744e+01 
6.091160e+00 1.295448e+01 
6.125830e+00 1.280393e+01 
6.161090e+00 1.265345e+01 
6.195760e+00 1.250826e+01 
6.230420e+00 1.236536e+01 
6.265690e+00 1.222222e+01 
6.300950e+00 1.208202e+01 
6.335620e+00 1.194628e+01 
6.370880e+00 1.181034e+01 
6.405550e+00 1.167912e+01 
6.440220e+00 1.155004e+01 
6.475480e+00 1.142074e+01 
6.510150e+00 1.129567e+01 
6.544810e+00 1.117288e+01 
6.580080e+00 1.104976e+01 
6.614750e+00 1.093053e+01 
6.649410e+00 1.081357e+01 
6.684080e+00 1.069837e+01 
6.719340e+00 1.058290e+01 
6.754010e+00 1.047114e+01 
6.788680e+00 1.036130e+01 
6.823940e+00 1.025118e+01 
6.859800e+00 1.014080e+01 
6.894470e+00 1.003596e+01 
6.929140e+00 9.932715e+00 
6.963800e+00 9.830928e+00 
6.999070e+00 9.728819e+00 
7.033730e+00 9.630266e+00 
7.068400e+00 9.533031e+00 
7.103660e+00 9.435498e+00 
7.138330e+00 9.341055e+00 
7.173600e+00 9.246591e+00 
7.208260e+00 9.155016e+00 
7.243530e+00 9.063082e+00 
7.277600e+00 8.975674e+00 
7.312860e+00 8.886607e+00 
7.348120e+00 8.798732e+00 
7.382790e+00 8.713467e+00 
7.417460e+00 8.629546e+00 
7.452720e+00 8.545433e+00 
7.487390e+00 8.463804e+00 
7.522650e+00 8.381863e+00 
7.557320e+00 8.302574e+00 
7.591990e+00 8.224384e+00 
7.627250e+00 8.145881e+00 
7.662510e+00 8.068385e+00 
7.697180e+00 7.993399e+00 
7.731850e+00 7.919447e+00 
7.766510e+00 7.846436e+00 
7.801180e+00 7.774309e+00 
7.836440e+00 7.702073e+00 
7.871110e+00 7.632051e+00 
7.906380e+00 7.561697e+00 
7.941040e+00 7.493410e+00 
7.976310e+00 7.424882e+00 
8.011570e+00 7.357349e+00 
8.046240e+00 7.291751e+00 
8.080900e+00 7.226958e+00 
8.115570e+00 7.162980e+00 
8.150830e+00 7.098920e+00 
8.185500e+00 7.036683e+00 
8.220770e+00 6.974121e+00 
8.255430e+00 6.913369e+00 
8.290100e+00 6.853518e+00 
8.324770e+00 6.794387e+00 
8.359430e+00 6.735959e+00 
8.394700e+00 6.677195e+00 
8.429960e+00 6.619259e+00 
8.464630e+00 6.563075e+00 
8.499890e+00 6.506592e+00 
8.534560e+00 6.451690e+00 
8.569200e+00 6.397457e+00 
