# Parameters:
# omega_b = 0.022634, omega_m = 0.123583, n_s = 0.996457, h = 69.881890, w = -1.000000, sigma_8 = 0.770866
# z = 0.900000
#
# k[1/Mpc] # P(k):
8.694000e-04 7.665853e+03 
2.077466e-03 1.659999e+04 
3.285532e-03 2.349954e+04 
4.493598e-03 2.867483e+04 
5.701664e-03 3.238579e+04 
6.909730e-03 3.488468e+04 
8.117797e-03 3.644990e+04 
9.325863e-03 3.722597e+04 
1.053393e-02 3.735547e+04 
1.174199e-02 3.696928e+04 
1.295006e-02 3.615197e+04 
1.415813e-02 3.501559e+04 
1.536619e-02 3.365522e+04 
1.657426e-02 3.214071e+04 
1.778233e-02 3.055225e+04 
1.899039e-02 2.899026e+04 
2.019846e-02 2.745596e+04 
2.140652e-02 2.595578e+04 
2.261459e-02 2.451927e+04 
2.382266e-02 2.317876e+04 
2.503072e-02 2.194908e+04 
2.623879e-02 2.083270e+04 
2.744685e-02 1.983079e+04 
2.865492e-02 1.893827e+04 
2.986299e-02 1.814730e+04 
3.100100e-02 1.749096e+04 
3.220400e-02 1.688000e+04 
3.288100e-02 1.657195e+04 
3.424300e-02 1.601703e+04 
3.555100e-02 1.555097e+04 
3.686000e-02 1.513904e+04 
3.795000e-02 1.482742e+04 
3.929100e-02 1.447375e+04 
4.039800e-02 1.419661e+04 
4.164000e-02 1.389475e+04 
4.294400e-02 1.357449e+04 
4.415000e-02 1.327682e+04 
4.542900e-02 1.294498e+04 
4.660900e-02 1.263158e+04 
4.782300e-02 1.228601e+04 
4.892900e-02 1.196289e+04 
5.031200e-02 1.154348e+04 
5.155900e-02 1.115187e+04 
5.238100e-02 1.089007e+04 
5.378200e-02 1.044106e+04 
5.513400e-02 1.000752e+04 
5.627600e-02 9.645944e+03 
5.735300e-02 9.312914e+03 
5.870100e-02 8.910676e+03 
5.988700e-02 8.573895e+03 
6.113500e-02 8.238727e+03 
6.225900e-02 7.955951e+03 
6.340100e-02 7.688672e+03 
6.480200e-02 7.387188e+03 
6.601100e-02 7.153000e+03 
6.725500e-02 6.935892e+03 
6.829100e-02 6.774966e+03 
6.958600e-02 6.593282e+03 
7.071100e-02 6.454422e+03 
7.192300e-02 6.321507e+03 
7.307400e-02 6.209522e+03 
7.412300e-02 6.117849e+03 
7.550400e-02 6.010878e+03 
7.663100e-02 5.931440e+03 
7.791200e-02 5.848915e+03 
7.912700e-02 5.774446e+03 
8.027600e-02 5.705137e+03 
8.138400e-02 5.638020e+03 
8.272200e-02 5.554672e+03 
8.406100e-02 5.467154e+03 
8.534100e-02 5.376417e+03 
8.653800e-02 5.284745e+03 
8.759800e-02 5.199707e+03 
8.900300e-02 5.080635e+03 
9.009000e-02 4.983170e+03 
9.113300e-02 4.885361e+03 
9.239600e-02 4.765008e+03 
9.358000e-02 4.649676e+03 
9.496100e-02 4.513121e+03 
9.608400e-02 4.403271e+03 
9.727500e-02 4.288712e+03 
9.852600e-02 4.170947e+03 
9.973800e-02 4.061453e+03 
1.009000e-01 3.960522e+03 
1.020900e-01 3.864217e+03 
1.034000e-01 3.764368e+03 
1.046000e-01 3.678738e+03 
1.057200e-01 3.606935e+03 
1.069100e-01 3.535041e+03 
1.082500e-01 3.463174e+03 
1.093900e-01 3.407993e+03 
1.105400e-01 3.356201e+03 
1.116900e-01 3.311155e+03 
1.129600e-01 3.264411e+03 
1.142000e-01 3.223948e+03 
1.153300e-01 3.189065e+03 
1.166400e-01 3.151309e+03 
1.177800e-01 3.119624e+03 
1.190000e-01 3.086700e+03 
1.201200e-01 3.055790e+03 
1.213400e-01 3.022665e+03 
1.227100e-01 2.982599e+03 
1.238900e-01 2.947941e+03 
1.250700e-01 2.910706e+03 
1.263200e-01 2.870747e+03 
1.275500e-01 2.829161e+03 
1.287500e-01 2.787984e+03 
1.299900e-01 2.743975e+03 
1.311300e-01 2.703275e+03 
1.323500e-01 2.658953e+03 
1.335900e-01 2.614282e+03 
1.347100e-01 2.573933e+03 
1.359800e-01 2.529045e+03 
1.372100e-01 2.486218e+03 
1.384300e-01 2.444869e+03 
1.395700e-01 2.407398e+03 
1.407700e-01 2.368937e+03 
1.420300e-01 2.330564e+03 
1.432800e-01 2.293379e+03 
1.444500e-01 2.260821e+03 
1.456300e-01 2.228676e+03 
1.468900e-01 2.196429e+03 
1.480500e-01 2.167761e+03 
1.491700e-01 2.141286e+03 
1.503800e-01 2.114091e+03 
1.516400e-01 2.086601e+03 
1.528200e-01 2.062446e+03 
1.540200e-01 2.038356e+03 
1.551900e-01 2.016084e+03 
1.564300e-01 1.993117e+03 
1.576600e-01 1.971013e+03 
1.588700e-01 1.949965e+03 
1.600900e-01 1.929143e+03 
1.612700e-01 1.909435e+03 
1.625400e-01 1.888618e+03 
1.637600e-01 1.868780e+03 
1.649500e-01 1.849652e+03 
1.662200e-01 1.829515e+03 
1.674000e-01 1.810597e+03 
1.685000e-01 1.793259e+03 
1.697500e-01 1.773494e+03 
1.710300e-01 1.753228e+03 
1.722200e-01 1.734726e+03 
1.734400e-01 1.715293e+03 
1.746400e-01 1.696480e+03 
1.758700e-01 1.677341e+03 
1.770900e-01 1.658295e+03 
1.782700e-01 1.640191e+03 
1.794600e-01 1.622041e+03 
1.807000e-01 1.603319e+03 
1.819100e-01 1.585367e+03 
1.830100e-01 1.569281e+03 
1.842200e-01 1.551866e+03 
1.855000e-01 1.533772e+03 
1.867000e-01 1.517304e+03 
1.879200e-01 1.500838e+03 
1.890900e-01 1.485364e+03 
1.902800e-01 1.470198e+03 
1.915200e-01 1.454651e+03 
1.926900e-01 1.440321e+03 
1.939000e-01 1.426079e+03 
1.951700e-01 1.411371e+03 
1.963100e-01 1.398477e+03 
1.975100e-01 1.385384e+03 
1.987800e-01 1.371744e+03 
2.000100e-01 1.358832e+03 
2.012500e-01 1.346227e+03 
2.023400e-01 1.335306e+03 
2.036100e-01 1.322796e+03 
2.048900e-01 1.310500e+03 
2.060400e-01 1.299615e+03 
2.072200e-01 1.288603e+03 
2.084200e-01 1.277579e+03 
2.096900e-01 1.266083e+03 
2.109200e-01 1.255114e+03 
2.121100e-01 1.244541e+03 
2.132700e-01 1.234371e+03 
2.145200e-01 1.223566e+03 
2.157200e-01 1.213229e+03 
2.168800e-01 1.203321e+03 
2.180700e-01 1.193295e+03 
2.193400e-01 1.182667e+03 
2.206000e-01 1.172131e+03 
2.217500e-01 1.162646e+03 
2.229500e-01 1.152881e+03 
2.241400e-01 1.143129e+03 
2.253500e-01 1.133342e+03 
2.264900e-01 1.124242e+03 
2.277100e-01 1.114542e+03 
2.289900e-01 1.104405e+03 
2.301500e-01 1.095343e+03 
2.313600e-01 1.086012e+03 
2.325600e-01 1.076738e+03 
2.337700e-01 1.067510e+03 
2.350000e-01 1.058253e+03 
2.362000e-01 1.049302e+03 
2.374100e-01 1.040345e+03 
2.386500e-01 1.031288e+03 
2.399100e-01 1.022208e+03 
2.410400e-01 1.014141e+03 
2.422500e-01 1.005607e+03 
2.435000e-01 9.969059e+02 
2.447300e-01 9.884626e+02 
2.458700e-01 9.807629e+02 
2.470600e-01 9.728229e+02 
2.483300e-01 9.644571e+02 
2.495600e-01 9.564947e+02 
2.507600e-01 9.488718e+02 
2.519600e-01 9.413420e+02 
2.532200e-01 9.335341e+02 
2.543700e-01 9.265709e+02 
2.555500e-01 9.195611e+02 
2.568000e-01 9.122252e+02 
2.580100e-01 9.052104e+02 
2.592400e-01 8.982686e+02 
2.604100e-01 8.917881e+02 
2.616100e-01 8.852179e+02 
2.628400e-01 8.785623e+02 
2.640600e-01 8.721393e+02 
2.652200e-01 8.661413e+02 
2.664300e-01 8.599549e+02 
2.676500e-01 8.537889e+02 
2.688400e-01 8.479182e+02 
2.700700e-01 8.419656e+02 
2.712400e-01 8.363663e+02 
2.724800e-01 8.304980e+02 
2.736700e-01 8.249733e+02 
2.748800e-01 8.194626e+02 
2.761000e-01 8.139676e+02 
2.773200e-01 8.085331e+02 
2.785400e-01 8.031774e+02 
2.797000e-01 7.981795e+02 
2.808900e-01 7.931059e+02 
2.821400e-01 7.878340e+02 
2.833900e-01 7.826215e+02 
2.845500e-01 7.778646e+02 
2.857800e-01 7.728731e+02 
2.870300e-01 7.678552e+02 
2.882100e-01 7.631681e+02 
2.893900e-01 7.585414e+02 
2.906300e-01 7.537366e+02 
2.918900e-01 7.489065e+02 
2.930500e-01 7.445055e+02 
2.942500e-01 7.399997e+02 
2.954200e-01 7.356549e+02 
2.966500e-01 7.311334e+02 
2.978900e-01 7.266223e+02 
2.990400e-01 7.224802e+02 
3.002700e-01 7.180967e+02 
3.015100e-01 7.137240e+02 
3.026800e-01 7.096391e+02 
3.038500e-01 7.055933e+02 
3.050300e-01 7.015523e+02 
3.062600e-01 6.973855e+02 
3.075000e-01 6.932269e+02 
3.087000e-01 6.892420e+02 
3.099100e-01 6.852628e+02 
3.111200e-01 6.813258e+02 
3.123100e-01 6.774968e+02 
3.135300e-01 6.736089e+02 
3.147300e-01 6.698213e+02 
3.159900e-01 6.658829e+02 
3.171800e-01 6.622055e+02 
3.183700e-01 6.585666e+02 
3.196300e-01 6.547503e+02 
3.208400e-01 6.511207e+02 
3.220300e-01 6.475841e+02 
3.232000e-01 6.441481e+02 
3.244300e-01 6.405729e+02 
3.256700e-01 6.370026e+02 
3.269200e-01 6.334377e+02 
3.280800e-01 6.301596e+02 
3.292500e-01 6.268948e+02 
3.304800e-01 6.234975e+02 
3.317100e-01 6.201314e+02 
3.328900e-01 6.169313e+02 
3.340700e-01 6.137592e+02 
3.353600e-01 6.103366e+02 
3.365300e-01 6.072657e+02 
3.377100e-01 6.041953e+02 
3.389200e-01 6.010744e+02 
3.401600e-01 5.979047e+02 
3.413700e-01 5.948514e+02 
3.425300e-01 5.919579e+02 
3.437700e-01 5.888915e+02 
3.449800e-01 5.859257e+02 
3.461800e-01 5.830098e+02 
3.473600e-01 5.801724e+02 
3.485800e-01 5.772773e+02 
3.498100e-01 5.743837e+02 
3.510200e-01 5.715617e+02 
3.522000e-01 5.688328e+02 
3.533900e-01 5.661036e+02 
3.546400e-01 5.632784e+02 
3.558400e-01 5.605903e+02 
3.570600e-01 5.578803e+02 
3.582700e-01 5.552150e+02 
3.595000e-01 5.525284e+02 
3.607100e-01 5.499167e+02 
3.618900e-01 5.473977e+02 
3.631200e-01 5.447934e+02 
3.643200e-01 5.422736e+02 
3.655500e-01 5.397121e+02 
3.667300e-01 5.372746e+02 
3.679500e-01 5.347907e+02 
3.691900e-01 5.322869e+02 
3.703600e-01 5.299434e+02 
3.715700e-01 5.275390e+02 
3.727700e-01 5.251734e+02 
3.739900e-01 5.227933e+02 
3.752000e-01 5.204618e+02 
3.763900e-01 5.181868e+02 
3.775800e-01 5.159296e+02 
3.788200e-01 5.135960e+02 
3.800300e-01 5.113371e+02 
3.812100e-01 5.091568e+02 
3.824200e-01 5.069421e+02 
3.836100e-01 5.047808e+02 
3.848600e-01 5.025282e+02 
3.860400e-01 5.004183e+02 
3.872400e-01 4.982889e+02 
3.884600e-01 4.961492e+02 
3.896500e-01 4.940812e+02 
3.908700e-01 4.919772e+02 
3.920600e-01 4.899405e+02 
3.933100e-01 4.878174e+02 
3.945300e-01 4.857612e+02 
3.957200e-01 4.837780e+02 
3.969300e-01 4.817785e+02 
3.981700e-01 4.797450e+02 
3.993500e-01 4.778243e+02 
4.094840e-01 4.618946e+02 
4.272360e-01 4.363772e+02 
4.454600e-01 4.128029e+02 
4.630560e-01 3.921932e+02 
4.804610e-01 3.736075e+02 
4.980690e-01 3.563925e+02 
5.159230e-01 3.403815e+02 
5.317440e-01 3.272738e+02 
5.489640e-01 3.140569e+02 
5.671990e-01 3.011463e+02 
5.838690e-01 2.902123e+02 
6.018840e-01 2.792491e+02 
6.202330e-01 2.689118e+02 
6.379250e-01 2.596455e+02 
6.545410e-01 2.515426e+02 
6.714560e-01 2.438033e+02 
6.892080e-01 2.362087e+02 
7.066010e-01 2.292365e+02 
7.240540e-01 2.226602e+02 
7.420450e-01 2.162946e+02 
7.593780e-01 2.105150e+02 
7.764720e-01 2.051214e+02 
7.942840e-01 1.998043e+02 
8.116170e-01 1.949001e+02 
8.288310e-01 1.902730e+02 
8.462240e-01 1.858187e+02 
8.631980e-01 1.816696e+02 
8.810700e-01 1.774987e+02 
8.989410e-01 1.735158e+02 
9.166330e-01 1.697398e+02 
9.345640e-01 1.660725e+02 
9.515980e-01 1.627247e+02 
9.688720e-01 1.594570e+02 
9.865640e-01 1.562325e+02 
1.031870e+00 1.484972e+02 
1.063490e+00 1.434836e+02 
1.097920e+00 1.383609e+02 
1.134370e+00 1.332549e+02 
1.167730e+00 1.288555e+02 
1.203830e+00 1.243472e+02 
1.240470e+00 1.200319e+02 
1.275790e+00 1.160800e+02 
1.309140e+00 1.125435e+02 
1.342970e+00 1.091062e+02 
1.378420e+00 1.056851e+02 
1.413200e+00 1.024790e+02 
1.448110e+00 9.940147e+01 
1.484090e+00 9.637925e+01 
1.518820e+00 9.358431e+01 
1.552880e+00 9.095744e+01 
1.588630e+00 8.831295e+01 
1.623230e+00 8.586334e+01 
1.657720e+00 8.351842e+01 
1.692450e+00 8.125629e+01 
1.726400e+00 7.911940e+01 
1.762200e+00 7.695233e+01 
1.797880e+00 7.488126e+01 
1.833270e+00 7.290171e+01 
1.869070e+00 7.097744e+01 
1.903200e+00 6.921029e+01 
1.937740e+00 6.748505e+01 
1.973190e+00 6.577563e+01 
2.007440e+00 6.418379e+01 
2.042160e+00 6.262736e+01 
2.077900e+00 6.107645e+01 
2.112390e+00 5.963551e+01 
2.146220e+00 5.826218e+01 
2.181600e+00 5.687585e+01 
2.216930e+00 5.553859e+01 
2.250760e+00 5.429737e+01 
2.286500e+00 5.302756e+01 
2.321770e+00 5.181770e+01 
2.355950e+00 5.068377e+01 
2.391280e+00 4.954371e+01 
2.426240e+00 4.845061e+01 
2.460670e+00 4.740738e+01 
2.495640e+00 4.638046e+01 
2.531080e+00 4.537080e+01 
2.566220e+00 4.439829e+01 
2.600830e+00 4.346954e+01 
2.635080e+00 4.257858e+01 
2.670340e+00 4.168408e+01 
2.705970e+00 4.080809e+01 
2.740040e+00 3.999521e+01 
2.774520e+00 3.919375e+01 
2.809730e+00 3.839823e+01 
2.844390e+00 3.763752e+01 
2.879960e+00 3.687788e+01 
2.914860e+00 3.615257e+01 
2.949410e+00 3.545439e+01 
2.984440e+00 3.476459e+01 
3.019760e+00 3.408869e+01 
3.054730e+00 3.343833e+01 
3.089030e+00 3.281428e+01 
3.124060e+00 3.219445e+01 
3.159560e+00 3.158333e+01 
3.194710e+00 3.099253e+01 
3.229010e+00 3.043105e+01 
3.263320e+00 2.988347e+01 
3.297930e+00 2.934522e+01 
3.332830e+00 2.881545e+01 
3.368040e+00 2.829415e+01 
3.403300e+00 2.778520e+01 
3.438450e+00 2.728987e+01 
3.473060e+00 2.681454e+01 
3.508440e+00 2.634047e+01 
3.543110e+00 2.588749e+01 
3.577470e+00 2.544770e+01 
3.613040e+00 2.500373e+01 
3.648120e+00 2.457640e+01 
3.682910e+00 2.416271e+01 
3.718050e+00 2.375435e+01 
3.753320e+00 2.335414e+01 
3.787980e+00 2.296976e+01 
3.822290e+00 2.259812e+01 
3.857020e+00 2.223055e+01 
3.891920e+00 2.186924e+01 
3.926650e+00 2.151693e+01 
3.961970e+00 2.116699e+01 
3.997360e+00 2.082454e+01 
4.031670e+00 2.049998e+01 
4.066330e+00 2.017884e+01 
4.101420e+00 1.986103e+01 
4.136200e+00 1.955294e+01 
4.170810e+00 1.925313e+01 
4.206250e+00 1.895228e+01 
4.241580e+00 1.865890e+01 
4.276300e+00 1.837671e+01 
4.310970e+00 1.810089e+01 
4.346120e+00 1.782719e+01 
4.380600e+00 1.756434e+01 
4.414730e+00 1.730955e+01 
4.450350e+00 1.704896e+01 
4.485320e+00 1.679851e+01 
4.519810e+00 1.655649e+01 
4.555430e+00 1.631167e+01 
4.590870e+00 1.607314e+01 
4.625480e+00 1.584495e+01 
4.659910e+00 1.562246e+01 
4.695230e+00 1.539872e+01 
4.729960e+00 1.518308e+01 
4.764450e+00 1.497314e+01 
4.799530e+00 1.476379e+01 
4.834910e+00 1.455680e+01 
4.869700e+00 1.435730e+01 
4.904370e+00 1.416231e+01 
4.939450e+00 1.396881e+01 
4.973940e+00 1.378228e+01 
5.008430e+00 1.359922e+01 
5.043810e+00 1.341500e+01 
5.078840e+00 1.323606e+01 
5.113500e+00 1.306228e+01 
5.148890e+00 1.288832e+01 
5.184210e+00 1.271792e+01 
5.219060e+00 1.255290e+01 
5.253660e+00 1.239213e+01 
5.288570e+00 1.223281e+01 
5.323420e+00 1.207671e+01 
5.358440e+00 1.192275e+01 
5.393590e+00 1.177095e+01 
5.428310e+00 1.162381e+01 
5.462800e+00 1.148024e+01 
5.497640e+00 1.133771e+01 
5.532670e+00 1.119704e+01 
5.567280e+00 1.106048e+01 
5.602000e+00 1.092579e+01 
5.637270e+00 1.079151e+01 
5.672410e+00 1.066004e+01 
5.707020e+00 1.053271e+01 
5.742040e+00 1.040622e+01 
5.777430e+00 1.028055e+01 
5.812210e+00 1.015909e+01 
5.846820e+00 1.004037e+01 
5.881610e+00 9.923004e+00 
5.916510e+00 9.807160e+00 
5.951600e+00 9.692770e+00 
5.986560e+00 9.580722e+00 
6.021830e+00 9.469483e+00 
6.056490e+00 9.362051e+00 
6.091160e+00 9.256392e+00 
6.125830e+00 9.152370e+00 
6.161090e+00 9.048307e+00 
6.195760e+00 8.947749e+00 
6.230420e+00 8.848753e+00 
6.265690e+00 8.749566e+00 
6.300950e+00 8.652199e+00 
6.335620e+00 8.557911e+00 
6.370880e+00 8.463462e+00 
6.405550e+00 8.372172e+00 
6.440220e+00 8.282307e+00 
6.475480e+00 8.192267e+00 
6.510150e+00 8.105112e+00 
6.544810e+00 8.019413e+00 
6.580080e+00 7.933478e+00 
6.614750e+00 7.850232e+00 
6.649410e+00 7.768460e+00 
6.684080e+00 7.687880e+00 
6.719340e+00 7.607100e+00 
6.754010e+00 7.528868e+00 
6.788680e+00 7.451887e+00 
6.823940e+00 7.374700e+00 
6.859800e+00 7.297318e+00 
6.894470e+00 7.223737e+00 
6.929140e+00 7.151234e+00 
6.963800e+00 7.079745e+00 
6.999070e+00 7.008012e+00 
7.033730e+00 6.938681e+00 
7.068400e+00 6.870266e+00 
7.103660e+00 6.801631e+00 
7.138330e+00 6.735137e+00 
7.173600e+00 6.668571e+00 
7.208260e+00 6.604030e+00 
7.243530e+00 6.539228e+00 
7.277600e+00 6.477574e+00 
7.312860e+00 6.414710e+00 
7.348120e+00 6.352679e+00 
7.382790e+00 6.292482e+00 
7.417460e+00 6.233191e+00 
7.452720e+00 6.173739e+00 
7.487390e+00 6.116035e+00 
7.522650e+00 6.058102e+00 
7.557320e+00 6.002006e+00 
7.591990e+00 5.946669e+00 
7.627250e+00 5.891103e+00 
7.662510e+00 5.836243e+00 
7.697180e+00 5.783122e+00 
7.731850e+00 5.730716e+00 
7.766510e+00 5.678971e+00 
7.801180e+00 5.627846e+00 
7.836440e+00 5.576619e+00 
7.871110e+00 5.526945e+00 
7.906380e+00 5.477030e+00 
7.941040e+00 5.428575e+00 
7.976310e+00 5.379935e+00 
8.011570e+00 5.331985e+00 
8.046240e+00 5.285403e+00 
8.080900e+00 5.239387e+00 
8.115570e+00 5.193940e+00 
8.150830e+00 5.148411e+00 
8.185500e+00 5.104172e+00 
8.220770e+00 5.059698e+00 
8.255430e+00 5.016505e+00 
8.290100e+00 4.973938e+00 
8.324770e+00 4.931878e+00 
8.359430e+00 4.890312e+00 
8.394700e+00 4.848503e+00 
8.429960e+00 4.807273e+00 
8.464630e+00 4.767282e+00 
8.499890e+00 4.727074e+00 
8.534560e+00 4.687987e+00 
8.569200e+00 4.649372e+00 
