# Parameters:
# omega_b = 0.021925, omega_m = 0.146732, n_s = 0.983858, h = 60.669291, w = -1.000000, sigma_8 = 0.704724
# z = 0.900000
#
# k[1/Mpc] # P(k):
8.694000e-04 4.192740e+03 
2.077466e-03 9.149824e+03 
3.285532e-03 1.312553e+04 
4.493598e-03 1.626009e+04 
5.701664e-03 1.866255e+04 
6.909730e-03 2.043278e+04 
8.117797e-03 2.169472e+04 
9.325863e-03 2.251317e+04 
1.053393e-02 2.295777e+04 
1.174199e-02 2.309590e+04 
1.295006e-02 2.296859e+04 
1.415813e-02 2.263242e+04 
1.536619e-02 2.213731e+04 
1.657426e-02 2.152186e+04 
1.778233e-02 2.084294e+04 
1.899039e-02 2.016071e+04 
2.019846e-02 1.944700e+04 
2.140652e-02 1.869558e+04 
2.261459e-02 1.793335e+04 
2.382266e-02 1.718873e+04 
2.503072e-02 1.647670e+04 
2.623879e-02 1.580336e+04 
2.744685e-02 1.517076e+04 
2.865492e-02 1.458385e+04 
2.986299e-02 1.404278e+04 
3.100100e-02 1.357464e+04 
3.220400e-02 1.312227e+04 
3.288100e-02 1.288666e+04 
3.424300e-02 1.245105e+04 
3.555100e-02 1.207541e+04 
3.686000e-02 1.173768e+04 
3.795000e-02 1.148102e+04 
3.929100e-02 1.119305e+04 
4.039800e-02 1.097316e+04 
4.164000e-02 1.074106e+04 
4.294400e-02 1.050858e+04 
4.415000e-02 1.030110e+04 
4.542900e-02 1.008191e+04 
4.660900e-02 9.881193e+03 
4.782300e-02 9.667349e+03 
4.892900e-02 9.469873e+03 
5.031200e-02 9.215343e+03 
5.155900e-02 8.976889e+03 
5.238100e-02 8.815985e+03 
5.378200e-02 8.536206e+03 
5.513400e-02 8.259296e+03 
5.627600e-02 8.022076e+03 
5.735300e-02 7.797931e+03 
5.870100e-02 7.518973e+03 
5.988700e-02 7.277944e+03 
6.113500e-02 7.030378e+03 
6.225900e-02 6.814377e+03 
6.340100e-02 6.603539e+03 
6.480200e-02 6.358298e+03 
6.601100e-02 6.159956e+03 
6.725500e-02 5.969645e+03 
6.829100e-02 5.823151e+03 
6.958600e-02 5.653285e+03 
7.071100e-02 5.518853e+03 
7.192300e-02 5.386505e+03 
7.307400e-02 5.272128e+03 
7.412300e-02 5.176702e+03 
7.550400e-02 5.063635e+03 
7.663100e-02 4.979440e+03 
7.791200e-02 4.893228e+03 
7.912700e-02 4.818437e+03 
8.027600e-02 4.752094e+03 
8.138400e-02 4.691068e+03 
8.272200e-02 4.620097e+03 
8.406100e-02 4.550633e+03 
8.534100e-02 4.483898e+03 
8.653800e-02 4.419987e+03 
8.759800e-02 4.362376e+03 
8.900300e-02 4.283750e+03 
9.009000e-02 4.220461e+03 
9.113300e-02 4.157192e+03 
9.239600e-02 4.079165e+03 
9.358000e-02 4.003784e+03 
9.496100e-02 3.912791e+03 
9.608400e-02 3.838151e+03 
9.727500e-02 3.759036e+03 
9.852600e-02 3.674176e+03 
9.973800e-02 3.593278e+03 
1.009000e-01 3.517033e+03 
1.020900e-01 3.439974e+03 
1.034000e-01 3.357850e+03 
1.046000e-01 3.285070e+03 
1.057200e-01 3.220091e+03 
1.069100e-01 3.153570e+03 
1.082500e-01 3.082877e+03 
1.093900e-01 3.026147e+03 
1.105400e-01 2.971399e+03 
1.116900e-01 2.920822e+03 
1.129600e-01 2.867491e+03 
1.142000e-01 2.819557e+03 
1.153300e-01 2.778189e+03 
1.166400e-01 2.733315e+03 
1.177800e-01 2.696922e+03 
1.190000e-01 2.659698e+03 
1.201200e-01 2.627846e+03 
1.213400e-01 2.594237e+03 
1.227100e-01 2.558838e+03 
1.238900e-01 2.529224e+03 
1.250700e-01 2.500567e+03 
1.263200e-01 2.470796e+03 
1.275500e-01 2.441912e+03 
1.287500e-01 2.413965e+03 
1.299900e-01 2.385088e+03 
1.311300e-01 2.358443e+03 
1.323500e-01 2.329517e+03 
1.335900e-01 2.299900e+03 
1.347100e-01 2.272560e+03 
1.359800e-01 2.241442e+03 
1.372100e-01 2.210402e+03 
1.384300e-01 2.179697e+03 
1.395700e-01 2.150181e+03 
1.407700e-01 2.119618e+03 
1.420300e-01 2.086655e+03 
1.432800e-01 2.054701e+03 
1.444500e-01 2.024451e+03 
1.456300e-01 1.994593e+03 
1.468900e-01 1.963353e+03 
1.480500e-01 1.935196e+03 
1.491700e-01 1.908805e+03 
1.503800e-01 1.881188e+03 
1.516400e-01 1.853260e+03 
1.528200e-01 1.828594e+03 
1.540200e-01 1.804011e+03 
1.551900e-01 1.781656e+03 
1.564300e-01 1.758706e+03 
1.576600e-01 1.737016e+03 
1.588700e-01 1.716839e+03 
1.600900e-01 1.696940e+03 
1.612700e-01 1.679097e+03 
1.625400e-01 1.660252e+03 
1.637600e-01 1.642876e+03 
1.649500e-01 1.626459e+03 
1.662200e-01 1.609280e+03 
1.674000e-01 1.593724e+03 
1.685000e-01 1.579464e+03 
1.697500e-01 1.563387e+03 
1.710300e-01 1.547075e+03 
1.722200e-01 1.532178e+03 
1.734400e-01 1.516581e+03 
1.746400e-01 1.501478e+03 
1.758700e-01 1.486043e+03 
1.770900e-01 1.470549e+03 
1.782700e-01 1.455815e+03 
1.794600e-01 1.440843e+03 
1.807000e-01 1.425264e+03 
1.819100e-01 1.410320e+03 
1.830100e-01 1.396610e+03 
1.842200e-01 1.381710e+03 
1.855000e-01 1.366209e+03 
1.867000e-01 1.351718e+03 
1.879200e-01 1.337228e+03 
1.890900e-01 1.323558e+03 
1.902800e-01 1.309886e+03 
1.915200e-01 1.295870e+03 
1.926900e-01 1.282897e+03 
1.939000e-01 1.269823e+03 
1.951700e-01 1.256322e+03 
1.963100e-01 1.244458e+03 
1.975100e-01 1.232330e+03 
1.987800e-01 1.219696e+03 
2.000100e-01 1.207738e+03 
2.012500e-01 1.196067e+03 
2.023400e-01 1.185956e+03 
2.036100e-01 1.174397e+03 
2.048900e-01 1.163119e+03 
2.060400e-01 1.153137e+03 
2.072200e-01 1.143052e+03 
2.084200e-01 1.133102e+03 
2.096900e-01 1.122726e+03 
2.109200e-01 1.112826e+03 
2.121100e-01 1.103456e+03 
2.132700e-01 1.094451e+03 
2.145200e-01 1.084883e+03 
2.157200e-01 1.075843e+03 
2.168800e-01 1.067229e+03 
2.180700e-01 1.058511e+03 
2.193400e-01 1.049320e+03 
2.206000e-01 1.040301e+03 
2.217500e-01 1.032180e+03 
2.229500e-01 1.023818e+03 
2.241400e-01 1.015569e+03 
2.253500e-01 1.007292e+03 
2.264900e-01 9.995943e+02 
2.277100e-01 9.914244e+02 
2.289900e-01 9.829263e+02 
2.301500e-01 9.753274e+02 
2.313600e-01 9.675022e+02 
2.325600e-01 9.597728e+02 
2.337700e-01 9.520801e+02 
2.350000e-01 9.443622e+02 
2.362000e-01 9.369102e+02 
2.374100e-01 9.294687e+02 
2.386500e-01 9.219413e+02 
2.399100e-01 9.143928e+02 
2.410400e-01 9.076919e+02 
2.422500e-01 9.006018e+02 
2.435000e-01 8.933707e+02 
2.447300e-01 8.863492e+02 
2.458700e-01 8.799332e+02 
2.470600e-01 8.733153e+02 
2.483300e-01 8.663407e+02 
2.495600e-01 8.596840e+02 
2.507600e-01 8.532869e+02 
2.519600e-01 8.469664e+02 
2.532200e-01 8.404111e+02 
2.543700e-01 8.345299e+02 
2.555500e-01 8.285852e+02 
2.568000e-01 8.223626e+02 
2.580100e-01 8.164114e+02 
2.592400e-01 8.104713e+02 
2.604100e-01 8.049029e+02 
2.616100e-01 7.992566e+02 
2.628400e-01 7.935363e+02 
2.640600e-01 7.879632e+02 
2.652200e-01 7.827376e+02 
2.664300e-01 7.773474e+02 
2.676500e-01 7.719744e+02 
2.688400e-01 7.668184e+02 
2.700700e-01 7.615652e+02 
2.712400e-01 7.566234e+02 
2.724800e-01 7.514439e+02 
2.736700e-01 7.465424e+02 
2.748800e-01 7.416272e+02 
2.761000e-01 7.367258e+02 
2.773200e-01 7.318783e+02 
2.785400e-01 7.270899e+02 
2.797000e-01 7.225981e+02 
2.808900e-01 7.180383e+02 
2.821400e-01 7.133002e+02 
2.833900e-01 7.086145e+02 
2.845500e-01 7.043171e+02 
2.857800e-01 6.998079e+02 
2.870300e-01 6.952747e+02 
2.882100e-01 6.910404e+02 
2.893900e-01 6.868514e+02 
2.906300e-01 6.824964e+02 
2.918900e-01 6.781184e+02 
2.930500e-01 6.741293e+02 
2.942500e-01 6.700431e+02 
2.954200e-01 6.660960e+02 
2.966500e-01 6.619883e+02 
2.978900e-01 6.578901e+02 
2.990400e-01 6.541272e+02 
3.002700e-01 6.501395e+02 
3.015100e-01 6.461590e+02 
3.026800e-01 6.424405e+02 
3.038500e-01 6.387578e+02 
3.050300e-01 6.350792e+02 
3.062600e-01 6.312790e+02 
3.075000e-01 6.274863e+02 
3.087000e-01 6.238521e+02 
3.099100e-01 6.202232e+02 
3.111200e-01 6.166300e+02 
3.123100e-01 6.131308e+02 
3.135300e-01 6.095778e+02 
3.147300e-01 6.061165e+02 
3.159900e-01 6.025175e+02 
3.171800e-01 5.991524e+02 
3.183700e-01 5.958195e+02 
3.196300e-01 5.923242e+02 
3.208400e-01 5.889999e+02 
3.220300e-01 5.857609e+02 
3.232000e-01 5.826102e+02 
3.244300e-01 5.793303e+02 
3.256700e-01 5.760551e+02 
3.269200e-01 5.727848e+02 
3.280800e-01 5.697777e+02 
3.292500e-01 5.667789e+02 
3.304800e-01 5.636571e+02 
3.317100e-01 5.605642e+02 
3.328900e-01 5.576238e+02 
3.340700e-01 5.547093e+02 
3.353600e-01 5.515621e+02 
3.365300e-01 5.487373e+02 
3.377100e-01 5.459131e+02 
3.389200e-01 5.430425e+02 
3.401600e-01 5.401271e+02 
3.413700e-01 5.373183e+02 
3.425300e-01 5.346562e+02 
3.437700e-01 5.318352e+02 
3.449800e-01 5.291067e+02 
3.461800e-01 5.264242e+02 
3.473600e-01 5.238141e+02 
3.485800e-01 5.211511e+02 
3.498100e-01 5.184896e+02 
3.510200e-01 5.158940e+02 
3.522000e-01 5.133840e+02 
3.533900e-01 5.108739e+02 
3.546400e-01 5.082775e+02 
3.558400e-01 5.058072e+02 
3.570600e-01 5.033169e+02 
3.582700e-01 5.008677e+02 
3.595000e-01 4.983991e+02 
3.607100e-01 4.960008e+02 
3.618900e-01 4.936890e+02 
3.631200e-01 4.912990e+02 
3.643200e-01 4.889865e+02 
3.655500e-01 4.866358e+02 
3.667300e-01 4.843990e+02 
3.679500e-01 4.821234e+02 
3.691900e-01 4.798297e+02 
3.703600e-01 4.776829e+02 
3.715700e-01 4.754802e+02 
3.727700e-01 4.733132e+02 
3.739900e-01 4.711344e+02 
3.752000e-01 4.690029e+02 
3.763900e-01 4.669231e+02 
3.775800e-01 4.648595e+02 
3.788200e-01 4.627263e+02 
3.800300e-01 4.606612e+02 
3.812100e-01 4.586706e+02 
3.824200e-01 4.566503e+02 
3.836100e-01 4.546788e+02 
3.848600e-01 4.526240e+02 
3.860400e-01 4.506994e+02 
3.872400e-01 4.487570e+02 
3.884600e-01 4.468081e+02 
3.896500e-01 4.449255e+02 
3.908700e-01 4.430102e+02 
3.920600e-01 4.411561e+02 
3.933100e-01 4.392234e+02 
3.945300e-01 4.373517e+02 
3.957200e-01 4.355497e+02 
3.969300e-01 4.337339e+02 
3.981700e-01 4.318872e+02 
3.993500e-01 4.301430e+02 
4.094840e-01 4.156892e+02 
4.272360e-01 3.925997e+02 
4.454600e-01 3.712941e+02 
4.630560e-01 3.526705e+02 
4.804610e-01 3.358582e+02 
4.980690e-01 3.202668e+02 
5.159230e-01 3.057443e+02 
5.317440e-01 2.938463e+02 
5.489640e-01 2.818443e+02 
5.671990e-01 2.701209e+02 
5.838690e-01 2.601986e+02 
6.018840e-01 2.502628e+02 
6.202330e-01 2.409146e+02 
6.379250e-01 2.325436e+02 
6.545410e-01 2.252447e+02 
6.714560e-01 2.182871e+02 
6.892080e-01 2.114716e+02 
7.066010e-01 2.052341e+02 
7.240540e-01 1.993583e+02 
7.420450e-01 1.936875e+02 
7.593780e-01 1.885485e+02 
7.764720e-01 1.837604e+02 
7.942840e-01 1.790468e+02 
8.116170e-01 1.747083e+02 
8.288310e-01 1.706205e+02 
8.462240e-01 1.666892e+02 
8.631980e-01 1.630325e+02 
8.810700e-01 1.593579e+02 
8.989410e-01 1.558512e+02 
9.166330e-01 1.525286e+02 
9.345640e-01 1.493030e+02 
9.515980e-01 1.463599e+02 
9.688720e-01 1.434878e+02 
9.865640e-01 1.406537e+02 
1.031870e+00 1.338511e+02 
1.063490e+00 1.294400e+02 
1.097920e+00 1.249292e+02 
1.134370e+00 1.204280e+02 
1.167730e+00 1.165473e+02 
1.203830e+00 1.125631e+02 
1.240470e+00 1.087461e+02 
1.275790e+00 1.052450e+02 
1.309140e+00 1.021077e+02 
1.342970e+00 9.905354e+01 
1.378420e+00 9.601141e+01 
1.413200e+00 9.315627e+01 
1.448110e+00 9.041144e+01 
1.484090e+00 8.771415e+01 
1.518820e+00 8.521560e+01 
1.552880e+00 8.286416e+01 
1.588630e+00 8.049364e+01 
1.623230e+00 7.829682e+01 
1.657720e+00 7.619156e+01 
1.692450e+00 7.415788e+01 
1.726400e+00 7.223526e+01 
1.762200e+00 7.028460e+01 
1.797880e+00 6.841703e+01 
1.833270e+00 6.663148e+01 
1.869070e+00 6.489453e+01 
1.903200e+00 6.329739e+01 
1.937740e+00 6.173707e+01 
1.973190e+00 6.019070e+01 
2.007440e+00 5.874919e+01 
2.042160e+00 5.733842e+01 
2.077900e+00 5.593231e+01 
2.112390e+00 5.462448e+01 
2.146220e+00 5.337792e+01 
2.181600e+00 5.211855e+01 
2.216930e+00 5.090283e+01 
2.250760e+00 4.977404e+01 
2.286500e+00 4.861888e+01 
2.321770e+00 4.751758e+01 
2.355950e+00 4.648461e+01 
2.391280e+00 4.544583e+01 
2.426240e+00 4.444916e+01 
2.460670e+00 4.349756e+01 
2.495640e+00 4.256069e+01 
2.531080e+00 4.163942e+01 
2.566220e+00 4.075135e+01 
2.600830e+00 3.990282e+01 
2.635080e+00 3.908851e+01 
2.670340e+00 3.827042e+01 
2.705970e+00 3.746916e+01 
2.740040e+00 3.672562e+01 
2.774520e+00 3.599268e+01 
2.809730e+00 3.526450e+01 
2.844390e+00 3.456786e+01 
2.879960e+00 3.387190e+01 
2.914860e+00 3.320748e+01 
2.949410e+00 3.256782e+01 
2.984440e+00 3.193536e+01 
3.019760e+00 3.131572e+01 
3.054730e+00 3.071952e+01 
3.089030e+00 3.014698e+01 
3.124060e+00 2.957833e+01 
3.159560e+00 2.901776e+01 
3.194710e+00 2.847555e+01 
3.229010e+00 2.796014e+01 
3.263320e+00 2.745716e+01 
3.297930e+00 2.696280e+01 
3.332830e+00 2.647632e+01 
3.368040e+00 2.599750e+01 
3.403300e+00 2.552997e+01 
3.438450e+00 2.507472e+01 
3.473060e+00 2.463781e+01 
3.508440e+00 2.420204e+01 
3.543110e+00 2.378564e+01 
3.577470e+00 2.338123e+01 
3.613040e+00 2.297300e+01 
3.648120e+00 2.258009e+01 
3.682910e+00 2.219967e+01 
3.718050e+00 2.182406e+01 
3.753320e+00 2.145591e+01 
3.787980e+00 2.110227e+01 
3.822290e+00 2.076033e+01 
3.857020e+00 2.042209e+01 
3.891920e+00 2.008959e+01 
3.926650e+00 1.976532e+01 
3.961970e+00 1.944323e+01 
3.997360e+00 1.912804e+01 
4.031670e+00 1.882930e+01 
4.066330e+00 1.853363e+01 
4.101420e+00 1.824104e+01 
4.136200e+00 1.795742e+01 
4.170810e+00 1.768142e+01 
4.206250e+00 1.740450e+01 
4.241580e+00 1.713448e+01 
4.276300e+00 1.687468e+01 
4.310970e+00 1.662070e+01 
4.346120e+00 1.636870e+01 
4.380600e+00 1.612668e+01 
4.414730e+00 1.589209e+01 
4.450350e+00 1.565215e+01 
4.485320e+00 1.542156e+01 
4.519810e+00 1.519871e+01 
4.555430e+00 1.497327e+01 
4.590870e+00 1.475363e+01 
4.625480e+00 1.454350e+01 
4.659910e+00 1.433862e+01 
4.695230e+00 1.413261e+01 
4.729960e+00 1.393406e+01 
4.764450e+00 1.374075e+01 
4.799530e+00 1.354799e+01 
4.834910e+00 1.335740e+01 
4.869700e+00 1.317372e+01 
4.904370e+00 1.299420e+01 
4.939450e+00 1.281605e+01 
4.973940e+00 1.264432e+01 
5.008430e+00 1.247578e+01 
5.043810e+00 1.230620e+01 
5.078840e+00 1.214148e+01 
5.113500e+00 1.198152e+01 
5.148890e+00 1.182137e+01 
5.184210e+00 1.166450e+01 
5.219060e+00 1.151260e+01 
5.253660e+00 1.136463e+01 
5.288570e+00 1.121800e+01 
5.323420e+00 1.107435e+01 
5.358440e+00 1.093267e+01 
5.393590e+00 1.079299e+01 
5.428310e+00 1.065759e+01 
5.462800e+00 1.052549e+01 
5.497640e+00 1.039434e+01 
5.532670e+00 1.026492e+01 
5.567280e+00 1.013928e+01 
5.602000e+00 1.001537e+01 
5.637270e+00 9.891847e+00 
5.672410e+00 9.770916e+00 
5.707020e+00 9.653797e+00 
5.742040e+00 9.537458e+00 
5.777430e+00 9.421888e+00 
5.812210e+00 9.310186e+00 
5.846820e+00 9.201012e+00 
5.881610e+00 9.093088e+00 
5.916510e+00 8.986568e+00 
5.951600e+00 8.881402e+00 
5.986560e+00 8.778398e+00 
6.021830e+00 8.676141e+00 
6.056490e+00 8.577392e+00 
6.091160e+00 8.480283e+00 
6.125830e+00 8.384680e+00 
6.161090e+00 8.289044e+00 
6.195760e+00 8.196637e+00 
6.230420e+00 8.105666e+00 
6.265690e+00 8.014524e+00 
6.300950e+00 7.925080e+00 
6.335620e+00 7.838466e+00 
6.370880e+00 7.751706e+00 
6.405550e+00 7.667853e+00 
6.440220e+00 7.585313e+00 
6.475480e+00 7.502614e+00 
6.510150e+00 7.422572e+00 
6.544810e+00 7.343884e+00 
6.580080e+00 7.264981e+00 
6.614750e+00 7.188549e+00 
6.649410e+00 7.113484e+00 
6.684080e+00 7.039517e+00 
6.719340e+00 6.965369e+00 
6.754010e+00 6.893563e+00 
6.788680e+00 6.822914e+00 
6.823940e+00 6.752077e+00 
6.859800e+00 6.681062e+00 
6.894470e+00 6.613551e+00 
6.929140e+00 6.547035e+00 
6.963800e+00 6.481450e+00 
6.999070e+00 6.415643e+00 
7.033730e+00 6.352056e+00 
7.068400e+00 6.289311e+00 
7.103660e+00 6.226363e+00 
7.138330e+00 6.165386e+00 
7.173600e+00 6.104353e+00 
7.208260e+00 6.045179e+00 
7.243530e+00 5.985764e+00 
7.277600e+00 5.929243e+00 
7.312860e+00 5.871619e+00 
7.348120e+00 5.814758e+00 
7.382790e+00 5.759579e+00 
7.417460e+00 5.705243e+00 
7.452720e+00 5.650766e+00 
7.487390e+00 5.597891e+00 
7.522650e+00 5.544806e+00 
7.557320e+00 5.493416e+00 
7.591990e+00 5.442725e+00 
7.627250e+00 5.391824e+00 
7.662510e+00 5.341571e+00 
7.697180e+00 5.292921e+00 
7.731850e+00 5.244929e+00 
7.766510e+00 5.197543e+00 
7.801180e+00 5.150725e+00 
7.836440e+00 5.103825e+00 
7.871110e+00 5.058355e+00 
7.906380e+00 5.012663e+00 
7.941040e+00 4.968308e+00 
7.976310e+00 4.923787e+00 
8.011570e+00 4.879902e+00 
8.046240e+00 4.837269e+00 
8.080900e+00 4.795154e+00 
8.115570e+00 4.753563e+00 
8.150830e+00 4.711913e+00 
8.185500e+00 4.671444e+00 
8.220770e+00 4.630759e+00 
8.255430e+00 4.591246e+00 
8.290100e+00 4.552311e+00 
8.324770e+00 4.513839e+00 
8.359430e+00 4.475819e+00 
8.394700e+00 4.437577e+00 
8.429960e+00 4.399874e+00 
8.464630e+00 4.363313e+00 
8.499890e+00 4.326553e+00 
8.534560e+00 4.290818e+00 
8.569200e+00 4.255514e+00 
