# Parameters:
# omega_b = 0.021752, omega_m = 0.132126, n_s = 0.884646, h = 65.866142, w = -1.000000, sigma_8 = 0.810236
# z = 0.900000
#
# k[1/Mpc] # P(k):
8.694000e-04 1.164014e+04 
2.077466e-03 2.304028e+04 
3.285532e-03 3.122868e+04 
4.493598e-03 3.707134e+04 
5.701664e-03 4.108358e+04 
6.909730e-03 4.364617e+04 
8.117797e-03 4.512552e+04 
9.325863e-03 4.571227e+04 
1.053393e-02 4.558632e+04 
1.174199e-02 4.490732e+04 
1.295006e-02 4.377368e+04 
1.415813e-02 4.231066e+04 
1.536619e-02 4.062321e+04 
1.657426e-02 3.878754e+04 
1.778233e-02 3.689939e+04 
1.899039e-02 3.506342e+04 
2.019846e-02 3.325361e+04 
2.140652e-02 3.147077e+04 
2.261459e-02 2.975451e+04 
2.382266e-02 2.814400e+04 
2.503072e-02 2.665649e+04 
2.623879e-02 2.529471e+04 
2.744685e-02 2.405827e+04 
2.865492e-02 2.294400e+04 
2.986299e-02 2.194388e+04 
3.100100e-02 2.110105e+04 
3.220400e-02 2.030434e+04 
3.288100e-02 1.989656e+04 
3.424300e-02 1.915209e+04 
3.555100e-02 1.851741e+04 
3.686000e-02 1.794937e+04 
3.795000e-02 1.751704e+04 
3.929100e-02 1.702649e+04 
4.039800e-02 1.664572e+04 
4.164000e-02 1.623687e+04 
4.294400e-02 1.581572e+04 
4.415000e-02 1.543334e+04 
4.542900e-02 1.502142e+04 
4.660900e-02 1.464118e+04 
4.782300e-02 1.423446e+04 
4.892900e-02 1.386052e+04 
5.031200e-02 1.338348e+04 
5.155900e-02 1.294440e+04 
5.238100e-02 1.265299e+04 
5.378200e-02 1.215579e+04 
5.513400e-02 1.167722e+04 
5.627600e-02 1.127788e+04 
5.735300e-02 1.090901e+04 
5.870100e-02 1.046111e+04 
5.988700e-02 1.008328e+04 
6.113500e-02 9.703811e+03 
6.225900e-02 9.379912e+03 
6.340100e-02 9.069795e+03 
6.480200e-02 8.715168e+03 
6.601100e-02 8.433997e+03 
6.725500e-02 8.168198e+03 
6.829100e-02 7.966409e+03 
6.958600e-02 7.734375e+03 
7.071100e-02 7.552395e+03 
7.192300e-02 7.374195e+03 
7.307400e-02 7.220635e+03 
7.412300e-02 7.092536e+03 
7.550400e-02 6.940185e+03 
7.663100e-02 6.825969e+03 
7.791200e-02 6.707202e+03 
7.912700e-02 6.601896e+03 
8.027600e-02 6.506387e+03 
8.138400e-02 6.416593e+03 
8.272200e-02 6.309376e+03 
8.406100e-02 6.201555e+03 
8.534100e-02 6.094945e+03 
8.653800e-02 5.990926e+03 
8.759800e-02 5.896310e+03 
8.900300e-02 5.766294e+03 
9.009000e-02 5.661418e+03 
9.113300e-02 5.556995e+03 
9.239600e-02 5.428935e+03 
9.358000e-02 5.306461e+03 
9.496100e-02 5.161204e+03 
9.608400e-02 5.043934e+03 
9.727500e-02 4.921226e+03 
9.852600e-02 4.793808e+03 
9.973800e-02 4.674516e+03 
1.009000e-01 4.563866e+03 
1.020900e-01 4.456385e+03 
1.034000e-01 4.343885e+03 
1.046000e-01 4.246279e+03 
1.057200e-01 4.162361e+03 
1.069100e-01 4.077530e+03 
1.082500e-01 3.990300e+03 
1.093900e-01 3.921767e+03 
1.105400e-01 3.856487e+03 
1.116900e-01 3.797593e+03 
1.129600e-01 3.735795e+03 
1.142000e-01 3.680706e+03 
1.153300e-01 3.632901e+03 
1.166400e-01 3.580651e+03 
1.177800e-01 3.537126e+03 
1.190000e-01 3.492044e+03 
1.201200e-01 3.451253e+03 
1.213400e-01 3.407797e+03 
1.227100e-01 3.358267e+03 
1.238900e-01 3.316069e+03 
1.250700e-01 3.272790e+03 
1.263200e-01 3.227076e+03 
1.275500e-01 3.181057e+03 
1.287500e-01 3.136117e+03 
1.299900e-01 3.089034e+03 
1.311300e-01 3.045814e+03 
1.323500e-01 2.999216e+03 
1.335900e-01 2.952297e+03 
1.347100e-01 2.909987e+03 
1.359800e-01 2.862769e+03 
1.372100e-01 2.817451e+03 
1.384300e-01 2.773462e+03 
1.395700e-01 2.733080e+03 
1.407700e-01 2.691525e+03 
1.420300e-01 2.649149e+03 
1.432800e-01 2.608073e+03 
1.444500e-01 2.571100e+03 
1.456300e-01 2.534594e+03 
1.468900e-01 2.497256e+03 
1.480500e-01 2.463845e+03 
1.491700e-01 2.432672e+03 
1.503800e-01 2.400236e+03 
1.516400e-01 2.367360e+03 
1.528200e-01 2.338059e+03 
1.540200e-01 2.308845e+03 
1.551900e-01 2.281644e+03 
1.564300e-01 2.253552e+03 
1.576600e-01 2.226533e+03 
1.588700e-01 2.200822e+03 
1.600900e-01 2.175408e+03 
1.612700e-01 2.151610e+03 
1.625400e-01 2.126478e+03 
1.637600e-01 2.102807e+03 
1.649500e-01 2.080148e+03 
1.662200e-01 2.056373e+03 
1.674000e-01 2.034473e+03 
1.685000e-01 2.014403e+03 
1.697500e-01 1.991778e+03 
1.710300e-01 1.968828e+03 
1.722200e-01 1.947875e+03 
1.734400e-01 1.926261e+03 
1.746400e-01 1.905353e+03 
1.758700e-01 1.884161e+03 
1.770900e-01 1.863233e+03 
1.782700e-01 1.843338e+03 
1.794600e-01 1.823447e+03 
1.807000e-01 1.802965e+03 
1.819100e-01 1.783321e+03 
1.830100e-01 1.765680e+03 
1.842200e-01 1.746573e+03 
1.855000e-01 1.726712e+03 
1.867000e-01 1.708488e+03 
1.879200e-01 1.690265e+03 
1.890900e-01 1.673106e+03 
1.902800e-01 1.656114e+03 
1.915200e-01 1.638694e+03 
1.926900e-01 1.622588e+03 
1.939000e-01 1.606418e+03 
1.951700e-01 1.589719e+03 
1.963100e-01 1.575034e+03 
1.975100e-01 1.559997e+03 
1.987800e-01 1.544332e+03 
2.000100e-01 1.529472e+03 
2.012500e-01 1.514891e+03 
2.023400e-01 1.502259e+03 
2.036100e-01 1.487785e+03 
2.048900e-01 1.473540e+03 
2.060400e-01 1.460932e+03 
2.072200e-01 1.448181e+03 
2.084200e-01 1.435462e+03 
2.096900e-01 1.422200e+03 
2.109200e-01 1.409546e+03 
2.121100e-01 1.397441e+03 
2.132700e-01 1.385803e+03 
2.145200e-01 1.373438e+03 
2.157200e-01 1.361686e+03 
2.168800e-01 1.350456e+03 
2.180700e-01 1.339093e+03 
2.193400e-01 1.327086e+03 
2.206000e-01 1.315252e+03 
2.217500e-01 1.304600e+03 
2.229500e-01 1.293632e+03 
2.241400e-01 1.282758e+03 
2.253500e-01 1.271847e+03 
2.264900e-01 1.261701e+03 
2.277100e-01 1.250908e+03 
2.289900e-01 1.239655e+03 
2.301500e-01 1.229593e+03 
2.313600e-01 1.219233e+03 
2.325600e-01 1.208954e+03 
2.337700e-01 1.198726e+03 
2.350000e-01 1.188466e+03 
2.362000e-01 1.178541e+03 
2.374100e-01 1.168608e+03 
2.386500e-01 1.158563e+03 
2.399100e-01 1.148492e+03 
2.410400e-01 1.139528e+03 
2.422500e-01 1.130042e+03 
2.435000e-01 1.120370e+03 
2.447300e-01 1.110980e+03 
2.458700e-01 1.102397e+03 
2.470600e-01 1.093546e+03 
2.483300e-01 1.084220e+03 
2.495600e-01 1.075334e+03 
2.507600e-01 1.066812e+03 
2.519600e-01 1.058394e+03 
2.532200e-01 1.049664e+03 
2.543700e-01 1.041867e+03 
2.555500e-01 1.034009e+03 
2.568000e-01 1.025786e+03 
2.580100e-01 1.017922e+03 
2.592400e-01 1.010130e+03 
2.604100e-01 1.002852e+03 
2.616100e-01 9.954720e+02 
2.628400e-01 9.879967e+02 
2.640600e-01 9.807753e+02 
2.652200e-01 9.740288e+02 
2.664300e-01 9.670705e+02 
2.676500e-01 9.601351e+02 
2.688400e-01 9.535293e+02 
2.700700e-01 9.468300e+02 
2.712400e-01 9.405284e+02 
2.724800e-01 9.339239e+02 
2.736700e-01 9.277059e+02 
2.748800e-01 9.215034e+02 
2.761000e-01 9.153185e+02 
2.773200e-01 9.092017e+02 
2.785400e-01 9.031742e+02 
2.797000e-01 8.975501e+02 
2.808900e-01 8.918409e+02 
2.821400e-01 8.859087e+02 
2.833900e-01 8.800434e+02 
2.845500e-01 8.746935e+02 
2.857800e-01 8.690799e+02 
2.870300e-01 8.634365e+02 
2.882100e-01 8.581651e+02 
2.893900e-01 8.529636e+02 
2.906300e-01 8.475629e+02 
2.918900e-01 8.421337e+02 
2.930500e-01 8.371869e+02 
2.942500e-01 8.321227e+02 
2.954200e-01 8.272410e+02 
2.966500e-01 8.221607e+02 
2.978900e-01 8.170920e+02 
2.990400e-01 8.124381e+02 
3.002700e-01 8.075137e+02 
3.015100e-01 8.026021e+02 
3.026800e-01 7.980137e+02 
3.038500e-01 7.934693e+02 
3.050300e-01 7.889301e+02 
3.062600e-01 7.842493e+02 
3.075000e-01 7.795777e+02 
3.087000e-01 7.751012e+02 
3.099100e-01 7.706312e+02 
3.111200e-01 7.662081e+02 
3.123100e-01 7.619060e+02 
3.135300e-01 7.575376e+02 
3.147300e-01 7.532820e+02 
3.159900e-01 7.488568e+02 
3.171800e-01 7.447246e+02 
3.183700e-01 7.406352e+02 
3.196300e-01 7.363465e+02 
3.208400e-01 7.322675e+02 
3.220300e-01 7.282931e+02 
3.232000e-01 7.244304e+02 
3.244300e-01 7.204106e+02 
3.256700e-01 7.163963e+02 
3.269200e-01 7.123880e+02 
3.280800e-01 7.087022e+02 
3.292500e-01 7.050305e+02 
3.304800e-01 7.012094e+02 
3.317100e-01 6.974234e+02 
3.328900e-01 6.938241e+02 
3.340700e-01 6.902563e+02 
3.353600e-01 6.864061e+02 
3.365300e-01 6.829512e+02 
3.377100e-01 6.794969e+02 
3.389200e-01 6.759858e+02 
3.401600e-01 6.724198e+02 
3.413700e-01 6.689841e+02 
3.425300e-01 6.657276e+02 
3.437700e-01 6.622768e+02 
3.449800e-01 6.589390e+02 
3.461800e-01 6.556574e+02 
3.473600e-01 6.524641e+02 
3.485800e-01 6.492058e+02 
3.498100e-01 6.459492e+02 
3.510200e-01 6.427732e+02 
3.522000e-01 6.397019e+02 
3.533900e-01 6.366304e+02 
3.546400e-01 6.334507e+02 
3.558400e-01 6.304253e+02 
3.570600e-01 6.273753e+02 
3.582700e-01 6.243756e+02 
3.595000e-01 6.213519e+02 
3.607100e-01 6.184129e+02 
3.618900e-01 6.155783e+02 
3.631200e-01 6.126479e+02 
3.643200e-01 6.098125e+02 
3.655500e-01 6.069301e+02 
3.667300e-01 6.041873e+02 
3.679500e-01 6.013932e+02 
3.691900e-01 5.985766e+02 
3.703600e-01 5.959404e+02 
3.715700e-01 5.932356e+02 
3.727700e-01 5.905746e+02 
3.739900e-01 5.878974e+02 
3.752000e-01 5.852754e+02 
3.763900e-01 5.827170e+02 
3.775800e-01 5.801785e+02 
3.788200e-01 5.775542e+02 
3.800300e-01 5.750138e+02 
3.812100e-01 5.725626e+02 
3.824200e-01 5.700730e+02 
3.836100e-01 5.676435e+02 
3.848600e-01 5.651114e+02 
3.860400e-01 5.627397e+02 
3.872400e-01 5.603460e+02 
3.884600e-01 5.579415e+02 
3.896500e-01 5.556179e+02 
3.908700e-01 5.532538e+02 
3.920600e-01 5.509652e+02 
3.933100e-01 5.485796e+02 
3.945300e-01 5.462692e+02 
3.957200e-01 5.440415e+02 
3.969300e-01 5.417958e+02 
3.981700e-01 5.395117e+02 
3.993500e-01 5.373544e+02 
4.094840e-01 5.194657e+02 
4.272360e-01 4.908281e+02 
4.454600e-01 4.643776e+02 
4.630560e-01 4.412499e+02 
4.804610e-01 4.203913e+02 
4.980690e-01 4.010673e+02 
5.159230e-01 3.830987e+02 
5.317440e-01 3.683916e+02 
5.489640e-01 3.535687e+02 
5.671990e-01 3.391018e+02 
5.838690e-01 3.268586e+02 
6.018840e-01 3.145909e+02 
6.202330e-01 3.030311e+02 
6.379250e-01 2.926766e+02 
6.545410e-01 2.836256e+02 
6.714560e-01 2.749800e+02 
6.892080e-01 2.664986e+02 
7.066010e-01 2.587055e+02 
7.240540e-01 2.513532e+02 
7.420450e-01 2.442272e+02 
7.593780e-01 2.377493e+02 
7.764720e-01 2.316963e+02 
7.942840e-01 2.257207e+02 
8.116170e-01 2.201964e+02 
8.288310e-01 2.149735e+02 
8.462240e-01 2.099356e+02 
8.631980e-01 2.052315e+02 
8.810700e-01 2.004931e+02 
8.989410e-01 1.959580e+02 
9.166330e-01 1.916482e+02 
9.345640e-01 1.874525e+02 
9.515980e-01 1.836128e+02 
9.688720e-01 1.798566e+02 
9.865640e-01 1.761405e+02 
1.031870e+00 1.672002e+02 
1.063490e+00 1.613805e+02 
1.097920e+00 1.554150e+02 
1.134370e+00 1.494553e+02 
1.167730e+00 1.443065e+02 
1.203830e+00 1.390211e+02 
1.240470e+00 1.339552e+02 
1.275790e+00 1.293098e+02 
1.309140e+00 1.251512e+02 
1.342970e+00 1.211073e+02 
1.378420e+00 1.170817e+02 
1.413200e+00 1.133097e+02 
1.448110e+00 1.096911e+02 
1.484090e+00 1.061388e+02 
1.518820e+00 1.028573e+02 
1.552880e+00 9.977570e+01 
1.588630e+00 9.667785e+01 
1.623230e+00 9.381082e+01 
1.657720e+00 9.106982e+01 
1.692450e+00 8.842945e+01 
1.726400e+00 8.593926e+01 
1.762200e+00 8.341734e+01 
1.797880e+00 8.101187e+01 
1.833270e+00 7.871590e+01 
1.869070e+00 7.648797e+01 
1.903200e+00 7.444603e+01 
1.937740e+00 7.245564e+01 
1.973190e+00 7.048682e+01 
2.007440e+00 6.865707e+01 
2.042160e+00 6.687144e+01 
2.077900e+00 6.509532e+01 
2.112390e+00 6.344806e+01 
2.146220e+00 6.188122e+01 
2.181600e+00 6.030243e+01 
2.216930e+00 5.878259e+01 
2.250760e+00 5.737447e+01 
2.286500e+00 5.593645e+01 
2.321770e+00 5.456877e+01 
2.355950e+00 5.328926e+01 
2.391280e+00 5.200563e+01 
2.426240e+00 5.077731e+01 
2.460670e+00 4.960706e+01 
2.495640e+00 4.845691e+01 
2.531080e+00 4.732829e+01 
2.566220e+00 4.624348e+01 
2.600830e+00 4.520928e+01 
2.635080e+00 4.421875e+01 
2.670340e+00 4.322676e+01 
2.705970e+00 4.225679e+01 
2.740040e+00 4.135797e+01 
2.774520e+00 4.047319e+01 
2.809730e+00 3.959689e+01 
2.844390e+00 3.876030e+01 
2.879960e+00 3.792647e+01 
2.914860e+00 3.713170e+01 
2.949410e+00 3.636773e+01 
2.984440e+00 3.561455e+01 
3.019760e+00 3.487756e+01 
3.054730e+00 3.416927e+01 
3.089030e+00 3.349147e+01 
3.124060e+00 3.281900e+01 
3.159560e+00 3.215692e+01 
3.194710e+00 3.151818e+01 
3.229010e+00 3.091186e+01 
3.263320e+00 3.032188e+01 
3.297930e+00 2.974257e+01 
3.332830e+00 2.917326e+01 
3.368040e+00 2.861394e+01 
3.403300e+00 2.806863e+01 
3.438450e+00 2.753899e+01 
3.473060e+00 2.703122e+01 
3.508440e+00 2.652582e+01 
3.543110e+00 2.604332e+01 
3.577470e+00 2.557591e+01 
3.613040e+00 2.510448e+01 
3.648120e+00 2.465143e+01 
3.682910e+00 2.421334e+01 
3.718050e+00 2.378163e+01 
3.753320e+00 2.335905e+01 
3.787980e+00 2.295381e+01 
3.822290e+00 2.256246e+01 
3.857020e+00 2.217598e+01 
3.891920e+00 2.179651e+01 
3.926650e+00 2.142708e+01 
3.961970e+00 2.106049e+01 
3.997360e+00 2.070231e+01 
4.031670e+00 2.036312e+01 
4.066330e+00 2.002814e+01 
4.101420e+00 1.969681e+01 
4.136200e+00 1.937620e+01 
4.170810e+00 1.906434e+01 
4.206250e+00 1.875194e+01 
4.241580e+00 1.844752e+01 
4.276300e+00 1.815517e+01 
4.310970e+00 1.786972e+01 
4.346120e+00 1.758675e+01 
4.380600e+00 1.731536e+01 
4.414730e+00 1.705242e+01 
4.450350e+00 1.678401e+01 
4.485320e+00 1.652615e+01 
4.519810e+00 1.627735e+01 
4.555430e+00 1.602589e+01 
4.590870e+00 1.578111e+01 
4.625480e+00 1.554725e+01 
4.659910e+00 1.531933e+01 
4.695230e+00 1.509051e+01 
4.729960e+00 1.487011e+01 
4.764450e+00 1.465572e+01 
4.799530e+00 1.444222e+01 
4.834910e+00 1.423120e+01 
4.869700e+00 1.402814e+01 
4.904370e+00 1.382977e+01 
4.939450e+00 1.363307e+01 
4.973940e+00 1.344370e+01 
5.008430e+00 1.325793e+01 
5.043810e+00 1.307120e+01 
5.078840e+00 1.288998e+01 
5.113500e+00 1.271404e+01 
5.148890e+00 1.253822e+01 
5.184210e+00 1.236607e+01 
5.219060e+00 1.219945e+01 
5.253660e+00 1.203734e+01 
5.288570e+00 1.187673e+01 
5.323420e+00 1.171952e+01 
5.358440e+00 1.156461e+01 
5.393590e+00 1.141192e+01 
5.428310e+00 1.126409e+01 
5.462800e+00 1.111997e+01 
5.497640e+00 1.097692e+01 
5.532670e+00 1.083591e+01 
5.567280e+00 1.069911e+01 
5.602000e+00 1.056422e+01 
5.637270e+00 1.042991e+01 
5.672410e+00 1.029847e+01 
5.707020e+00 1.017121e+01 
5.742040e+00 1.004494e+01 
5.777430e+00 9.919571e+00 
5.812210e+00 9.798422e+00 
5.846820e+00 9.680149e+00 
5.881610e+00 9.563283e+00 
5.916510e+00 9.447963e+00 
5.951600e+00 9.334209e+00 
5.986560e+00 9.222851e+00 
6.021830e+00 9.112325e+00 
6.056490e+00 9.005671e+00 
6.091160e+00 8.900858e+00 
6.125830e+00 8.797692e+00 
6.161090e+00 8.694547e+00 
6.195760e+00 8.594978e+00 
6.230420e+00 8.496977e+00 
6.265690e+00 8.398813e+00 
6.300950e+00 8.302576e+00 
6.335620e+00 8.209401e+00 
6.370880e+00 8.116086e+00 
6.405550e+00 8.025984e+00 
6.440220e+00 7.937337e+00 
6.475480e+00 7.848535e+00 
6.510150e+00 7.762624e+00 
6.544810e+00 7.678230e+00 
6.580080e+00 7.593621e+00 
6.614750e+00 7.511676e+00 
6.649410e+00 7.431267e+00 
6.684080e+00 7.352059e+00 
6.719340e+00 7.272671e+00 
6.754010e+00 7.195826e+00 
6.788680e+00 7.120285e+00 
6.823940e+00 7.044555e+00 
6.859800e+00 6.968648e+00 
6.894470e+00 6.896537e+00 
6.929140e+00 6.825514e+00 
6.963800e+00 6.755496e+00 
6.999070e+00 6.685255e+00 
7.033730e+00 6.617446e+00 
7.068400e+00 6.550544e+00 
7.103660e+00 6.483437e+00 
7.138330e+00 6.418458e+00 
7.173600e+00 6.353466e+00 
7.208260e+00 6.290461e+00 
7.243530e+00 6.227211e+00 
7.277600e+00 6.167077e+00 
7.312860e+00 6.105805e+00 
7.348120e+00 6.045352e+00 
7.382790e+00 5.986695e+00 
7.417460e+00 5.928969e+00 
7.452720e+00 5.871115e+00 
7.487390e+00 5.814969e+00 
7.522650e+00 5.758609e+00 
7.557320e+00 5.704086e+00 
7.591990e+00 5.650323e+00 
7.627250e+00 5.596345e+00 
7.662510e+00 5.543060e+00 
7.697180e+00 5.491512e+00 
7.731850e+00 5.440677e+00 
7.766510e+00 5.390490e+00 
7.801180e+00 5.340911e+00 
7.836440e+00 5.291270e+00 
7.871110e+00 5.243160e+00 
7.906380e+00 5.194821e+00 
7.941040e+00 5.147902e+00 
7.976310e+00 5.100833e+00 
8.011570e+00 5.054465e+00 
8.046240e+00 5.009426e+00 
8.080900e+00 4.964939e+00 
8.115570e+00 4.921015e+00 
8.150830e+00 4.877052e+00 
8.185500e+00 4.834340e+00 
8.220770e+00 4.791405e+00 
8.255430e+00 4.749711e+00 
8.290100e+00 4.708668e+00 
8.324770e+00 4.668123e+00 
8.359430e+00 4.628059e+00 
8.394700e+00 4.587764e+00 
8.429960e+00 4.548050e+00 
8.464630e+00 4.509552e+00 
8.499890e+00 4.470849e+00 
8.534560e+00 4.433228e+00 
8.569200e+00 4.396065e+00 
