# Parameters:
# omega_b = 0.023453, omega_m = 0.134606, n_s = 0.999606, h = 56.417323, w = -1.000000, sigma_8 = 0.799213
# z = 0.900000
#
# k[1/Mpc] # P(k):
8.694000e-04 7.287175e+03 
2.077466e-03 1.596816e+04 
3.285532e-03 2.286291e+04 
4.493598e-03 2.822017e+04 
5.701664e-03 3.222006e+04 
6.909730e-03 3.506500e+04 
8.117797e-03 3.699877e+04 
9.325863e-03 3.814557e+04 
1.053393e-02 3.863258e+04 
1.174199e-02 3.858015e+04 
1.295006e-02 3.806467e+04 
1.415813e-02 3.719260e+04 
1.536619e-02 3.605833e+04 
1.657426e-02 3.474026e+04 
1.778233e-02 3.338045e+04 
1.899039e-02 3.213772e+04 
2.019846e-02 3.090139e+04 
2.140652e-02 2.958928e+04 
2.261459e-02 2.825874e+04 
2.382266e-02 2.697527e+04 
2.503072e-02 2.576593e+04 
2.623879e-02 2.463878e+04 
2.744685e-02 2.359638e+04 
2.865492e-02 2.264201e+04 
2.986299e-02 2.177258e+04 
3.100100e-02 2.102867e+04 
3.220400e-02 2.031566e+04 
3.288100e-02 1.994614e+04 
3.424300e-02 1.926414e+04 
3.555100e-02 1.867507e+04 
3.686000e-02 1.814180e+04 
3.795000e-02 1.773262e+04 
3.929100e-02 1.726559e+04 
4.039800e-02 1.690260e+04 
4.164000e-02 1.651342e+04 
4.294400e-02 1.611550e+04 
4.415000e-02 1.575684e+04 
4.542900e-02 1.537512e+04 
4.660900e-02 1.502569e+04 
4.782300e-02 1.465650e+04 
4.892900e-02 1.431917e+04 
5.031200e-02 1.389136e+04 
5.155900e-02 1.349890e+04 
5.238100e-02 1.323845e+04 
5.378200e-02 1.279317e+04 
5.513400e-02 1.236200e+04 
5.627600e-02 1.199919e+04 
5.735300e-02 1.166088e+04 
5.870100e-02 1.124498e+04 
5.988700e-02 1.088904e+04 
6.113500e-02 1.052602e+04 
6.225900e-02 1.021077e+04 
6.340100e-02 9.903727e+03 
6.480200e-02 9.546623e+03 
6.601100e-02 9.257164e+03 
6.725500e-02 8.978424e+03 
6.829100e-02 8.762666e+03 
6.958600e-02 8.511234e+03 
7.071100e-02 8.310877e+03 
7.192300e-02 8.112380e+03 
7.307400e-02 7.939735e+03 
7.412300e-02 7.794897e+03 
7.550400e-02 7.622191e+03 
7.663100e-02 7.492991e+03 
7.791200e-02 7.359995e+03 
7.912700e-02 7.244189e+03 
8.027600e-02 7.141144e+03 
8.138400e-02 7.046093e+03 
8.272200e-02 6.935170e+03 
8.406100e-02 6.826139e+03 
8.534100e-02 6.720688e+03 
8.653800e-02 6.619070e+03 
8.759800e-02 6.527092e+03 
8.900300e-02 6.401042e+03 
9.009000e-02 6.299262e+03 
9.113300e-02 6.197473e+03 
9.239600e-02 6.072094e+03 
9.358000e-02 5.951382e+03 
9.496100e-02 5.806876e+03 
9.608400e-02 5.689339e+03 
9.727500e-02 5.565616e+03 
9.852600e-02 5.435566e+03 
9.973800e-02 5.312963e+03 
1.009000e-01 5.198529e+03 
1.020900e-01 5.085765e+03 
1.034000e-01 4.966852e+03 
1.046000e-01 4.862779e+03 
1.057200e-01 4.771768e+03 
1.069100e-01 4.679150e+03 
1.082500e-01 4.582208e+03 
1.093900e-01 4.504963e+03 
1.105400e-01 4.430730e+03 
1.116900e-01 4.362383e+03 
1.129600e-01 4.290227e+03 
1.142000e-01 4.224918e+03 
1.153300e-01 4.168067e+03 
1.166400e-01 4.105644e+03 
1.177800e-01 4.053865e+03 
1.190000e-01 4.000339e+03 
1.201200e-01 3.952811e+03 
1.213400e-01 3.902339e+03 
1.227100e-01 3.846674e+03 
1.238900e-01 3.799664e+03 
1.250700e-01 3.752782e+03 
1.263200e-01 3.703740e+03 
1.275500e-01 3.655415e+03 
1.287500e-01 3.608640e+03 
1.299900e-01 3.560277e+03 
1.311300e-01 3.516065e+03 
1.323500e-01 3.468671e+03 
1.335900e-01 3.420913e+03 
1.347100e-01 3.377811e+03 
1.359800e-01 3.329524e+03 
1.372100e-01 3.282853e+03 
1.384300e-01 3.237306e+03 
1.395700e-01 3.194966e+03 
1.407700e-01 3.151284e+03 
1.420300e-01 3.105876e+03 
1.432800e-01 3.061832e+03 
1.444500e-01 3.021296e+03 
1.456300e-01 2.981254e+03 
1.468900e-01 2.939684e+03 
1.480500e-01 2.902291e+03 
1.491700e-01 2.867142e+03 
1.503800e-01 2.830236e+03 
1.516400e-01 2.792749e+03 
1.528200e-01 2.759012e+03 
1.540200e-01 2.725370e+03 
1.551900e-01 2.693901e+03 
1.564300e-01 2.661363e+03 
1.576600e-01 2.630070e+03 
1.588700e-01 2.600298e+03 
1.600900e-01 2.570877e+03 
1.612700e-01 2.543490e+03 
1.625400e-01 2.514565e+03 
1.637600e-01 2.487489e+03 
1.649500e-01 2.461665e+03 
1.662200e-01 2.434618e+03 
1.674000e-01 2.409980e+03 
1.685000e-01 2.387398e+03 
1.697500e-01 2.362088e+03 
1.710300e-01 2.336557e+03 
1.722200e-01 2.313244e+03 
1.734400e-01 2.289425e+03 
1.746400e-01 2.266386e+03 
1.758700e-01 2.243068e+03 
1.770900e-01 2.220118e+03 
1.782700e-01 2.198292e+03 
1.794600e-01 2.176482e+03 
1.807000e-01 2.154028e+03 
1.819100e-01 2.132485e+03 
1.830100e-01 2.113074e+03 
1.842200e-01 2.092033e+03 
1.855000e-01 2.070146e+03 
1.867000e-01 2.049929e+03 
1.879200e-01 2.029705e+03 
1.890900e-01 2.010631e+03 
1.902800e-01 1.991602e+03 
1.915200e-01 1.972088e+03 
1.926900e-01 1.954005e+03 
1.939000e-01 1.935723e+03 
1.951700e-01 1.916838e+03 
1.963100e-01 1.900194e+03 
1.975100e-01 1.883058e+03 
1.987800e-01 1.865204e+03 
2.000100e-01 1.848242e+03 
2.012500e-01 1.831544e+03 
2.023400e-01 1.817077e+03 
2.036100e-01 1.800491e+03 
2.048900e-01 1.784143e+03 
2.060400e-01 1.769671e+03 
2.072200e-01 1.755034e+03 
2.084200e-01 1.740431e+03 
2.096900e-01 1.725202e+03 
2.109200e-01 1.710669e+03 
2.121100e-01 1.696765e+03 
2.132700e-01 1.683395e+03 
2.145200e-01 1.669188e+03 
2.157200e-01 1.655662e+03 
2.168800e-01 1.642727e+03 
2.180700e-01 1.629635e+03 
2.193400e-01 1.615765e+03 
2.206000e-01 1.602031e+03 
2.217500e-01 1.589665e+03 
2.229500e-01 1.576931e+03 
2.241400e-01 1.564159e+03 
2.253500e-01 1.551337e+03 
2.264900e-01 1.539414e+03 
2.277100e-01 1.526624e+03 
2.289900e-01 1.513169e+03 
2.301500e-01 1.501139e+03 
2.313600e-01 1.488750e+03 
2.325600e-01 1.476212e+03 
2.337700e-01 1.463736e+03 
2.350000e-01 1.451221e+03 
2.362000e-01 1.439005e+03 
2.374100e-01 1.426649e+03 
2.386500e-01 1.414155e+03 
2.399100e-01 1.401629e+03 
2.410400e-01 1.390318e+03 
2.422500e-01 1.378330e+03 
2.435000e-01 1.366108e+03 
2.447300e-01 1.354221e+03 
2.458700e-01 1.343263e+03 
2.470600e-01 1.331965e+03 
2.483300e-01 1.320063e+03 
2.495600e-01 1.308710e+03 
2.507600e-01 1.297806e+03 
2.519600e-01 1.287037e+03 
2.532200e-01 1.275872e+03 
2.543700e-01 1.265933e+03 
2.555500e-01 1.255941e+03 
2.568000e-01 1.245485e+03 
2.580100e-01 1.235488e+03 
2.592400e-01 1.225665e+03 
2.604100e-01 1.216526e+03 
2.616100e-01 1.207262e+03 
2.628400e-01 1.197878e+03 
2.640600e-01 1.188926e+03 
2.652200e-01 1.180607e+03 
2.664300e-01 1.172028e+03 
2.676500e-01 1.163478e+03 
2.688400e-01 1.155431e+03 
2.700700e-01 1.147333e+03 
2.712400e-01 1.139715e+03 
2.724800e-01 1.131731e+03 
2.736700e-01 1.124284e+03 
2.748800e-01 1.116926e+03 
2.761000e-01 1.109590e+03 
2.773200e-01 1.102334e+03 
2.785400e-01 1.095218e+03 
2.797000e-01 1.088653e+03 
2.808900e-01 1.081987e+03 
2.821400e-01 1.075061e+03 
2.833900e-01 1.068215e+03 
2.845500e-01 1.062043e+03 
2.857800e-01 1.055565e+03 
2.870300e-01 1.049052e+03 
2.882100e-01 1.042968e+03 
2.893900e-01 1.036996e+03 
2.906300e-01 1.030812e+03 
2.918900e-01 1.024594e+03 
2.930500e-01 1.018929e+03 
2.942500e-01 1.013134e+03 
2.954200e-01 1.007566e+03 
2.966500e-01 1.001771e+03 
2.978900e-01 9.959887e+02 
2.990400e-01 9.906790e+02 
3.002700e-01 9.850682e+02 
3.015100e-01 9.794749e+02 
3.026800e-01 9.742492e+02 
3.038500e-01 9.690732e+02 
3.050300e-01 9.639025e+02 
3.062600e-01 9.585727e+02 
3.075000e-01 9.532527e+02 
3.087000e-01 9.481545e+02 
3.099100e-01 9.430630e+02 
3.111200e-01 9.380233e+02 
3.123100e-01 9.331188e+02 
3.135300e-01 9.281383e+02 
3.147300e-01 9.232859e+02 
3.159900e-01 9.182396e+02 
3.171800e-01 9.135229e+02 
3.183700e-01 9.088520e+02 
3.196300e-01 9.039531e+02 
3.208400e-01 8.992931e+02 
3.220300e-01 8.947522e+02 
3.232000e-01 8.903335e+02 
3.244300e-01 8.857328e+02 
3.256700e-01 8.811379e+02 
3.269200e-01 8.765494e+02 
3.280800e-01 8.723298e+02 
3.292500e-01 8.681207e+02 
3.304800e-01 8.637385e+02 
3.317100e-01 8.593962e+02 
3.328900e-01 8.552675e+02 
3.340700e-01 8.511747e+02 
3.353600e-01 8.467516e+02 
3.365300e-01 8.427801e+02 
3.377100e-01 8.388089e+02 
3.389200e-01 8.347721e+02 
3.401600e-01 8.306718e+02 
3.413700e-01 8.267175e+02 
3.425300e-01 8.229669e+02 
3.437700e-01 8.189921e+02 
3.449800e-01 8.151473e+02 
3.461800e-01 8.113668e+02 
3.473600e-01 8.076863e+02 
3.485800e-01 8.039267e+02 
3.498100e-01 8.001690e+02 
3.510200e-01 7.965039e+02 
3.522000e-01 7.929595e+02 
3.533900e-01 7.894144e+02 
3.546400e-01 7.857398e+02 
3.558400e-01 7.822430e+02 
3.570600e-01 7.787175e+02 
3.582700e-01 7.752500e+02 
3.595000e-01 7.717545e+02 
3.607100e-01 7.683546e+02 
3.618900e-01 7.650739e+02 
3.631200e-01 7.616820e+02 
3.643200e-01 7.583999e+02 
3.655500e-01 7.550632e+02 
3.667300e-01 7.518879e+02 
3.679500e-01 7.486498e+02 
3.691900e-01 7.453855e+02 
3.703600e-01 7.423301e+02 
3.715700e-01 7.391950e+02 
3.727700e-01 7.361104e+02 
3.739900e-01 7.330064e+02 
3.752000e-01 7.299650e+02 
3.763900e-01 7.269974e+02 
3.775800e-01 7.240526e+02 
3.788200e-01 7.210082e+02 
3.800300e-01 7.180609e+02 
3.812100e-01 7.152156e+02 
3.824200e-01 7.123249e+02 
3.836100e-01 7.095037e+02 
3.848600e-01 7.065633e+02 
3.860400e-01 7.038090e+02 
3.872400e-01 7.010291e+02 
3.884600e-01 6.982352e+02 
3.896500e-01 6.955347e+02 
3.908700e-01 6.927870e+02 
3.920600e-01 6.901271e+02 
3.933100e-01 6.873542e+02 
3.945300e-01 6.846687e+02 
3.957200e-01 6.820777e+02 
3.969300e-01 6.794652e+02 
3.981700e-01 6.768081e+02 
3.993500e-01 6.742983e+02 
4.094840e-01 6.534689e+02 
4.272360e-01 6.200595e+02 
4.454600e-01 5.891008e+02 
4.630560e-01 5.619345e+02 
4.804610e-01 5.373442e+02 
4.980690e-01 5.144794e+02 
5.159230e-01 4.931449e+02 
5.317440e-01 4.756314e+02 
5.489640e-01 4.579324e+02 
5.671990e-01 4.406169e+02 
5.838690e-01 4.259341e+02 
6.018840e-01 4.111920e+02 
6.202330e-01 3.972716e+02 
6.379250e-01 3.847874e+02 
6.545410e-01 3.738536e+02 
6.714560e-01 3.633896e+02 
6.892080e-01 3.531114e+02 
7.066010e-01 3.436429e+02 
7.240540e-01 3.346948e+02 
7.420450e-01 3.259964e+02 
7.593780e-01 3.180681e+02 
7.764720e-01 3.106400e+02 
7.942840e-01 3.032867e+02 
8.116170e-01 2.964617e+02 
8.288310e-01 2.899861e+02 
8.462240e-01 2.837180e+02 
8.631980e-01 2.778424e+02 
8.810700e-01 2.719030e+02 
8.989410e-01 2.661957e+02 
9.166330e-01 2.607503e+02 
9.345640e-01 2.554273e+02 
9.515980e-01 2.505347e+02 
9.688720e-01 2.457294e+02 
9.865640e-01 2.409539e+02 
1.031870e+00 2.293943e+02 
1.063490e+00 2.218037e+02 
1.097920e+00 2.139731e+02 
1.134370e+00 2.060981e+02 
1.167730e+00 1.992522e+02 
1.203830e+00 1.921811e+02 
1.240470e+00 1.853711e+02 
1.275790e+00 1.790902e+02 
1.309140e+00 1.734492e+02 
1.342970e+00 1.679355e+02 
1.378420e+00 1.624311e+02 
1.413200e+00 1.572547e+02 
1.448110e+00 1.522729e+02 
1.484090e+00 1.473702e+02 
1.518820e+00 1.428296e+02 
1.552880e+00 1.385555e+02 
1.588630e+00 1.342511e+02 
1.623230e+00 1.302600e+02 
1.657720e+00 1.264388e+02 
1.692450e+00 1.227531e+02 
1.726400e+00 1.192710e+02 
1.762200e+00 1.157404e+02 
1.797880e+00 1.123702e+02 
1.833270e+00 1.091502e+02 
1.869070e+00 1.060225e+02 
1.903200e+00 1.031550e+02 
1.937740e+00 1.003582e+02 
1.973190e+00 9.758956e+01 
2.007440e+00 9.501600e+01 
2.042160e+00 9.250374e+01 
2.077900e+00 9.000388e+01 
2.112390e+00 8.768536e+01 
2.146220e+00 8.547917e+01 
2.181600e+00 8.325612e+01 
2.216930e+00 8.111609e+01 
2.250760e+00 7.913329e+01 
2.286500e+00 7.710841e+01 
2.321770e+00 7.518282e+01 
2.355950e+00 7.338181e+01 
2.391280e+00 7.157489e+01 
2.426240e+00 6.984663e+01 
2.460670e+00 6.820054e+01 
2.495640e+00 6.658294e+01 
2.531080e+00 6.499588e+01 
2.566220e+00 6.347117e+01 
2.600830e+00 6.201819e+01 
2.635080e+00 6.062708e+01 
2.670340e+00 5.923459e+01 
2.705970e+00 5.787349e+01 
2.740040e+00 5.661263e+01 
2.774520e+00 5.537179e+01 
2.809730e+00 5.414372e+01 
2.844390e+00 5.297192e+01 
2.879960e+00 5.180460e+01 
2.914860e+00 5.069251e+01 
2.949410e+00 4.962400e+01 
2.984440e+00 4.857143e+01 
3.019760e+00 4.754185e+01 
3.054730e+00 4.655270e+01 
3.089030e+00 4.560713e+01 
3.124060e+00 4.466932e+01 
3.159560e+00 4.374633e+01 
3.194710e+00 4.285669e+01 
3.229010e+00 4.201265e+01 
3.263320e+00 4.119213e+01 
3.297930e+00 4.038669e+01 
3.332830e+00 3.959548e+01 
3.368040e+00 3.881880e+01 
3.403300e+00 3.806210e+01 
3.438450e+00 3.732781e+01 
3.473060e+00 3.662411e+01 
3.508440e+00 3.592421e+01 
3.543110e+00 3.525629e+01 
3.577470e+00 3.460997e+01 
3.613040e+00 3.395834e+01 
3.648120e+00 3.333250e+01 
3.682910e+00 3.272765e+01 
3.718050e+00 3.213211e+01 
3.753320e+00 3.154949e+01 
3.787980e+00 3.099121e+01 
3.822290e+00 3.045238e+01 
3.857020e+00 2.992067e+01 
3.891920e+00 2.939887e+01 
3.926650e+00 2.889130e+01 
3.961970e+00 2.838787e+01 
3.997360e+00 2.789645e+01 
4.031670e+00 2.743124e+01 
4.066330e+00 2.697218e+01 
4.101420e+00 2.651822e+01 
4.136200e+00 2.607945e+01 
4.170810e+00 2.565274e+01 
4.206250e+00 2.522569e+01 
4.241580e+00 2.480968e+01 
4.276300e+00 2.441048e+01 
4.310970e+00 2.402091e+01 
4.346120e+00 2.363492e+01 
4.380600e+00 2.326503e+01 
4.414730e+00 2.290671e+01 
4.450350e+00 2.254138e+01 
4.485320e+00 2.219046e+01 
4.519810e+00 2.185215e+01 
4.555430e+00 2.151036e+01 
4.590870e+00 2.117780e+01 
4.625480e+00 2.086033e+01 
4.659910e+00 2.055095e+01 
4.695230e+00 2.024067e+01 
4.729960e+00 1.994189e+01 
4.764450e+00 1.965140e+01 
4.799530e+00 1.936232e+01 
4.834910e+00 1.907663e+01 
4.869700e+00 1.880197e+01 
4.904370e+00 1.853372e+01 
4.939450e+00 1.826782e+01 
4.973940e+00 1.801206e+01 
5.008430e+00 1.776116e+01 
5.043810e+00 1.750916e+01 
5.078840e+00 1.726470e+01 
5.113500e+00 1.702737e+01 
5.148890e+00 1.679042e+01 
5.184210e+00 1.655843e+01 
5.219060e+00 1.633397e+01 
5.253660e+00 1.611576e+01 
5.288570e+00 1.589959e+01 
5.323420e+00 1.568808e+01 
5.358440e+00 1.547979e+01 
5.393590e+00 1.527449e+01 
5.428310e+00 1.507584e+01 
5.462800e+00 1.488224e+01 
5.497640e+00 1.469009e+01 
5.532670e+00 1.450081e+01 
5.567280e+00 1.431721e+01 
5.602000e+00 1.413619e+01 
5.637270e+00 1.395605e+01 
5.672410e+00 1.377981e+01 
5.707020e+00 1.360916e+01 
5.742040e+00 1.343997e+01 
5.777430e+00 1.327200e+01 
5.812210e+00 1.310969e+01 
5.846820e+00 1.295132e+01 
5.881610e+00 1.279485e+01 
5.916510e+00 1.264045e+01 
5.951600e+00 1.248823e+01 
5.986560e+00 1.233924e+01 
6.021830e+00 1.219137e+01 
6.056490e+00 1.204873e+01 
6.091160e+00 1.190858e+01 
6.125830e+00 1.177064e+01 
6.161090e+00 1.163275e+01 
6.195760e+00 1.149968e+01 
6.230420e+00 1.136870e+01 
6.265690e+00 1.123750e+01 
6.300950e+00 1.110896e+01 
6.335620e+00 1.098450e+01 
6.370880e+00 1.085986e+01 
6.405550e+00 1.073952e+01 
6.440220e+00 1.062114e+01 
6.475480e+00 1.050255e+01 
6.510150e+00 1.038784e+01 
6.544810e+00 1.027518e+01 
6.580080e+00 1.016223e+01 
6.614750e+00 1.005284e+01 
6.649410e+00 9.945519e+00 
6.684080e+00 9.839804e+00 
6.719340e+00 9.733844e+00 
6.754010e+00 9.631282e+00 
6.788680e+00 9.530464e+00 
6.823940e+00 9.429390e+00 
6.859800e+00 9.328080e+00 
6.894470e+00 9.231843e+00 
6.929140e+00 9.137059e+00 
6.963800e+00 9.043616e+00 
6.999070e+00 8.949874e+00 
7.033730e+00 8.859383e+00 
7.068400e+00 8.770102e+00 
7.103660e+00 8.680545e+00 
7.138330e+00 8.593822e+00 
7.173600e+00 8.507075e+00 
7.208260e+00 8.422978e+00 
7.243530e+00 8.338552e+00 
7.277600e+00 8.258278e+00 
7.312860e+00 8.176476e+00 
7.348120e+00 8.095767e+00 
7.382790e+00 8.017455e+00 
7.417460e+00 7.940374e+00 
7.452720e+00 7.863115e+00 
7.487390e+00 7.788136e+00 
7.522650e+00 7.712870e+00 
7.557320e+00 7.640038e+00 
7.591990e+00 7.568214e+00 
7.627250e+00 7.496102e+00 
7.662510e+00 7.424914e+00 
7.697180e+00 7.356030e+00 
7.731850e+00 7.288094e+00 
7.766510e+00 7.221022e+00 
7.801180e+00 7.154762e+00 
7.836440e+00 7.088401e+00 
7.871110e+00 7.024075e+00 
7.906380e+00 6.959443e+00 
7.941040e+00 6.896708e+00 
7.976310e+00 6.833754e+00 
8.011570e+00 6.771715e+00 
8.046240e+00 6.711453e+00 
8.080900e+00 6.651930e+00 
8.115570e+00 6.593155e+00 
8.150830e+00 6.534305e+00 
8.185500e+00 6.477130e+00 
8.220770e+00 6.419656e+00 
8.255430e+00 6.363844e+00 
8.290100e+00 6.308863e+00 
8.324770e+00 6.254545e+00 
8.359430e+00 6.200871e+00 
8.394700e+00 6.146889e+00 
8.429960e+00 6.093668e+00 
8.464630e+00 6.042059e+00 
8.499890e+00 5.990174e+00 
8.534560e+00 5.939742e+00 
8.569200e+00 5.889923e+00 
