# Parameters:
# omega_b = 0.022445, omega_m = 0.145354, n_s = 1.002756, h = 55.236220, w = -1.000000, sigma_8 = 0.882677
# z = 0.900000
#
# k[1/Mpc] # P(k):
8.694000e-04 6.700662e+03 
2.077466e-03 1.479138e+04 
3.285532e-03 2.138441e+04 
4.493598e-03 2.665769e+04 
5.701664e-03 3.073223e+04 
6.909730e-03 3.376110e+04 
8.117797e-03 3.594662e+04 
9.325863e-03 3.739049e+04 
1.053393e-02 3.820124e+04 
1.174199e-02 3.848484e+04 
1.295006e-02 3.830692e+04 
1.415813e-02 3.776317e+04 
1.536619e-02 3.693980e+04 
1.657426e-02 3.590636e+04 
1.778233e-02 3.478513e+04 
1.899039e-02 3.371746e+04 
2.019846e-02 3.261802e+04 
2.140652e-02 3.142672e+04 
2.261459e-02 3.019407e+04 
2.382266e-02 2.898048e+04 
2.503072e-02 2.781507e+04 
2.623879e-02 2.670888e+04 
2.744685e-02 2.566553e+04 
2.865492e-02 2.469435e+04 
2.986299e-02 2.379598e+04 
3.100100e-02 2.301553e+04 
3.220400e-02 2.225816e+04 
3.288100e-02 2.186181e+04 
3.424300e-02 2.112534e+04 
3.555100e-02 2.048590e+04 
3.686000e-02 1.990629e+04 
3.795000e-02 1.946279e+04 
3.929100e-02 1.896093e+04 
4.039800e-02 1.857548e+04 
4.164000e-02 1.816724e+04 
4.294400e-02 1.775823e+04 
4.415000e-02 1.739448e+04 
4.542900e-02 1.701383e+04 
4.660900e-02 1.666850e+04 
4.782300e-02 1.630702e+04 
4.892900e-02 1.597749e+04 
5.031200e-02 1.555950e+04 
5.155900e-02 1.517435e+04 
5.238100e-02 1.491726e+04 
5.378200e-02 1.447447e+04 
5.513400e-02 1.404037e+04 
5.627600e-02 1.367039e+04 
5.735300e-02 1.332133e+04 
5.870100e-02 1.288637e+04 
5.988700e-02 1.250889e+04 
6.113500e-02 1.211854e+04 
6.225900e-02 1.177461e+04 
6.340100e-02 1.143505e+04 
6.480200e-02 1.103501e+04 
6.601100e-02 1.070534e+04 
6.725500e-02 1.038353e+04 
6.829100e-02 1.013080e+04 
6.958600e-02 9.833322e+03 
7.071100e-02 9.593337e+03 
7.192300e-02 9.353324e+03 
7.307400e-02 9.142893e+03 
7.412300e-02 8.965397e+03 
7.550400e-02 8.752981e+03 
7.663100e-02 8.594149e+03 
7.791200e-02 8.431792e+03 
7.912700e-02 8.292674e+03 
8.027600e-02 8.171281e+03 
8.138400e-02 8.061727e+03 
8.272200e-02 7.937608e+03 
8.406100e-02 7.819693e+03 
8.534100e-02 7.710057e+03 
8.653800e-02 7.607384e+03 
8.759800e-02 7.515850e+03 
8.900300e-02 7.392029e+03 
9.009000e-02 7.292716e+03 
9.113300e-02 7.193206e+03 
9.239600e-02 7.070124e+03 
9.358000e-02 6.950580e+03 
9.496100e-02 6.805120e+03 
9.608400e-02 6.685112e+03 
9.727500e-02 6.557351e+03 
9.852600e-02 6.419246e+03 
9.973800e-02 6.287114e+03 
1.009000e-01 6.162182e+03 
1.020900e-01 6.035125e+03 
1.034000e-01 5.899278e+03 
1.046000e-01 5.778446e+03 
1.057200e-01 5.669753e+03 
1.069100e-01 5.558105e+03 
1.082500e-01 5.438405e+03 
1.093900e-01 5.341577e+03 
1.105400e-01 5.247673e+03 
1.116900e-01 5.159777e+03 
1.129600e-01 5.066672e+03 
1.142000e-01 4.981910e+03 
1.153300e-01 4.908370e+03 
1.166400e-01 4.827984e+03 
1.177800e-01 4.762400e+03 
1.190000e-01 4.695128e+03 
1.201200e-01 4.637499e+03 
1.213400e-01 4.576683e+03 
1.227100e-01 4.513101e+03 
1.238900e-01 4.460113e+03 
1.250700e-01 4.409531e+03 
1.263200e-01 4.357359e+03 
1.275500e-01 4.307577e+03 
1.287500e-01 4.259936e+03 
1.299900e-01 4.211529e+03 
1.311300e-01 4.167360e+03 
1.323500e-01 4.120137e+03 
1.335900e-01 4.072201e+03 
1.347100e-01 4.028483e+03 
1.359800e-01 3.978951e+03 
1.372100e-01 3.929994e+03 
1.384300e-01 3.881624e+03 
1.395700e-01 3.835294e+03 
1.407700e-01 3.787284e+03 
1.420300e-01 3.735418e+03 
1.432800e-01 3.685094e+03 
1.444500e-01 3.637022e+03 
1.456300e-01 3.589532e+03 
1.468900e-01 3.539260e+03 
1.480500e-01 3.493755e+03 
1.491700e-01 3.450693e+03 
1.503800e-01 3.405113e+03 
1.516400e-01 3.358800e+03 
1.528200e-01 3.317023e+03 
1.540200e-01 3.275371e+03 
1.551900e-01 3.236667e+03 
1.564300e-01 3.196716e+03 
1.576600e-01 3.158569e+03 
1.588700e-01 3.122607e+03 
1.600900e-01 3.087108e+03 
1.612700e-01 3.054770e+03 
1.625400e-01 3.020615e+03 
1.637600e-01 2.989076e+03 
1.649500e-01 2.959249e+03 
1.662200e-01 2.928093e+03 
1.674000e-01 2.900203e+03 
1.685000e-01 2.874637e+03 
1.697500e-01 2.846157e+03 
1.710300e-01 2.817603e+03 
1.722200e-01 2.791525e+03 
1.734400e-01 2.765020e+03 
1.746400e-01 2.739384e+03 
1.758700e-01 2.713412e+03 
1.770900e-01 2.687800e+03 
1.782700e-01 2.663438e+03 
1.794600e-01 2.638977e+03 
1.807000e-01 2.613714e+03 
1.819100e-01 2.589472e+03 
1.830100e-01 2.567400e+03 
1.842200e-01 2.543432e+03 
1.855000e-01 2.518485e+03 
1.867000e-01 2.495149e+03 
1.879200e-01 2.471803e+03 
1.890900e-01 2.449737e+03 
1.902800e-01 2.427498e+03 
1.915200e-01 2.404690e+03 
1.926900e-01 2.383502e+03 
1.939000e-01 2.361922e+03 
1.951700e-01 2.339629e+03 
1.963100e-01 2.319945e+03 
1.975100e-01 2.299591e+03 
1.987800e-01 2.278381e+03 
2.000100e-01 2.258220e+03 
2.012500e-01 2.238351e+03 
2.023400e-01 2.221134e+03 
2.036100e-01 2.201404e+03 
2.048900e-01 2.181995e+03 
2.060400e-01 2.164811e+03 
2.072200e-01 2.147438e+03 
2.084200e-01 2.130196e+03 
2.096900e-01 2.112214e+03 
2.109200e-01 2.095053e+03 
2.121100e-01 2.078753e+03 
2.132700e-01 2.063084e+03 
2.145200e-01 2.046433e+03 
2.157200e-01 2.030671e+03 
2.168800e-01 2.015638e+03 
2.180700e-01 2.000422e+03 
2.193400e-01 1.984342e+03 
2.206000e-01 1.968493e+03 
2.217500e-01 1.954222e+03 
2.229500e-01 1.939525e+03 
2.241400e-01 1.924882e+03 
2.253500e-01 1.910182e+03 
2.264900e-01 1.896511e+03 
2.277100e-01 1.881874e+03 
2.289900e-01 1.866511e+03 
2.301500e-01 1.852772e+03 
2.313600e-01 1.838619e+03 
2.325600e-01 1.824339e+03 
2.337700e-01 1.810125e+03 
2.350000e-01 1.795863e+03 
2.362000e-01 1.781947e+03 
2.374100e-01 1.767878e+03 
2.386500e-01 1.753647e+03 
2.399100e-01 1.739375e+03 
2.410400e-01 1.726477e+03 
2.422500e-01 1.712802e+03 
2.435000e-01 1.698855e+03 
2.447300e-01 1.685279e+03 
2.458700e-01 1.672739e+03 
2.470600e-01 1.659805e+03 
2.483300e-01 1.646176e+03 
2.495600e-01 1.633151e+03 
2.507600e-01 1.620610e+03 
2.519600e-01 1.608221e+03 
2.532200e-01 1.595372e+03 
2.543700e-01 1.583898e+03 
2.555500e-01 1.572337e+03 
2.568000e-01 1.560237e+03 
2.580100e-01 1.548664e+03 
2.592400e-01 1.537250e+03 
2.604100e-01 1.526610e+03 
2.616100e-01 1.515822e+03 
2.628400e-01 1.504892e+03 
2.640600e-01 1.494425e+03 
2.652200e-01 1.484682e+03 
2.664300e-01 1.474632e+03 
2.676500e-01 1.464613e+03 
2.688400e-01 1.455160e+03 
2.700700e-01 1.445630e+03 
2.712400e-01 1.436664e+03 
2.724800e-01 1.427266e+03 
2.736700e-01 1.418485e+03 
2.748800e-01 1.409796e+03 
2.761000e-01 1.401130e+03 
2.773200e-01 1.392559e+03 
2.785400e-01 1.384149e+03 
2.797000e-01 1.376379e+03 
2.808900e-01 1.368491e+03 
2.821400e-01 1.360294e+03 
2.833900e-01 1.352191e+03 
2.845500e-01 1.344881e+03 
2.857800e-01 1.337209e+03 
2.870300e-01 1.329495e+03 
2.882100e-01 1.322289e+03 
2.893900e-01 1.315216e+03 
2.906300e-01 1.307892e+03 
2.918900e-01 1.300528e+03 
2.930500e-01 1.293817e+03 
2.942500e-01 1.286953e+03 
2.954200e-01 1.280359e+03 
2.966500e-01 1.273495e+03 
2.978900e-01 1.266645e+03 
2.990400e-01 1.260355e+03 
3.002700e-01 1.253708e+03 
3.015100e-01 1.247083e+03 
3.026800e-01 1.240893e+03 
3.038500e-01 1.234761e+03 
3.050300e-01 1.228635e+03 
3.062600e-01 1.222319e+03 
3.075000e-01 1.216015e+03 
3.087000e-01 1.209973e+03 
3.099100e-01 1.203939e+03 
3.111200e-01 1.197964e+03 
3.123100e-01 1.192147e+03 
3.135300e-01 1.186240e+03 
3.147300e-01 1.180484e+03 
3.159900e-01 1.174499e+03 
3.171800e-01 1.168900e+03 
3.183700e-01 1.163353e+03 
3.196300e-01 1.157535e+03 
3.208400e-01 1.152000e+03 
3.220300e-01 1.146607e+03 
3.232000e-01 1.141354e+03 
3.244300e-01 1.135881e+03 
3.256700e-01 1.130416e+03 
3.269200e-01 1.124958e+03 
3.280800e-01 1.119938e+03 
3.292500e-01 1.114926e+03 
3.304800e-01 1.109706e+03 
3.317100e-01 1.104533e+03 
3.328900e-01 1.099614e+03 
3.340700e-01 1.094738e+03 
3.353600e-01 1.089462e+03 
3.365300e-01 1.084722e+03 
3.377100e-01 1.079982e+03 
3.389200e-01 1.075164e+03 
3.401600e-01 1.070269e+03 
3.413700e-01 1.065545e+03 
3.425300e-01 1.061060e+03 
3.437700e-01 1.056307e+03 
3.449800e-01 1.051710e+03 
3.461800e-01 1.047189e+03 
3.473600e-01 1.042785e+03 
3.485800e-01 1.038282e+03 
3.498100e-01 1.033781e+03 
3.510200e-01 1.029391e+03 
3.522000e-01 1.025146e+03 
3.533900e-01 1.020899e+03 
3.546400e-01 1.016490e+03 
3.558400e-01 1.012294e+03 
3.570600e-01 1.008064e+03 
3.582700e-01 1.003903e+03 
3.595000e-01 9.997079e+02 
3.607100e-01 9.956246e+02 
3.618900e-01 9.916818e+02 
3.631200e-01 9.876053e+02 
3.643200e-01 9.836606e+02 
3.655500e-01 9.796503e+02 
3.667300e-01 9.758339e+02 
3.679500e-01 9.719361e+02 
3.691900e-01 9.680067e+02 
3.703600e-01 9.643286e+02 
3.715700e-01 9.605546e+02 
3.727700e-01 9.568415e+02 
3.739900e-01 9.531033e+02 
3.752000e-01 9.494379e+02 
3.763900e-01 9.458612e+02 
3.775800e-01 9.423121e+02 
3.788200e-01 9.386430e+02 
3.800300e-01 9.350909e+02 
3.812100e-01 9.316588e+02 
3.824200e-01 9.281700e+02 
3.836100e-01 9.247652e+02 
3.848600e-01 9.212165e+02 
3.860400e-01 9.178923e+02 
3.872400e-01 9.145373e+02 
3.884600e-01 9.111625e+02 
3.896500e-01 9.078994e+02 
3.908700e-01 9.045794e+02 
3.920600e-01 9.013654e+02 
3.933100e-01 8.980150e+02 
3.945300e-01 8.947701e+02 
3.957200e-01 8.916360e+02 
3.969300e-01 8.884749e+02 
3.981700e-01 8.852599e+02 
3.993500e-01 8.822232e+02 
4.094840e-01 8.569974e+02 
4.272360e-01 8.164469e+02 
4.454600e-01 7.787530e+02 
4.630560e-01 7.455677e+02 
4.804610e-01 7.154388e+02 
4.980690e-01 6.873394e+02 
5.159230e-01 6.610525e+02 
5.317440e-01 6.394237e+02 
5.489640e-01 6.175198e+02 
5.671990e-01 5.960522e+02 
5.838690e-01 5.778205e+02 
6.018840e-01 5.594806e+02 
6.202330e-01 5.421247e+02 
6.379250e-01 5.265456e+02 
6.545410e-01 5.128679e+02 
6.714560e-01 4.997478e+02 
6.892080e-01 4.868434e+02 
7.066010e-01 4.749118e+02 
7.240540e-01 4.636147e+02 
7.420450e-01 4.525867e+02 
7.593780e-01 4.424996e+02 
7.764720e-01 4.330165e+02 
7.942840e-01 4.235952e+02 
8.116170e-01 4.148041e+02 
8.288310e-01 4.064243e+02 
8.462240e-01 3.982772e+02 
8.631980e-01 3.906015e+02 
8.810700e-01 3.828091e+02 
8.989410e-01 3.752846e+02 
9.166330e-01 3.680704e+02 
9.345640e-01 3.609837e+02 
9.515980e-01 3.544355e+02 
9.688720e-01 3.479744e+02 
9.865640e-01 3.415193e+02 
1.031870e+00 3.257903e+02 
1.063490e+00 3.153623e+02 
1.097920e+00 3.045312e+02 
1.134370e+00 2.935658e+02 
1.167730e+00 2.839716e+02 
1.203830e+00 2.740050e+02 
1.240470e+00 2.643620e+02 
1.275790e+00 2.554215e+02 
1.309140e+00 2.473703e+02 
1.342970e+00 2.394660e+02 
1.378420e+00 2.315563e+02 
1.413200e+00 2.240970e+02 
1.448110e+00 2.169016e+02 
1.484090e+00 2.098069e+02 
1.518820e+00 2.032258e+02 
1.552880e+00 1.970219e+02 
1.588630e+00 1.907688e+02 
1.623230e+00 1.849636e+02 
1.657720e+00 1.794021e+02 
1.692450e+00 1.740357e+02 
1.726400e+00 1.689616e+02 
1.762200e+00 1.638139e+02 
1.797880e+00 1.589020e+02 
1.833270e+00 1.542070e+02 
1.869070e+00 1.496459e+02 
1.903200e+00 1.454668e+02 
1.937740e+00 1.413910e+02 
1.973190e+00 1.373558e+02 
2.007440e+00 1.336074e+02 
2.042160e+00 1.299502e+02 
2.077900e+00 1.263119e+02 
2.112390e+00 1.229401e+02 
2.146220e+00 1.197325e+02 
2.181600e+00 1.165027e+02 
2.216930e+00 1.133958e+02 
2.250760e+00 1.105188e+02 
2.286500e+00 1.075826e+02 
2.321770e+00 1.047925e+02 
2.355950e+00 1.021852e+02 
2.391280e+00 9.957108e+01 
2.426240e+00 9.707349e+01 
2.460670e+00 9.469668e+01 
2.495640e+00 9.236241e+01 
2.531080e+00 9.007391e+01 
2.566220e+00 8.787792e+01 
2.600830e+00 8.578726e+01 
2.635080e+00 8.378736e+01 
2.670340e+00 8.178795e+01 
2.705970e+00 7.983517e+01 
2.740040e+00 7.802744e+01 
2.774520e+00 7.624953e+01 
2.809730e+00 7.449243e+01 
2.844390e+00 7.281759e+01 
2.879960e+00 7.115093e+01 
2.914860e+00 6.956451e+01 
2.949410e+00 6.804153e+01 
2.984440e+00 6.654345e+01 
3.019760e+00 6.507907e+01 
3.054730e+00 6.367311e+01 
3.089030e+00 6.233152e+01 
3.124060e+00 6.100174e+01 
3.159560e+00 5.969388e+01 
3.194710e+00 5.843514e+01 
3.229010e+00 5.724189e+01 
3.263320e+00 5.608372e+01 
3.297930e+00 5.494747e+01 
3.332830e+00 5.383209e+01 
3.368040e+00 5.273855e+01 
3.403300e+00 5.167420e+01 
3.438450e+00 5.064286e+01 
3.473060e+00 4.965513e+01 
3.508440e+00 4.867388e+01 
3.543110e+00 4.773804e+01 
3.577470e+00 4.683393e+01 
3.613040e+00 4.592290e+01 
3.648120e+00 4.504879e+01 
3.682910e+00 4.420468e+01 
3.718050e+00 4.337455e+01 
3.753320e+00 4.256315e+01 
3.787980e+00 4.178652e+01 
3.822290e+00 4.103758e+01 
3.857020e+00 4.029935e+01 
3.891920e+00 3.957544e+01 
3.926650e+00 3.887210e+01 
3.961970e+00 3.817497e+01 
3.997360e+00 3.749532e+01 
4.031670e+00 3.685226e+01 
4.066330e+00 3.621851e+01 
4.101420e+00 3.559202e+01 
4.136200e+00 3.498738e+01 
4.170810e+00 3.439951e+01 
4.206250e+00 3.381192e+01 
4.241580e+00 3.323978e+01 
4.276300e+00 3.269141e+01 
4.310970e+00 3.215668e+01 
4.346120e+00 3.162725e+01 
4.380600e+00 3.112043e+01 
4.414730e+00 3.062960e+01 
4.450350e+00 3.012997e+01 
4.485320e+00 2.965016e+01 
4.519810e+00 2.918811e+01 
4.555430e+00 2.872159e+01 
4.590870e+00 2.826795e+01 
4.625480e+00 2.783536e+01 
4.659910e+00 2.741389e+01 
4.695230e+00 2.699175e+01 
4.729960e+00 2.658540e+01 
4.764450e+00 2.619060e+01 
4.799530e+00 2.579811e+01 
4.834910e+00 2.541028e+01 
4.869700e+00 2.503790e+01 
4.904370e+00 2.467433e+01 
4.939450e+00 2.431413e+01 
4.973940e+00 2.396804e+01 
5.008430e+00 2.362858e+01 
5.043810e+00 2.328795e+01 
5.078840e+00 2.295772e+01 
5.113500e+00 2.263718e+01 
5.148890e+00 2.231754e+01 
5.184210e+00 2.200464e+01 
5.219060e+00 2.170205e+01 
5.253660e+00 2.140817e+01 
5.288570e+00 2.111709e+01 
5.323420e+00 2.083245e+01 
5.358440e+00 2.055234e+01 
5.393590e+00 2.027629e+01 
5.428310e+00 2.000941e+01 
5.462800e+00 1.974944e+01 
5.497640e+00 1.949146e+01 
5.532670e+00 1.923755e+01 
5.567280e+00 1.899135e+01 
5.602000e+00 1.874863e+01 
5.637270e+00 1.850731e+01 
5.672410e+00 1.827126e+01 
5.707020e+00 1.804273e+01 
5.742040e+00 1.781637e+01 
5.777430e+00 1.759170e+01 
5.812210e+00 1.737461e+01 
5.846820e+00 1.716295e+01 
5.881610e+00 1.695388e+01 
5.916510e+00 1.674760e+01 
5.951600e+00 1.654436e+01 
5.986560e+00 1.634551e+01 
6.021830e+00 1.614816e+01 
6.056490e+00 1.595787e+01 
6.091160e+00 1.577101e+01 
6.125830e+00 1.558709e+01 
6.161090e+00 1.540329e+01 
6.195760e+00 1.522601e+01 
6.230420e+00 1.505152e+01 
6.265690e+00 1.487676e+01 
6.300950e+00 1.470566e+01 
6.335620e+00 1.454001e+01 
6.370880e+00 1.437411e+01 
6.405550e+00 1.421403e+01 
6.440220e+00 1.405656e+01 
6.475480e+00 1.389883e+01 
6.510150e+00 1.374628e+01 
6.544810e+00 1.359654e+01 
6.580080e+00 1.344642e+01 
6.614750e+00 1.330103e+01 
6.649410e+00 1.315845e+01 
6.684080e+00 1.301802e+01 
6.719340e+00 1.287726e+01 
6.754010e+00 1.274104e+01 
6.788680e+00 1.260717e+01 
6.823940e+00 1.247297e+01 
6.859800e+00 1.233845e+01 
6.894470e+00 1.221070e+01 
6.929140e+00 1.208490e+01 
6.963800e+00 1.196087e+01 
6.999070e+00 1.183646e+01 
7.033730e+00 1.171640e+01 
7.068400e+00 1.159795e+01 
7.103660e+00 1.147913e+01 
7.138330e+00 1.136408e+01 
7.173600e+00 1.124901e+01 
7.208260e+00 1.113745e+01 
7.243530e+00 1.102547e+01 
7.277600e+00 1.091899e+01 
7.312860e+00 1.081050e+01 
7.348120e+00 1.070346e+01 
7.382790e+00 1.059960e+01 
7.417460e+00 1.049738e+01 
7.452720e+00 1.039492e+01 
7.487390e+00 1.029549e+01 
7.522650e+00 1.019568e+01 
7.557320e+00 1.009909e+01 
7.591990e+00 1.000384e+01 
7.627250e+00 9.908209e+00 
7.662510e+00 9.813805e+00 
7.697180e+00 9.722454e+00 
7.731850e+00 9.632360e+00 
7.766510e+00 9.543414e+00 
7.801180e+00 9.455546e+00 
7.836440e+00 9.367534e+00 
7.871110e+00 9.282215e+00 
7.906380e+00 9.196492e+00 
7.941040e+00 9.113287e+00 
7.976310e+00 9.029781e+00 
8.011570e+00 8.947475e+00 
8.046240e+00 8.867528e+00 
8.080900e+00 8.788564e+00 
8.115570e+00 8.710590e+00 
8.150830e+00 8.632502e+00 
8.185500e+00 8.556637e+00 
8.220770e+00 8.480378e+00 
8.255430e+00 8.406325e+00 
8.290100e+00 8.333349e+00 
8.324770e+00 8.261250e+00 
8.359430e+00 8.190009e+00 
8.394700e+00 8.118359e+00 
8.429960e+00 8.047706e+00 
8.464630e+00 7.979179e+00 
8.499890e+00 7.910287e+00 
8.534560e+00 7.843326e+00 
8.569200e+00 7.777182e+00 
