# Parameters:
# omega_b = 0.023311, omega_m = 0.127165, n_s = 0.853150, h = 67.047244, w = -1.000000, sigma_8 = 0.718898
# z = 0.900000
#
# k[1/Mpc] # P(k):
8.694000e-04 1.244077e+04 
2.077466e-03 2.385309e+04 
3.285532e-03 3.173251e+04 
4.493598e-03 3.715282e+04 
5.701664e-03 4.068117e+04 
6.909730e-03 4.275801e+04 
8.117797e-03 4.378594e+04 
9.325863e-03 4.396790e+04 
1.053393e-02 4.348534e+04 
1.174199e-02 4.249327e+04 
1.295006e-02 4.109077e+04 
1.415813e-02 3.940270e+04 
1.536619e-02 3.753064e+04 
1.657426e-02 3.554768e+04 
1.778233e-02 3.354159e+04 
1.899039e-02 3.162855e+04 
2.019846e-02 2.979511e+04 
2.140652e-02 2.802494e+04 
2.261459e-02 2.634350e+04 
2.382266e-02 2.478321e+04 
2.503072e-02 2.335644e+04 
2.623879e-02 2.206253e+04 
2.744685e-02 2.089912e+04 
2.865492e-02 1.985943e+04 
2.986299e-02 1.893358e+04 
3.100100e-02 1.815950e+04 
3.220400e-02 1.743290e+04 
3.288100e-02 1.706327e+04 
3.424300e-02 1.639198e+04 
3.555100e-02 1.582311e+04 
3.686000e-02 1.531655e+04 
3.795000e-02 1.493229e+04 
3.929100e-02 1.449724e+04 
4.039800e-02 1.415960e+04 
4.164000e-02 1.379675e+04 
4.294400e-02 1.342168e+04 
4.415000e-02 1.308008e+04 
4.542900e-02 1.271028e+04 
4.660900e-02 1.236788e+04 
4.782300e-02 1.199994e+04 
4.892900e-02 1.166097e+04 
5.031200e-02 1.122772e+04 
5.155900e-02 1.082863e+04 
5.238100e-02 1.056387e+04 
5.378200e-02 1.011267e+04 
5.513400e-02 9.679651e+03 
5.627600e-02 9.319707e+03 
5.735300e-02 8.988648e+03 
5.870100e-02 8.588936e+03 
5.988700e-02 8.254023e+03 
6.113500e-02 7.920118e+03 
6.225900e-02 7.637495e+03 
6.340100e-02 7.369226e+03 
6.480200e-02 7.065188e+03 
6.601100e-02 6.827052e+03 
6.725500e-02 6.604342e+03 
6.829100e-02 6.437284e+03 
6.958600e-02 6.246886e+03 
7.071100e-02 6.099210e+03 
7.192300e-02 5.955878e+03 
7.307400e-02 5.833316e+03 
7.412300e-02 5.731625e+03 
7.550400e-02 5.611148e+03 
7.663100e-02 5.520850e+03 
7.791200e-02 5.426488e+03 
7.912700e-02 5.341887e+03 
8.027600e-02 5.264222e+03 
8.138400e-02 5.190308e+03 
8.272200e-02 5.100739e+03 
8.406100e-02 5.009336e+03 
8.534100e-02 4.917672e+03 
8.653800e-02 4.827484e+03 
8.759800e-02 4.745156e+03 
8.900300e-02 4.631750e+03 
9.009000e-02 4.540240e+03 
9.113300e-02 4.449279e+03 
9.239600e-02 4.337953e+03 
9.358000e-02 4.231809e+03 
9.496100e-02 4.106471e+03 
9.608400e-02 4.005662e+03 
9.727500e-02 3.900508e+03 
9.852600e-02 3.791944e+03 
9.973800e-02 3.690680e+03 
1.009000e-01 3.597068e+03 
1.020900e-01 3.506799e+03 
1.034000e-01 3.412714e+03 
1.046000e-01 3.331485e+03 
1.057200e-01 3.262335e+03 
1.069100e-01 3.192727e+03 
1.082500e-01 3.121955e+03 
1.093900e-01 3.066889e+03 
1.105400e-01 3.014761e+03 
1.116900e-01 2.968454e+03 
1.129600e-01 2.920105e+03 
1.142000e-01 2.877580e+03 
1.153300e-01 2.840821e+03 
1.166400e-01 2.800872e+03 
1.177800e-01 2.767590e+03 
1.190000e-01 2.733116e+03 
1.201200e-01 2.701599e+03 
1.213400e-01 2.667965e+03 
1.227100e-01 2.628843e+03 
1.238900e-01 2.595324e+03 
1.250700e-01 2.560330e+03 
1.263200e-01 2.523130e+03 
1.275500e-01 2.485163e+03 
1.287500e-01 2.447855e+03 
1.299900e-01 2.408410e+03 
1.311300e-01 2.372062e+03 
1.323500e-01 2.332667e+03 
1.335900e-01 2.292956e+03 
1.347100e-01 2.257077e+03 
1.359800e-01 2.217067e+03 
1.372100e-01 2.178704e+03 
1.384300e-01 2.141546e+03 
1.395700e-01 2.107575e+03 
1.407700e-01 2.072669e+03 
1.420300e-01 2.037356e+03 
1.432800e-01 2.003151e+03 
1.444500e-01 1.972708e+03 
1.456300e-01 1.942668e+03 
1.468900e-01 1.912233e+03 
1.480500e-01 1.885095e+03 
1.491700e-01 1.859924e+03 
1.503800e-01 1.833925e+03 
1.516400e-01 1.807637e+03 
1.528200e-01 1.784452e+03 
1.540200e-01 1.761341e+03 
1.551900e-01 1.739998e+03 
1.564300e-01 1.718002e+03 
1.576600e-01 1.696900e+03 
1.588700e-01 1.676886e+03 
1.600900e-01 1.657105e+03 
1.612700e-01 1.638587e+03 
1.625400e-01 1.619034e+03 
1.637600e-01 1.600557e+03 
1.649500e-01 1.582834e+03 
1.662200e-01 1.564213e+03 
1.674000e-01 1.546904e+03 
1.685000e-01 1.531045e+03 
1.697500e-01 1.513062e+03 
1.710300e-01 1.494718e+03 
1.722200e-01 1.477975e+03 
1.734400e-01 1.460508e+03 
1.746400e-01 1.443608e+03 
1.758700e-01 1.426437e+03 
1.770900e-01 1.409393e+03 
1.782700e-01 1.393196e+03 
1.794600e-01 1.376963e+03 
1.807000e-01 1.360225e+03 
1.819100e-01 1.344179e+03 
1.830100e-01 1.329781e+03 
1.842200e-01 1.314195e+03 
1.855000e-01 1.298003e+03 
1.867000e-01 1.283213e+03 
1.879200e-01 1.268431e+03 
1.890900e-01 1.254533e+03 
1.902800e-01 1.240860e+03 
1.915200e-01 1.226846e+03 
1.926900e-01 1.213921e+03 
1.939000e-01 1.201031e+03 
1.951700e-01 1.187725e+03 
1.963100e-01 1.176051e+03 
1.975100e-01 1.164169e+03 
1.987800e-01 1.151794e+03 
2.000100e-01 1.140076e+03 
2.012500e-01 1.128622e+03 
2.023400e-01 1.118701e+03 
2.036100e-01 1.107341e+03 
2.048900e-01 1.096180e+03 
2.060400e-01 1.086304e+03 
2.072200e-01 1.076317e+03 
2.084200e-01 1.066347e+03 
2.096900e-01 1.055952e+03 
2.109200e-01 1.046036e+03 
2.121100e-01 1.036523e+03 
2.132700e-01 1.027377e+03 
2.145200e-01 1.017662e+03 
2.157200e-01 1.008403e+03 
2.168800e-01 9.995455e+02 
2.180700e-01 9.905838e+02 
2.193400e-01 9.811068e+02 
2.206000e-01 9.717502e+02 
2.217500e-01 9.633295e+02 
2.229500e-01 9.546615e+02 
2.241400e-01 9.460501e+02 
2.253500e-01 9.374108e+02 
2.264900e-01 9.293803e+02 
2.277100e-01 9.208407e+02 
2.289900e-01 9.119406e+02 
2.301500e-01 9.039858e+02 
2.313600e-01 8.957976e+02 
2.325600e-01 8.876896e+02 
2.337700e-01 8.796239e+02 
2.350000e-01 8.715358e+02 
2.362000e-01 8.637247e+02 
2.374100e-01 8.559220e+02 
2.386500e-01 8.480333e+02 
2.399100e-01 8.401266e+02 
2.410400e-01 8.331132e+02 
2.422500e-01 8.256965e+02 
2.435000e-01 8.181362e+02 
2.447300e-01 8.108025e+02 
2.458700e-01 8.041187e+02 
2.470600e-01 7.972279e+02 
2.483300e-01 7.899693e+02 
2.495600e-01 7.830610e+02 
2.507600e-01 7.764469e+02 
2.519600e-01 7.699151e+02 
2.532200e-01 7.631438e+02 
2.543700e-01 7.571011e+02 
2.555500e-01 7.510158e+02 
2.568000e-01 7.446488e+02 
2.580100e-01 7.385620e+02 
2.592400e-01 7.325327e+02 
2.604100e-01 7.269021e+02 
2.616100e-01 7.211947e+02 
2.628400e-01 7.154146e+02 
2.640600e-01 7.098296e+02 
2.652200e-01 7.046118e+02 
2.664300e-01 6.992314e+02 
2.676500e-01 6.938699e+02 
2.688400e-01 6.887595e+02 
2.700700e-01 6.835748e+02 
2.712400e-01 6.786989e+02 
2.724800e-01 6.735897e+02 
2.736700e-01 6.687765e+02 
2.748800e-01 6.639722e+02 
2.761000e-01 6.591825e+02 
2.773200e-01 6.544465e+02 
2.785400e-01 6.497778e+02 
2.797000e-01 6.454167e+02 
2.808900e-01 6.409905e+02 
2.821400e-01 6.363922e+02 
2.833900e-01 6.318464e+02 
2.845500e-01 6.276933e+02 
2.857800e-01 6.233365e+02 
2.870300e-01 6.189574e+02 
2.882100e-01 6.148678e+02 
2.893900e-01 6.108285e+02 
2.906300e-01 6.066331e+02 
2.918900e-01 6.024163e+02 
2.930500e-01 5.985749e+02 
2.942500e-01 5.946422e+02 
2.954200e-01 5.908493e+02 
2.966500e-01 5.869029e+02 
2.978900e-01 5.829663e+02 
2.990400e-01 5.793524e+02 
3.002700e-01 5.755275e+02 
3.015100e-01 5.717122e+02 
3.026800e-01 5.681487e+02 
3.038500e-01 5.646201e+02 
3.050300e-01 5.610962e+02 
3.062600e-01 5.574621e+02 
3.075000e-01 5.538359e+02 
3.087000e-01 5.503619e+02 
3.099100e-01 5.468935e+02 
3.111200e-01 5.434625e+02 
3.123100e-01 5.401265e+02 
3.135300e-01 5.367398e+02 
3.147300e-01 5.334411e+02 
3.159900e-01 5.300118e+02 
3.171800e-01 5.268112e+02 
3.183700e-01 5.236453e+02 
3.196300e-01 5.203258e+02 
3.208400e-01 5.171692e+02 
3.220300e-01 5.140941e+02 
3.232000e-01 5.111082e+02 
3.244300e-01 5.080023e+02 
3.256700e-01 5.049013e+02 
3.269200e-01 5.018055e+02 
3.280800e-01 4.989594e+02 
3.292500e-01 4.961267e+02 
3.304800e-01 4.931800e+02 
3.317100e-01 4.902609e+02 
3.328900e-01 4.874862e+02 
3.340700e-01 4.847363e+02 
3.353600e-01 4.817725e+02 
3.365300e-01 4.791148e+02 
3.377100e-01 4.764579e+02 
3.389200e-01 4.737578e+02 
3.401600e-01 4.710160e+02 
3.413700e-01 4.683772e+02 
3.425300e-01 4.658782e+02 
3.437700e-01 4.632304e+02 
3.449800e-01 4.606698e+02 
3.461800e-01 4.581527e+02 
3.473600e-01 4.557049e+02 
3.485800e-01 4.532104e+02 
3.498100e-01 4.507177e+02 
3.510200e-01 4.482870e+02 
3.522000e-01 4.459368e+02 
3.533900e-01 4.435868e+02 
3.546400e-01 4.411586e+02 
3.558400e-01 4.388488e+02 
3.570600e-01 4.365205e+02 
3.582700e-01 4.342310e+02 
3.595000e-01 4.319236e+02 
3.607100e-01 4.296831e+02 
3.618900e-01 4.275242e+02 
3.631200e-01 4.252926e+02 
3.643200e-01 4.231337e+02 
3.655500e-01 4.209393e+02 
3.667300e-01 4.188514e+02 
3.679500e-01 4.167286e+02 
3.691900e-01 4.145891e+02 
3.703600e-01 4.125868e+02 
3.715700e-01 4.105327e+02 
3.727700e-01 4.085121e+02 
3.739900e-01 4.064805e+02 
3.752000e-01 4.044930e+02 
3.763900e-01 4.025540e+02 
3.775800e-01 4.006303e+02 
3.788200e-01 3.986418e+02 
3.800300e-01 3.967171e+02 
3.812100e-01 3.948621e+02 
3.824200e-01 3.929797e+02 
3.836100e-01 3.911429e+02 
3.848600e-01 3.892287e+02 
3.860400e-01 3.874360e+02 
3.872400e-01 3.856269e+02 
3.884600e-01 3.838118e+02 
3.896500e-01 3.820587e+02 
3.908700e-01 3.802753e+02 
3.920600e-01 3.785490e+02 
3.933100e-01 3.767498e+02 
3.945300e-01 3.750075e+02 
3.957200e-01 3.733301e+02 
3.969300e-01 3.716399e+02 
3.981700e-01 3.699211e+02 
3.993500e-01 3.682979e+02 
4.094840e-01 3.548587e+02 
4.272360e-01 3.334282e+02 
4.454600e-01 3.137306e+02 
4.630560e-01 2.965894e+02 
4.804610e-01 2.811947e+02 
4.980690e-01 2.669916e+02 
5.159230e-01 2.538328e+02 
5.317440e-01 2.430991e+02 
5.489640e-01 2.323157e+02 
5.671990e-01 2.218232e+02 
5.838690e-01 2.129690e+02 
6.018840e-01 2.041259e+02 
6.202330e-01 1.958244e+02 
6.379250e-01 1.884052e+02 
6.545410e-01 1.819456e+02 
6.714560e-01 1.757973e+02 
6.892080e-01 1.697818e+02 
7.066010e-01 1.642822e+02 
7.240540e-01 1.591092e+02 
7.420450e-01 1.541224e+02 
7.593780e-01 1.496097e+02 
7.764720e-01 1.454113e+02 
7.942840e-01 1.412849e+02 
8.116170e-01 1.374938e+02 
8.288310e-01 1.339286e+02 
8.462240e-01 1.305072e+02 
8.631980e-01 1.273308e+02 
8.810700e-01 1.241469e+02 
8.989410e-01 1.211162e+02 
9.166330e-01 1.182519e+02 
9.345640e-01 1.154787e+02 
9.515980e-01 1.129559e+02 
9.688720e-01 1.105008e+02 
9.865640e-01 1.080864e+02 
1.031870e+00 1.023216e+02 
1.063490e+00 9.861036e+01 
1.097920e+00 9.483647e+01 
1.134370e+00 9.109601e+01 
1.167730e+00 8.788971e+01 
1.203830e+00 8.462115e+01 
1.240470e+00 8.150647e+01 
1.275790e+00 7.866912e+01 
1.309140e+00 7.613776e+01 
1.342970e+00 7.369035e+01 
1.378420e+00 7.126187e+01 
1.413200e+00 6.899481e+01 
1.448110e+00 6.682680e+01 
1.484090e+00 6.470426e+01 
1.518820e+00 6.274780e+01 
1.552880e+00 6.091446e+01 
1.588630e+00 5.907366e+01 
1.623230e+00 5.737334e+01 
1.657720e+00 5.574935e+01 
1.692450e+00 5.418596e+01 
1.726400e+00 5.271358e+01 
1.762200e+00 5.122391e+01 
1.797880e+00 4.980235e+01 
1.833270e+00 4.844665e+01 
1.869070e+00 4.713177e+01 
1.903200e+00 4.592571e+01 
1.937740e+00 4.475018e+01 
1.973190e+00 4.358796e+01 
2.007440e+00 4.250693e+01 
2.042160e+00 4.145136e+01 
2.077900e+00 4.040135e+01 
2.112390e+00 3.942654e+01 
2.146220e+00 3.849928e+01 
2.181600e+00 3.756415e+01 
2.216930e+00 3.666310e+01 
2.250760e+00 3.582779e+01 
2.286500e+00 3.497420e+01 
2.321770e+00 3.416160e+01 
2.355950e+00 3.340048e+01 
2.391280e+00 3.263645e+01 
2.426240e+00 3.190424e+01 
2.460670e+00 3.120592e+01 
2.495640e+00 3.051916e+01 
2.531080e+00 2.984469e+01 
2.566220e+00 2.919536e+01 
2.600830e+00 2.857555e+01 
2.635080e+00 2.798125e+01 
2.670340e+00 2.738510e+01 
2.705970e+00 2.680163e+01 
2.740040e+00 2.626053e+01 
2.774520e+00 2.572755e+01 
2.809730e+00 2.519860e+01 
2.844390e+00 2.469292e+01 
2.879960e+00 2.418818e+01 
2.914860e+00 2.370661e+01 
2.949410e+00 2.324319e+01 
2.984440e+00 2.278539e+01 
3.019760e+00 2.233709e+01 
3.054730e+00 2.190592e+01 
3.089030e+00 2.149225e+01 
3.124060e+00 2.108154e+01 
3.159560e+00 2.067686e+01 
3.194710e+00 2.028564e+01 
3.229010e+00 1.991387e+01 
3.263320e+00 1.955132e+01 
3.297930e+00 1.919508e+01 
3.332830e+00 1.884471e+01 
3.368040e+00 1.849991e+01 
3.403300e+00 1.816329e+01 
3.438450e+00 1.783568e+01 
3.473060e+00 1.752133e+01 
3.508440e+00 1.720796e+01 
3.543110e+00 1.690857e+01 
3.577470e+00 1.661788e+01 
3.613040e+00 1.632449e+01 
3.648120e+00 1.604218e+01 
3.682910e+00 1.576890e+01 
3.718050e+00 1.549915e+01 
3.753320e+00 1.523479e+01 
3.787980e+00 1.498089e+01 
3.822290e+00 1.473543e+01 
3.857020e+00 1.449265e+01 
3.891920e+00 1.425402e+01 
3.926650e+00 1.402134e+01 
3.961970e+00 1.379023e+01 
3.997360e+00 1.356405e+01 
4.031670e+00 1.334972e+01 
4.066330e+00 1.313767e+01 
4.101420e+00 1.292784e+01 
4.136200e+00 1.272440e+01 
4.170810e+00 1.252645e+01 
4.206250e+00 1.232782e+01 
4.241580e+00 1.213415e+01 
4.276300e+00 1.194786e+01 
4.310970e+00 1.176577e+01 
4.346120e+00 1.158509e+01 
4.380600e+00 1.141156e+01 
4.414730e+00 1.124338e+01 
4.450350e+00 1.107132e+01 
4.485320e+00 1.090598e+01 
4.519810e+00 1.074621e+01 
4.555430e+00 1.058459e+01 
4.590870e+00 1.042714e+01 
4.625480e+00 1.027650e+01 
4.659910e+00 1.012964e+01 
4.695230e+00 9.981943e+00 
4.729960e+00 9.839614e+00 
4.764450e+00 9.701044e+00 
4.799530e+00 9.562860e+00 
4.834910e+00 9.426253e+00 
4.869700e+00 9.294582e+00 
4.904370e+00 9.165896e+00 
4.939450e+00 9.038208e+00 
4.973940e+00 8.915102e+00 
5.008430e+00 8.794307e+00 
5.043810e+00 8.672746e+00 
5.078840e+00 8.554672e+00 
5.113500e+00 8.440020e+00 
5.148890e+00 8.325252e+00 
5.184210e+00 8.212853e+00 
5.219060e+00 8.104011e+00 
5.253660e+00 7.997966e+00 
5.288570e+00 7.892897e+00 
5.323420e+00 7.789958e+00 
5.358440e+00 7.688438e+00 
5.393590e+00 7.588360e+00 
5.428310e+00 7.491355e+00 
5.462800e+00 7.396722e+00 
5.497640e+00 7.302786e+00 
5.532670e+00 7.210083e+00 
5.567280e+00 7.120101e+00 
5.602000e+00 7.031371e+00 
5.637270e+00 6.942919e+00 
5.672410e+00 6.856333e+00 
5.707020e+00 6.772489e+00 
5.742040e+00 6.689204e+00 
5.777430e+00 6.606482e+00 
5.812210e+00 6.526540e+00 
5.846820e+00 6.448420e+00 
5.881610e+00 6.371207e+00 
5.916510e+00 6.295010e+00 
5.951600e+00 6.219785e+00 
5.986560e+00 6.146113e+00 
6.021830e+00 6.072988e+00 
6.056490e+00 6.002381e+00 
6.091160e+00 5.932957e+00 
6.125830e+00 5.864620e+00 
6.161090e+00 5.796275e+00 
6.195760e+00 5.730257e+00 
6.230420e+00 5.665275e+00 
6.265690e+00 5.600180e+00 
6.300950e+00 5.536305e+00 
6.335620e+00 5.474459e+00 
6.370880e+00 5.412519e+00 
6.405550e+00 5.352683e+00 
6.440220e+00 5.293799e+00 
6.475480e+00 5.234811e+00 
6.510150e+00 5.177729e+00 
6.544810e+00 5.121626e+00 
6.580080e+00 5.065377e+00 
6.614750e+00 5.010899e+00 
6.649410e+00 4.957418e+00 
6.684080e+00 4.904731e+00 
6.719340e+00 4.851923e+00 
6.754010e+00 4.800800e+00 
6.788680e+00 4.750531e+00 
6.823940e+00 4.700135e+00 
6.859800e+00 4.649620e+00 
6.894470e+00 4.601619e+00 
6.929140e+00 4.554338e+00 
6.963800e+00 4.507726e+00 
6.999070e+00 4.460964e+00 
7.033730e+00 4.415807e+00 
7.068400e+00 4.371253e+00 
7.103660e+00 4.326563e+00 
7.138330e+00 4.283288e+00 
7.173600e+00 4.240004e+00 
7.208260e+00 4.198043e+00 
7.243530e+00 4.155917e+00 
7.277600e+00 4.115866e+00 
7.312860e+00 4.075056e+00 
7.348120e+00 4.034791e+00 
7.382790e+00 3.995722e+00 
7.417460e+00 3.957276e+00 
7.452720e+00 3.918746e+00 
7.487390e+00 3.881353e+00 
7.522650e+00 3.843816e+00 
7.557320e+00 3.807510e+00 
7.591990e+00 3.771712e+00 
7.627250e+00 3.735770e+00 
7.662510e+00 3.700289e+00 
7.697180e+00 3.665969e+00 
7.731850e+00 3.632126e+00 
7.766510e+00 3.598714e+00 
7.801180e+00 3.565706e+00 
7.836440e+00 3.532665e+00 
7.871110e+00 3.500649e+00 
7.906380e+00 3.468480e+00 
7.941040e+00 3.437255e+00 
7.976310e+00 3.405938e+00 
8.011570e+00 3.375097e+00 
8.046240e+00 3.345139e+00 
8.080900e+00 3.315547e+00 
8.115570e+00 3.286334e+00 
8.150830e+00 3.257105e+00 
8.185500e+00 3.228707e+00 
8.220770e+00 3.200160e+00 
8.255430e+00 3.172439e+00 
8.290100e+00 3.145167e+00 
8.324770e+00 3.118228e+00 
8.359430e+00 3.091607e+00 
8.394700e+00 3.064833e+00 
8.429960e+00 3.038454e+00 
8.464630e+00 3.012893e+00 
8.499890e+00 2.987195e+00 
8.534560e+00 2.962214e+00 
8.569200e+00 2.937537e+00 
