# Parameters:
# omega_b = 0.022209, omega_m = 0.120000, n_s = 1.045276, h = 67.992126, w = -1.000000, sigma_8 = 0.822835
# z = 0.900000
#
# k[1/Mpc] # P(k):
8.694000e-04 7.675839e+03 
2.077466e-03 1.724706e+04 
3.285532e-03 2.487928e+04 
4.493598e-03 3.073685e+04 
5.701664e-03 3.503104e+04 
6.909730e-03 3.799961e+04 
8.117797e-03 3.992829e+04 
9.325863e-03 4.096560e+04 
1.053393e-02 4.126361e+04 
1.174199e-02 4.096569e+04 
1.295006e-02 4.016445e+04 
1.415813e-02 3.898580e+04 
1.536619e-02 3.753876e+04 
1.657426e-02 3.590615e+04 
1.778233e-02 3.419599e+04 
1.899039e-02 3.253439e+04 
2.019846e-02 3.089478e+04 
2.140652e-02 2.926693e+04 
2.261459e-02 2.769417e+04 
2.382266e-02 2.622167e+04 
2.503072e-02 2.486906e+04 
2.623879e-02 2.364032e+04 
2.744685e-02 2.253782e+04 
2.865492e-02 2.155634e+04 
2.986299e-02 2.068742e+04 
3.100100e-02 1.996756e+04 
3.220400e-02 1.929857e+04 
3.288100e-02 1.896172e+04 
3.424300e-02 1.835549e+04 
3.555100e-02 1.784647e+04 
3.686000e-02 1.739613e+04 
3.795000e-02 1.705469e+04 
3.929100e-02 1.666538e+04 
4.039800e-02 1.635860e+04 
4.164000e-02 1.602262e+04 
4.294400e-02 1.566338e+04 
4.415000e-02 1.532800e+04 
4.542900e-02 1.495233e+04 
4.660900e-02 1.459670e+04 
4.782300e-02 1.420399e+04 
4.892900e-02 1.383672e+04 
5.031200e-02 1.336022e+04 
5.155900e-02 1.291580e+04 
5.238100e-02 1.261900e+04 
5.378200e-02 1.211049e+04 
5.513400e-02 1.162017e+04 
5.627600e-02 1.121162e+04 
5.735300e-02 1.083552e+04 
5.870100e-02 1.038136e+04 
5.988700e-02 1.000098e+04 
6.113500e-02 9.622168e+03 
6.225900e-02 9.302227e+03 
6.340100e-02 8.999394e+03 
6.480200e-02 8.657190e+03 
6.601100e-02 8.390664e+03 
6.725500e-02 8.142958e+03 
6.829100e-02 7.958817e+03 
6.958600e-02 7.750436e+03 
7.071100e-02 7.590730e+03 
7.192300e-02 7.437531e+03 
7.307400e-02 7.308233e+03 
7.412300e-02 7.202289e+03 
7.550400e-02 7.078651e+03 
7.663100e-02 6.986913e+03 
7.791200e-02 6.891873e+03 
7.912700e-02 6.806441e+03 
8.027600e-02 6.727163e+03 
8.138400e-02 6.650556e+03 
8.272200e-02 6.555572e+03 
8.406100e-02 6.455856e+03 
8.534100e-02 6.352286e+03 
8.653800e-02 6.247326e+03 
8.759800e-02 6.149703e+03 
8.900300e-02 6.012563e+03 
9.009000e-02 5.899903e+03 
9.113300e-02 5.786489e+03 
9.239600e-02 5.646650e+03 
9.358000e-02 5.512344e+03 
9.496100e-02 5.353042e+03 
9.608400e-02 5.224804e+03 
9.727500e-02 5.091007e+03 
9.852600e-02 4.953581e+03 
9.973800e-02 4.825902e+03 
1.009000e-01 4.708286e+03 
1.020900e-01 4.596413e+03 
1.034000e-01 4.480584e+03 
1.046000e-01 4.381436e+03 
1.057200e-01 4.298620e+03 
1.069100e-01 4.215793e+03 
1.082500e-01 4.133301e+03 
1.093900e-01 4.070098e+03 
1.105400e-01 4.010862e+03 
1.116900e-01 3.959454e+03 
1.129600e-01 3.906123e+03 
1.142000e-01 3.859933e+03 
1.153300e-01 3.820039e+03 
1.166400e-01 3.776748e+03 
1.177800e-01 3.740206e+03 
1.190000e-01 3.702142e+03 
1.201200e-01 3.666073e+03 
1.213400e-01 3.627366e+03 
1.227100e-01 3.580115e+03 
1.238900e-01 3.539178e+03 
1.250700e-01 3.495004e+03 
1.263200e-01 3.447563e+03 
1.275500e-01 3.398113e+03 
1.287500e-01 3.349170e+03 
1.299900e-01 3.296891e+03 
1.311300e-01 3.248617e+03 
1.323500e-01 3.196154e+03 
1.335900e-01 3.143397e+03 
1.347100e-01 3.095900e+03 
1.359800e-01 3.043178e+03 
1.372100e-01 2.993118e+03 
1.384300e-01 2.944877e+03 
1.395700e-01 2.901402e+03 
1.407700e-01 2.856793e+03 
1.420300e-01 2.812589e+03 
1.432800e-01 2.769736e+03 
1.444500e-01 2.732435e+03 
1.456300e-01 2.695592e+03 
1.468900e-01 2.658688e+03 
1.480500e-01 2.625891e+03 
1.491700e-01 2.595573e+03 
1.503800e-01 2.564399e+03 
1.516400e-01 2.532843e+03 
1.528200e-01 2.504960e+03 
1.540200e-01 2.477147e+03 
1.551900e-01 2.451225e+03 
1.564300e-01 2.424440e+03 
1.576600e-01 2.398537e+03 
1.588700e-01 2.373722e+03 
1.600900e-01 2.349162e+03 
1.612700e-01 2.325701e+03 
1.625400e-01 2.300920e+03 
1.637600e-01 2.277226e+03 
1.649500e-01 2.254336e+03 
1.662200e-01 2.230235e+03 
1.674000e-01 2.207587e+03 
1.685000e-01 2.186829e+03 
1.697500e-01 2.163204e+03 
1.710300e-01 2.139019e+03 
1.722200e-01 2.116936e+03 
1.734400e-01 2.093876e+03 
1.746400e-01 2.071555e+03 
1.758700e-01 2.048892e+03 
1.770900e-01 2.026434e+03 
1.782700e-01 2.005082e+03 
1.794600e-01 1.983751e+03 
1.807000e-01 1.961796e+03 
1.819100e-01 1.940738e+03 
1.830100e-01 1.921938e+03 
1.842200e-01 1.901593e+03 
1.855000e-01 1.880451e+03 
1.867000e-01 1.861254e+03 
1.879200e-01 1.842056e+03 
1.890900e-01 1.824012e+03 
1.902800e-01 1.806332e+03 
1.915200e-01 1.788203e+03 
1.926900e-01 1.771485e+03 
1.939000e-01 1.754851e+03 
1.951700e-01 1.737670e+03 
1.963100e-01 1.722593e+03 
1.975100e-01 1.707252e+03 
1.987800e-01 1.691266e+03 
2.000100e-01 1.676117e+03 
2.012500e-01 1.661293e+03 
2.023400e-01 1.648447e+03 
2.036100e-01 1.633720e+03 
2.048900e-01 1.619201e+03 
2.060400e-01 1.606347e+03 
2.072200e-01 1.593338e+03 
2.084200e-01 1.580271e+03 
2.096900e-01 1.566643e+03 
2.109200e-01 1.553637e+03 
2.121100e-01 1.541057e+03 
2.132700e-01 1.528952e+03 
2.145200e-01 1.516089e+03 
2.157200e-01 1.503752e+03 
2.168800e-01 1.491910e+03 
2.180700e-01 1.479926e+03 
2.193400e-01 1.467197e+03 
2.206000e-01 1.454533e+03 
2.217500e-01 1.443132e+03 
2.229500e-01 1.431392e+03 
2.241400e-01 1.419594e+03 
2.253500e-01 1.407751e+03 
2.264900e-01 1.396738e+03 
2.277100e-01 1.384950e+03 
2.289900e-01 1.372579e+03 
2.301500e-01 1.361518e+03 
2.313600e-01 1.350128e+03 
2.325600e-01 1.338703e+03 
2.337700e-01 1.327334e+03 
2.350000e-01 1.315931e+03 
2.362000e-01 1.304857e+03 
2.374100e-01 1.293722e+03 
2.386500e-01 1.282463e+03 
2.399100e-01 1.271174e+03 
2.410400e-01 1.261080e+03 
2.422500e-01 1.250392e+03 
2.435000e-01 1.239495e+03 
2.447300e-01 1.228912e+03 
2.458700e-01 1.219225e+03 
2.470600e-01 1.209235e+03 
2.483300e-01 1.198711e+03 
2.495600e-01 1.188691e+03 
2.507600e-01 1.179095e+03 
2.519600e-01 1.169616e+03 
2.532200e-01 1.159788e+03 
2.543700e-01 1.151042e+03 
2.555500e-01 1.142250e+03 
2.568000e-01 1.133050e+03 
2.580100e-01 1.124253e+03 
2.592400e-01 1.115590e+03 
2.604100e-01 1.107521e+03 
2.616100e-01 1.099341e+03 
2.628400e-01 1.091055e+03 
2.640600e-01 1.083114e+03 
2.652200e-01 1.075720e+03 
2.664300e-01 1.068095e+03 
2.676500e-01 1.060494e+03 
2.688400e-01 1.053305e+03 
2.700700e-01 1.046047e+03 
2.712400e-01 1.039220e+03 
2.724800e-01 1.032064e+03 
2.736700e-01 1.025361e+03 
2.748800e-01 1.018710e+03 
2.761000e-01 1.012077e+03 
2.773200e-01 1.005518e+03 
2.785400e-01 9.990699e+02 
2.797000e-01 9.930888e+02 
2.808900e-01 9.870166e+02 
2.821400e-01 9.807067e+02 
2.833900e-01 9.744690e+02 
2.845500e-01 9.688120e+02 
2.857800e-01 9.628756e+02 
2.870300e-01 9.569072e+02 
2.882100e-01 9.513319e+02 
2.893900e-01 9.458445e+02 
2.906300e-01 9.401544e+02 
2.918900e-01 9.344337e+02 
2.930500e-01 9.292208e+02 
2.942500e-01 9.238866e+02 
2.954200e-01 9.187531e+02 
2.966500e-01 9.134103e+02 
2.978900e-01 9.080792e+02 
2.990400e-01 9.031839e+02 
3.002700e-01 8.980084e+02 
3.015100e-01 8.928481e+02 
3.026800e-01 8.880270e+02 
3.038500e-01 8.832517e+02 
3.050300e-01 8.784815e+02 
3.062600e-01 8.735666e+02 
3.075000e-01 8.686608e+02 
3.087000e-01 8.639595e+02 
3.099100e-01 8.592646e+02 
3.111200e-01 8.546194e+02 
3.123100e-01 8.501020e+02 
3.135300e-01 8.455148e+02 
3.147300e-01 8.410455e+02 
3.159900e-01 8.363977e+02 
3.171800e-01 8.320575e+02 
3.183700e-01 8.277620e+02 
3.196300e-01 8.232568e+02 
3.208400e-01 8.189715e+02 
3.220300e-01 8.147957e+02 
3.232000e-01 8.107369e+02 
3.244300e-01 8.065128e+02 
3.256700e-01 8.022941e+02 
3.269200e-01 7.980813e+02 
3.280800e-01 7.942072e+02 
3.292500e-01 7.903471e+02 
3.304800e-01 7.863296e+02 
3.317100e-01 7.823487e+02 
3.328900e-01 7.785637e+02 
3.340700e-01 7.748116e+02 
3.353600e-01 7.707602e+02 
3.365300e-01 7.671237e+02 
3.377100e-01 7.634875e+02 
3.389200e-01 7.597912e+02 
3.401600e-01 7.560368e+02 
3.413700e-01 7.524178e+02 
3.425300e-01 7.489863e+02 
3.437700e-01 7.453496e+02 
3.449800e-01 7.418319e+02 
3.461800e-01 7.383731e+02 
3.473600e-01 7.350060e+02 
3.485800e-01 7.315674e+02 
3.498100e-01 7.281305e+02 
3.510200e-01 7.247782e+02 
3.522000e-01 7.215364e+02 
3.533900e-01 7.182940e+02 
3.546400e-01 7.149328e+02 
3.558400e-01 7.117343e+02 
3.570600e-01 7.085094e+02 
3.582700e-01 7.053377e+02 
3.595000e-01 7.021404e+02 
3.607100e-01 6.990296e+02 
3.618900e-01 6.960272e+02 
3.631200e-01 6.929230e+02 
3.643200e-01 6.899193e+02 
3.655500e-01 6.868657e+02 
3.667300e-01 6.839598e+02 
3.679500e-01 6.809939e+02 
3.691900e-01 6.780040e+02 
3.703600e-01 6.752053e+02 
3.715700e-01 6.723338e+02 
3.727700e-01 6.695085e+02 
3.739900e-01 6.666644e+02 
3.752000e-01 6.638758e+02 
3.763900e-01 6.611546e+02 
3.775800e-01 6.584545e+02 
3.788200e-01 6.556631e+02 
3.800300e-01 6.529608e+02 
3.812100e-01 6.503499e+02 
3.824200e-01 6.476961e+02 
3.836100e-01 6.451062e+02 
3.848600e-01 6.424068e+02 
3.860400e-01 6.398782e+02 
3.872400e-01 6.373261e+02 
3.884600e-01 6.347591e+02 
3.896500e-01 6.322770e+02 
3.908700e-01 6.297516e+02 
3.920600e-01 6.273069e+02 
3.933100e-01 6.247584e+02 
3.945300e-01 6.222901e+02 
3.957200e-01 6.199063e+02 
3.969300e-01 6.175019e+02 
3.981700e-01 6.150566e+02 
3.993500e-01 6.127468e+02 
4.094840e-01 5.935695e+02 
4.272360e-01 5.627645e+02 
4.454600e-01 5.342152e+02 
4.630560e-01 5.091827e+02 
4.804610e-01 4.865539e+02 
4.980690e-01 4.655445e+02 
5.159230e-01 4.459652e+02 
5.317440e-01 4.299050e+02 
5.489640e-01 4.136800e+02 
5.671990e-01 3.978024e+02 
5.838690e-01 3.843313e+02 
6.018840e-01 3.707947e+02 
6.202330e-01 3.579972e+02 
6.379250e-01 3.465093e+02 
6.545410e-01 3.364342e+02 
6.714560e-01 3.267873e+02 
6.892080e-01 3.173030e+02 
7.066010e-01 3.085640e+02 
7.240540e-01 3.003046e+02 
7.420450e-01 2.922783e+02 
7.593780e-01 2.849676e+02 
7.764720e-01 2.781247e+02 
7.942840e-01 2.713583e+02 
8.116170e-01 2.650898e+02 
8.288310e-01 2.591536e+02 
8.462240e-01 2.534194e+02 
8.631980e-01 2.480566e+02 
8.810700e-01 2.426480e+02 
8.989410e-01 2.374641e+02 
9.166330e-01 2.325313e+02 
9.345640e-01 2.277226e+02 
9.515980e-01 2.233151e+02 
9.688720e-01 2.189980e+02 
9.865640e-01 2.147211e+02 
1.031870e+00 2.044100e+02 
1.063490e+00 1.976777e+02 
1.097920e+00 1.907633e+02 
1.134370e+00 1.838356e+02 
1.167730e+00 1.778360e+02 
1.203830e+00 1.716609e+02 
1.240470e+00 1.657280e+02 
1.275790e+00 1.602718e+02 
1.309140e+00 1.553790e+02 
1.342970e+00 1.506061e+02 
1.378420e+00 1.458461e+02 
1.413200e+00 1.413749e+02 
1.448110e+00 1.370750e+02 
1.484090e+00 1.328451e+02 
1.518820e+00 1.289285e+02 
1.552880e+00 1.252428e+02 
1.588630e+00 1.215300e+02 
1.623230e+00 1.180865e+02 
1.657720e+00 1.147886e+02 
1.692450e+00 1.116062e+02 
1.726400e+00 1.085975e+02 
1.762200e+00 1.055446e+02 
1.797880e+00 1.026283e+02 
1.833270e+00 9.983941e+01 
1.869070e+00 9.712780e+01 
1.903200e+00 9.463918e+01 
1.937740e+00 9.220964e+01 
1.973190e+00 8.980169e+01 
2.007440e+00 8.756079e+01 
2.042160e+00 8.537080e+01 
2.077900e+00 8.318871e+01 
2.112390e+00 8.116287e+01 
2.146220e+00 7.923216e+01 
2.181600e+00 7.728441e+01 
2.216930e+00 7.540688e+01 
2.250760e+00 7.366491e+01 
2.286500e+00 7.188360e+01 
2.321770e+00 7.018751e+01 
2.355950e+00 6.859920e+01 
2.391280e+00 6.700297e+01 
2.426240e+00 6.547405e+01 
2.460670e+00 6.401592e+01 
2.495640e+00 6.258121e+01 
2.531080e+00 6.117137e+01 
2.566220e+00 5.981490e+01 
2.600830e+00 5.852057e+01 
2.635080e+00 5.727982e+01 
2.670340e+00 5.603556e+01 
2.705970e+00 5.481777e+01 
2.740040e+00 5.368829e+01 
2.774520e+00 5.257511e+01 
2.809730e+00 5.147170e+01 
2.844390e+00 5.041756e+01 
2.879960e+00 4.936590e+01 
2.914860e+00 4.836240e+01 
2.949410e+00 4.739710e+01 
2.984440e+00 4.644471e+01 
3.019760e+00 4.551193e+01 
3.054730e+00 4.461483e+01 
3.089030e+00 4.375551e+01 
3.124060e+00 4.290235e+01 
3.159560e+00 4.206160e+01 
3.194710e+00 4.124991e+01 
3.229010e+00 4.047905e+01 
3.263320e+00 3.972838e+01 
3.297930e+00 3.899080e+01 
3.332830e+00 3.826522e+01 
3.368040e+00 3.755198e+01 
3.403300e+00 3.685628e+01 
3.438450e+00 3.618007e+01 
3.473060e+00 3.553153e+01 
3.508440e+00 3.488533e+01 
3.543110e+00 3.426819e+01 
3.577470e+00 3.366988e+01 
3.613040e+00 3.306617e+01 
3.648120e+00 3.248554e+01 
3.682910e+00 3.192382e+01 
3.718050e+00 3.136994e+01 
3.753320e+00 3.082751e+01 
3.787980e+00 3.030706e+01 
3.822290e+00 2.980423e+01 
3.857020e+00 2.930737e+01 
3.891920e+00 2.881929e+01 
3.926650e+00 2.834386e+01 
3.961970e+00 2.787190e+01 
3.997360e+00 2.741054e+01 
4.031670e+00 2.697346e+01 
4.066330e+00 2.654148e+01 
4.101420e+00 2.611410e+01 
4.136200e+00 2.570030e+01 
4.170810e+00 2.529770e+01 
4.206250e+00 2.489412e+01 
4.241580e+00 2.450070e+01 
4.276300e+00 2.412270e+01 
4.310970e+00 2.375348e+01 
4.346120e+00 2.338733e+01 
4.380600e+00 2.303599e+01 
4.414730e+00 2.269550e+01 
4.450350e+00 2.234774e+01 
4.485320e+00 2.201356e+01 
4.519810e+00 2.169096e+01 
4.555430e+00 2.136478e+01 
4.590870e+00 2.104716e+01 
4.625480e+00 2.074358e+01 
4.659910e+00 2.044763e+01 
4.695230e+00 2.015034e+01 
4.729960e+00 1.986391e+01 
4.764450e+00 1.958520e+01 
4.799530e+00 1.930752e+01 
4.834910e+00 1.903300e+01 
4.869700e+00 1.876870e+01 
4.904370e+00 1.851043e+01 
4.939450e+00 1.825425e+01 
4.973940e+00 1.800752e+01 
5.008430e+00 1.776540e+01 
5.043810e+00 1.752196e+01 
5.078840e+00 1.728560e+01 
5.113500e+00 1.705608e+01 
5.148890e+00 1.682657e+01 
5.184210e+00 1.660179e+01 
5.219060e+00 1.638417e+01 
5.253660e+00 1.617235e+01 
5.288570e+00 1.596245e+01 
5.323420e+00 1.575689e+01 
5.358440e+00 1.555428e+01 
5.393590e+00 1.535451e+01 
5.428310e+00 1.516101e+01 
5.462800e+00 1.497230e+01 
5.497640e+00 1.478496e+01 
5.532670e+00 1.460020e+01 
5.567280e+00 1.442089e+01 
5.602000e+00 1.424405e+01 
5.637270e+00 1.406786e+01 
5.672410e+00 1.389540e+01 
5.707020e+00 1.372838e+01 
5.742040e+00 1.356258e+01 
5.777430e+00 1.339790e+01 
5.812210e+00 1.323874e+01 
5.846820e+00 1.308326e+01 
5.881610e+00 1.292958e+01 
5.916510e+00 1.277790e+01 
5.951600e+00 1.262820e+01 
5.986560e+00 1.248160e+01 
6.021830e+00 1.233607e+01 
6.056490e+00 1.219557e+01 
6.091160e+00 1.205744e+01 
6.125830e+00 1.192145e+01 
6.161090e+00 1.178543e+01 
6.195760e+00 1.165405e+01 
6.230420e+00 1.152471e+01 
6.265690e+00 1.139513e+01 
6.300950e+00 1.126799e+01 
6.335620e+00 1.114488e+01 
6.370880e+00 1.102156e+01 
6.405550e+00 1.090240e+01 
6.440220e+00 1.078512e+01 
6.475480e+00 1.066761e+01 
6.510150e+00 1.055388e+01 
6.544810e+00 1.044209e+01 
6.580080e+00 1.032999e+01 
6.614750e+00 1.022140e+01 
6.649410e+00 1.011476e+01 
6.684080e+00 1.000968e+01 
6.719340e+00 9.904344e+00 
6.754010e+00 9.802336e+00 
6.788680e+00 9.701975e+00 
6.823940e+00 9.601346e+00 
6.859800e+00 9.500465e+00 
6.894470e+00 9.404551e+00 
6.929140e+00 9.310047e+00 
6.963800e+00 9.216866e+00 
6.999070e+00 9.123368e+00 
7.033730e+00 9.033015e+00 
7.068400e+00 8.943856e+00 
7.103660e+00 8.854411e+00 
7.138330e+00 8.767757e+00 
7.173600e+00 8.681009e+00 
7.208260e+00 8.596902e+00 
7.243530e+00 8.512453e+00 
7.277600e+00 8.432107e+00 
7.312860e+00 8.350186e+00 
7.348120e+00 8.269349e+00 
7.382790e+00 8.190903e+00 
7.417460e+00 8.113633e+00 
7.452720e+00 8.036150e+00 
7.487390e+00 7.960945e+00 
7.522650e+00 7.885443e+00 
7.557320e+00 7.812324e+00 
7.591990e+00 7.740192e+00 
7.627250e+00 7.667761e+00 
7.662510e+00 7.596251e+00 
7.697180e+00 7.527001e+00 
7.731850e+00 7.458679e+00 
7.766510e+00 7.391219e+00 
7.801180e+00 7.324569e+00 
7.836440e+00 7.257772e+00 
7.871110e+00 7.192994e+00 
7.906380e+00 7.127900e+00 
7.941040e+00 7.064712e+00 
7.976310e+00 7.001272e+00 
8.011570e+00 6.938718e+00 
8.046240e+00 6.877951e+00 
8.080900e+00 6.817924e+00 
8.115570e+00 6.758633e+00 
8.150830e+00 6.699218e+00 
8.185500e+00 6.641489e+00 
8.220770e+00 6.583452e+00 
8.255430e+00 6.527089e+00 
8.290100e+00 6.471518e+00 
8.324770e+00 6.416607e+00 
8.359430e+00 6.362343e+00 
8.394700e+00 6.307762e+00 
8.429960e+00 6.253924e+00 
8.464630e+00 6.201689e+00 
8.499890e+00 6.149171e+00 
8.534560e+00 6.098119e+00 
8.569200e+00 6.047683e+00 
