# Parameters:
# omega_b = 0.021783, omega_m = 0.150039, n_s = 0.875197, h = 58.543307, w = -1.000000, sigma_8 = 0.767717
# z = 0.900000
#
# k[1/Mpc] # P(k):
8.694000e-04 7.939800e+03 
2.077466e-03 1.578060e+04 
3.285532e-03 2.159421e+04 
4.493598e-03 2.592034e+04 
5.701664e-03 2.905952e+04 
6.909730e-03 3.123085e+04 
8.117797e-03 3.265702e+04 
9.325863e-03 3.345483e+04 
1.053393e-02 3.373921e+04 
1.174199e-02 3.361545e+04 
1.295006e-02 3.314663e+04 
1.415813e-02 3.241519e+04 
1.536619e-02 3.149227e+04 
1.657426e-02 3.043222e+04 
1.778233e-02 2.932010e+04 
1.899039e-02 2.824133e+04 
2.019846e-02 2.713970e+04 
2.140652e-02 2.599447e+04 
2.261459e-02 2.484450e+04 
2.382266e-02 2.372977e+04 
2.503072e-02 2.266947e+04 
2.623879e-02 2.167019e+04 
2.744685e-02 2.073284e+04 
2.865492e-02 1.986339e+04 
2.986299e-02 1.906107e+04 
3.100100e-02 1.836507e+04 
3.220400e-02 1.769018e+04 
3.288100e-02 1.733719e+04 
3.424300e-02 1.668173e+04 
3.555100e-02 1.611347e+04 
3.686000e-02 1.559945e+04 
3.795000e-02 1.520718e+04 
3.929100e-02 1.476519e+04 
4.039800e-02 1.442747e+04 
4.164000e-02 1.407177e+04 
4.294400e-02 1.371841e+04 
4.415000e-02 1.340600e+04 
4.542900e-02 1.308175e+04 
4.660900e-02 1.278917e+04 
4.782300e-02 1.248483e+04 
4.892900e-02 1.220834e+04 
5.031200e-02 1.185883e+04 
5.155900e-02 1.153778e+04 
5.238100e-02 1.132390e+04 
5.378200e-02 1.095625e+04 
5.513400e-02 1.059686e+04 
5.627600e-02 1.029151e+04 
5.735300e-02 1.000431e+04 
5.870100e-02 9.647910e+03 
5.988700e-02 9.340164e+03 
6.113500e-02 9.023668e+03 
6.225900e-02 8.746557e+03 
6.340100e-02 8.474689e+03 
6.480200e-02 8.156516e+03 
6.601100e-02 7.896568e+03 
6.725500e-02 7.644618e+03 
6.829100e-02 7.448183e+03 
6.958600e-02 7.218176e+03 
7.071100e-02 7.033639e+03 
7.192300e-02 6.849768e+03 
7.307400e-02 6.688953e+03 
7.412300e-02 6.553409e+03 
7.550400e-02 6.390997e+03 
7.663100e-02 6.269227e+03 
7.791200e-02 6.143842e+03 
7.912700e-02 6.035288e+03 
8.027600e-02 5.939645e+03 
8.138400e-02 5.852534e+03 
8.272200e-02 5.752797e+03 
8.406100e-02 5.657149e+03 
8.534100e-02 5.567628e+03 
8.653800e-02 5.483818e+03 
8.759800e-02 5.409341e+03 
8.900300e-02 5.309220e+03 
9.009000e-02 5.229692e+03 
9.113300e-02 5.150887e+03 
9.239600e-02 5.054196e+03 
9.358000e-02 4.961255e+03 
9.496100e-02 4.849461e+03 
9.608400e-02 4.757878e+03 
9.727500e-02 4.660875e+03 
9.852600e-02 4.556824e+03 
9.973800e-02 4.457541e+03 
1.009000e-01 4.363890e+03 
1.020900e-01 4.268880e+03 
1.034000e-01 4.167368e+03 
1.046000e-01 4.077132e+03 
1.057200e-01 3.995941e+03 
1.069100e-01 3.912562e+03 
1.082500e-01 3.823117e+03 
1.093900e-01 3.750750e+03 
1.105400e-01 3.680572e+03 
1.116900e-01 3.614855e+03 
1.129600e-01 3.545266e+03 
1.142000e-01 3.481926e+03 
1.153300e-01 3.426998e+03 
1.166400e-01 3.366985e+03 
1.177800e-01 3.318055e+03 
1.190000e-01 3.267887e+03 
1.201200e-01 3.224973e+03 
1.213400e-01 3.179702e+03 
1.227100e-01 3.132434e+03 
1.238900e-01 3.093049e+03 
1.250700e-01 3.055463e+03 
1.263200e-01 3.016687e+03 
1.275500e-01 2.979665e+03 
1.287500e-01 2.944192e+03 
1.299900e-01 2.908080e+03 
1.311300e-01 2.875071e+03 
1.323500e-01 2.839693e+03 
1.335900e-01 2.803712e+03 
1.347100e-01 2.770808e+03 
1.359800e-01 2.733477e+03 
1.372100e-01 2.696472e+03 
1.384300e-01 2.659895e+03 
1.395700e-01 2.624808e+03 
1.407700e-01 2.588464e+03 
1.420300e-01 2.549189e+03 
1.432800e-01 2.511108e+03 
1.444500e-01 2.474810e+03 
1.456300e-01 2.438977e+03 
1.468900e-01 2.401198e+03 
1.480500e-01 2.367062e+03 
1.491700e-01 2.334875e+03 
1.503800e-01 2.300948e+03 
1.516400e-01 2.266552e+03 
1.528200e-01 2.235780e+03 
1.540200e-01 2.205116e+03 
1.551900e-01 2.176868e+03 
1.564300e-01 2.147780e+03 
1.576600e-01 2.120130e+03 
1.588700e-01 2.094212e+03 
1.600900e-01 2.068646e+03 
1.612700e-01 2.045531e+03 
1.625400e-01 2.021123e+03 
1.637600e-01 1.998635e+03 
1.649500e-01 1.977399e+03 
1.662200e-01 1.955214e+03 
1.674000e-01 1.935309e+03 
1.685000e-01 1.917065e+03 
1.697500e-01 1.896683e+03 
1.710300e-01 1.876187e+03 
1.722200e-01 1.857471e+03 
1.734400e-01 1.838273e+03 
1.746400e-01 1.819701e+03 
1.758700e-01 1.800834e+03 
1.770900e-01 1.782121e+03 
1.782700e-01 1.764327e+03 
1.794600e-01 1.746383e+03 
1.807000e-01 1.727802e+03 
1.819100e-01 1.709978e+03 
1.830100e-01 1.693703e+03 
1.842200e-01 1.676029e+03 
1.855000e-01 1.657638e+03 
1.867000e-01 1.640430e+03 
1.879200e-01 1.623221e+03 
1.890900e-01 1.606969e+03 
1.902800e-01 1.590628e+03 
1.915200e-01 1.573876e+03 
1.926900e-01 1.558337e+03 
1.939000e-01 1.542570e+03 
1.951700e-01 1.526288e+03 
1.963100e-01 1.511940e+03 
1.975100e-01 1.497169e+03 
1.987800e-01 1.481783e+03 
2.000100e-01 1.467185e+03 
2.012500e-01 1.452855e+03 
2.023400e-01 1.440441e+03 
2.036100e-01 1.426236e+03 
2.048900e-01 1.412320e+03 
2.060400e-01 1.400004e+03 
2.072200e-01 1.387560e+03 
2.084200e-01 1.375268e+03 
2.096900e-01 1.362451e+03 
2.109200e-01 1.350222e+03 
2.121100e-01 1.338671e+03 
2.132700e-01 1.327572e+03 
2.145200e-01 1.315780e+03 
2.157200e-01 1.304670e+03 
2.168800e-01 1.294099e+03 
2.180700e-01 1.283400e+03 
2.193400e-01 1.272139e+03 
2.206000e-01 1.261121e+03 
2.217500e-01 1.251202e+03 
2.229500e-01 1.240988e+03 
2.241400e-01 1.230949e+03 
2.253500e-01 1.220876e+03 
2.264900e-01 1.211509e+03 
2.277100e-01 1.201573e+03 
2.289900e-01 1.191243e+03 
2.301500e-01 1.182007e+03 
2.313600e-01 1.172495e+03 
2.325600e-01 1.163092e+03 
2.337700e-01 1.153733e+03 
2.350000e-01 1.144343e+03 
2.362000e-01 1.135266e+03 
2.374100e-01 1.126189e+03 
2.386500e-01 1.117007e+03 
2.399100e-01 1.107799e+03 
2.410400e-01 1.099600e+03 
2.422500e-01 1.090921e+03 
2.435000e-01 1.082070e+03 
2.447300e-01 1.073471e+03 
2.458700e-01 1.065595e+03 
2.470600e-01 1.057471e+03 
2.483300e-01 1.048910e+03 
2.495600e-01 1.040735e+03 
2.507600e-01 1.032872e+03 
2.519600e-01 1.025104e+03 
2.532200e-01 1.017048e+03 
2.543700e-01 1.009822e+03 
2.555500e-01 1.002520e+03 
2.568000e-01 9.948769e+02 
2.580100e-01 9.875674e+02 
2.592400e-01 9.802846e+02 
2.604100e-01 9.734633e+02 
2.616100e-01 9.665468e+02 
2.628400e-01 9.595398e+02 
2.640600e-01 9.527313e+02 
2.652200e-01 9.463543e+02 
2.664300e-01 9.397767e+02 
2.676500e-01 9.332202e+02 
2.688400e-01 9.269460e+02 
2.700700e-01 9.205645e+02 
2.712400e-01 9.145614e+02 
2.724800e-01 9.082695e+02 
2.736700e-01 9.023279e+02 
2.748800e-01 8.963825e+02 
2.761000e-01 8.904539e+02 
2.773200e-01 8.845904e+02 
2.785400e-01 8.788047e+02 
2.797000e-01 8.733905e+02 
2.808900e-01 8.678943e+02 
2.821400e-01 8.621832e+02 
2.833900e-01 8.565357e+02 
2.845500e-01 8.513707e+02 
2.857800e-01 8.459509e+02 
2.870300e-01 8.405023e+02 
2.882100e-01 8.354129e+02 
2.893900e-01 8.303850e+02 
2.906300e-01 8.251614e+02 
2.918900e-01 8.199102e+02 
2.930500e-01 8.151255e+02 
2.942500e-01 8.102257e+02 
2.954200e-01 8.054979e+02 
2.966500e-01 8.005777e+02 
2.978900e-01 7.956687e+02 
2.990400e-01 7.911612e+02 
3.002700e-01 7.863881e+02 
3.015100e-01 7.816253e+02 
3.026800e-01 7.771759e+02 
3.038500e-01 7.727691e+02 
3.050300e-01 7.683673e+02 
3.062600e-01 7.638226e+02 
3.075000e-01 7.592867e+02 
3.087000e-01 7.549404e+02 
3.099100e-01 7.506002e+02 
3.111200e-01 7.463033e+02 
3.123100e-01 7.421201e+02 
3.135300e-01 7.378724e+02 
3.147300e-01 7.337343e+02 
3.159900e-01 7.294314e+02 
3.171800e-01 7.254093e+02 
3.183700e-01 7.214263e+02 
3.196300e-01 7.172493e+02 
3.208400e-01 7.132765e+02 
3.220300e-01 7.094055e+02 
3.232000e-01 7.056397e+02 
3.244300e-01 7.017194e+02 
3.256700e-01 6.978045e+02 
3.269200e-01 6.938953e+02 
3.280800e-01 6.903008e+02 
3.292500e-01 6.867164e+02 
3.304800e-01 6.829850e+02 
3.317100e-01 6.792880e+02 
3.328900e-01 6.757732e+02 
3.340700e-01 6.722893e+02 
3.353600e-01 6.685270e+02 
3.365300e-01 6.651501e+02 
3.377100e-01 6.617738e+02 
3.389200e-01 6.583419e+02 
3.401600e-01 6.548564e+02 
3.413700e-01 6.514974e+02 
3.425300e-01 6.483133e+02 
3.437700e-01 6.449390e+02 
3.449800e-01 6.416754e+02 
3.461800e-01 6.384667e+02 
3.473600e-01 6.353443e+02 
3.485800e-01 6.321580e+02 
3.498100e-01 6.289735e+02 
3.510200e-01 6.258678e+02 
3.522000e-01 6.228645e+02 
3.533900e-01 6.198610e+02 
3.546400e-01 6.167528e+02 
3.558400e-01 6.137955e+02 
3.570600e-01 6.108142e+02 
3.582700e-01 6.078821e+02 
3.595000e-01 6.049265e+02 
3.607100e-01 6.020548e+02 
3.618900e-01 5.992859e+02 
3.631200e-01 5.964235e+02 
3.643200e-01 5.936539e+02 
3.655500e-01 5.908383e+02 
3.667300e-01 5.881592e+02 
3.679500e-01 5.854326e+02 
3.691900e-01 5.826841e+02 
3.703600e-01 5.801116e+02 
3.715700e-01 5.774722e+02 
3.727700e-01 5.748755e+02 
3.739900e-01 5.722642e+02 
3.752000e-01 5.697087e+02 
3.763900e-01 5.672152e+02 
3.775800e-01 5.647411e+02 
3.788200e-01 5.621834e+02 
3.800300e-01 5.597074e+02 
3.812100e-01 5.573202e+02 
3.824200e-01 5.548970e+02 
3.836100e-01 5.525323e+02 
3.848600e-01 5.500677e+02 
3.860400e-01 5.477592e+02 
3.872400e-01 5.454293e+02 
3.884600e-01 5.430909e+02 
3.896500e-01 5.408320e+02 
3.908700e-01 5.385337e+02 
3.920600e-01 5.363088e+02 
3.933100e-01 5.339897e+02 
3.945300e-01 5.317436e+02 
3.957200e-01 5.295804e+02 
3.969300e-01 5.274003e+02 
3.981700e-01 5.251831e+02 
3.993500e-01 5.230889e+02 
4.094840e-01 5.057316e+02 
4.272360e-01 4.779884e+02 
4.454600e-01 4.523746e+02 
4.630560e-01 4.299712e+02 
4.804610e-01 4.097439e+02 
4.980690e-01 3.909822e+02 
5.159230e-01 3.735135e+02 
5.317440e-01 3.592044e+02 
5.489640e-01 3.447754e+02 
5.671990e-01 3.306903e+02 
5.838690e-01 3.187731e+02 
6.018840e-01 3.068401e+02 
6.202330e-01 2.956092e+02 
6.379250e-01 2.855552e+02 
6.545410e-01 2.767814e+02 
6.714560e-01 2.684092e+02 
6.892080e-01 2.602043e+02 
7.066010e-01 2.526773e+02 
7.240540e-01 2.455802e+02 
7.420450e-01 2.387111e+02 
7.593780e-01 2.324717e+02 
7.764720e-01 2.266445e+02 
7.942840e-01 2.208944e+02 
8.116170e-01 2.155818e+02 
8.288310e-01 2.105602e+02 
8.462240e-01 2.057162e+02 
8.631980e-01 2.011940e+02 
8.810700e-01 1.966370e+02 
8.989410e-01 1.922739e+02 
9.166330e-01 1.881261e+02 
9.345640e-01 1.840860e+02 
9.515980e-01 1.803870e+02 
9.688720e-01 1.767661e+02 
9.865640e-01 1.731811e+02 
1.031870e+00 1.645440e+02 
1.063490e+00 1.589114e+02 
1.097920e+00 1.531283e+02 
1.134370e+00 1.473409e+02 
1.167730e+00 1.423337e+02 
1.203830e+00 1.371830e+02 
1.240470e+00 1.322403e+02 
1.275790e+00 1.276996e+02 
1.309140e+00 1.236299e+02 
1.342970e+00 1.196660e+02 
1.378420e+00 1.157170e+02 
1.413200e+00 1.120118e+02 
1.448110e+00 1.084531e+02 
1.484090e+00 1.049572e+02 
1.518820e+00 1.017242e+02 
1.552880e+00 9.868529e+01 
1.588630e+00 9.562765e+01 
1.623230e+00 9.279670e+01 
1.657720e+00 9.008837e+01 
1.692450e+00 8.747744e+01 
1.726400e+00 8.501381e+01 
1.762200e+00 8.251815e+01 
1.797880e+00 8.013556e+01 
1.833270e+00 7.786113e+01 
1.869070e+00 7.565335e+01 
1.903200e+00 7.362875e+01 
1.937740e+00 7.165469e+01 
1.973190e+00 6.970194e+01 
2.007440e+00 6.788638e+01 
2.042160e+00 6.611394e+01 
2.077900e+00 6.435096e+01 
2.112390e+00 6.271517e+01 
2.146220e+00 6.115944e+01 
2.181600e+00 5.959142e+01 
2.216930e+00 5.808162e+01 
2.250760e+00 5.668280e+01 
2.286500e+00 5.525429e+01 
2.321770e+00 5.389546e+01 
2.355950e+00 5.262396e+01 
2.391280e+00 5.134849e+01 
2.426240e+00 5.012784e+01 
2.460670e+00 4.896486e+01 
2.495640e+00 4.782197e+01 
2.531080e+00 4.670063e+01 
2.566220e+00 4.562264e+01 
2.600830e+00 4.459490e+01 
2.635080e+00 4.361055e+01 
2.670340e+00 4.262469e+01 
2.705970e+00 4.166085e+01 
2.740040e+00 4.076787e+01 
2.774520e+00 3.988914e+01 
2.809730e+00 3.901864e+01 
2.844390e+00 3.818756e+01 
2.879960e+00 3.735923e+01 
2.914860e+00 3.656997e+01 
2.949410e+00 3.581139e+01 
2.984440e+00 3.506344e+01 
3.019760e+00 3.433176e+01 
3.054730e+00 3.362871e+01 
3.089030e+00 3.295588e+01 
3.124060e+00 3.228849e+01 
3.159560e+00 3.163158e+01 
3.194710e+00 3.099785e+01 
3.229010e+00 3.039634e+01 
3.263320e+00 2.981103e+01 
3.297930e+00 2.923640e+01 
3.332830e+00 2.867188e+01 
3.368040e+00 2.811736e+01 
3.403300e+00 2.757680e+01 
3.438450e+00 2.705180e+01 
3.473060e+00 2.654851e+01 
3.508440e+00 2.604772e+01 
3.543110e+00 2.556968e+01 
3.577470e+00 2.510667e+01 
3.613040e+00 2.463977e+01 
3.648120e+00 2.419117e+01 
3.682910e+00 2.375745e+01 
3.718050e+00 2.333011e+01 
3.753320e+00 2.291186e+01 
3.787980e+00 2.251084e+01 
3.822290e+00 2.212363e+01 
3.857020e+00 2.174131e+01 
3.891920e+00 2.136597e+01 
3.926650e+00 2.100064e+01 
3.961970e+00 2.063816e+01 
3.997360e+00 2.028411e+01 
4.031670e+00 1.994886e+01 
4.066330e+00 1.961782e+01 
4.101420e+00 1.929042e+01 
4.136200e+00 1.897373e+01 
4.170810e+00 1.866571e+01 
4.206250e+00 1.835729e+01 
4.241580e+00 1.805677e+01 
4.276300e+00 1.776821e+01 
4.310970e+00 1.748647e+01 
4.346120e+00 1.720724e+01 
4.380600e+00 1.693951e+01 
4.414730e+00 1.668013e+01 
4.450350e+00 1.641544e+01 
4.485320e+00 1.616118e+01 
4.519810e+00 1.591591e+01 
4.555430e+00 1.566804e+01 
4.590870e+00 1.542679e+01 
4.625480e+00 1.519636e+01 
4.659910e+00 1.497179e+01 
4.695230e+00 1.474642e+01 
4.729960e+00 1.452936e+01 
4.764450e+00 1.431826e+01 
4.799530e+00 1.410808e+01 
4.834910e+00 1.390035e+01 
4.869700e+00 1.370051e+01 
4.904370e+00 1.350532e+01 
4.939450e+00 1.331179e+01 
4.973940e+00 1.312553e+01 
5.008430e+00 1.294281e+01 
5.043810e+00 1.275921e+01 
5.078840e+00 1.258104e+01 
5.113500e+00 1.240808e+01 
5.148890e+00 1.223527e+01 
5.184210e+00 1.206608e+01 
5.219060e+00 1.190236e+01 
5.253660e+00 1.174311e+01 
5.288570e+00 1.158536e+01 
5.323420e+00 1.143097e+01 
5.358440e+00 1.127887e+01 
5.393590e+00 1.112896e+01 
5.428310e+00 1.098385e+01 
5.462800e+00 1.084240e+01 
5.497640e+00 1.070201e+01 
5.532670e+00 1.056366e+01 
5.567280e+00 1.042945e+01 
5.602000e+00 1.029713e+01 
5.637270e+00 1.016541e+01 
5.672410e+00 1.003652e+01 
5.707020e+00 9.911728e+00 
5.742040e+00 9.787954e+00 
5.777430e+00 9.665066e+00 
5.812210e+00 9.546322e+00 
5.846820e+00 9.430427e+00 
5.881610e+00 9.315921e+00 
5.916510e+00 9.202935e+00 
5.951600e+00 9.091513e+00 
5.986560e+00 8.982455e+00 
6.021830e+00 8.874215e+00 
6.056490e+00 8.769788e+00 
6.091160e+00 8.667181e+00 
6.125830e+00 8.566191e+00 
6.161090e+00 8.465231e+00 
6.195760e+00 8.367792e+00 
6.230420e+00 8.271890e+00 
6.265690e+00 8.175834e+00 
6.300950e+00 8.081699e+00 
6.335620e+00 7.990563e+00 
6.370880e+00 7.899294e+00 
6.405550e+00 7.811182e+00 
6.440220e+00 7.724500e+00 
6.475480e+00 7.637671e+00 
6.510150e+00 7.553679e+00 
6.544810e+00 7.471193e+00 
6.580080e+00 7.388499e+00 
6.614750e+00 7.308411e+00 
6.649410e+00 7.229846e+00 
6.684080e+00 7.152459e+00 
6.719340e+00 7.074898e+00 
6.754010e+00 6.999830e+00 
6.788680e+00 6.926050e+00 
6.823940e+00 6.852086e+00 
6.859800e+00 6.777952e+00 
6.894470e+00 6.707542e+00 
6.929140e+00 6.638202e+00 
6.963800e+00 6.569846e+00 
6.999070e+00 6.501275e+00 
7.033730e+00 6.435098e+00 
7.068400e+00 6.369807e+00 
7.103660e+00 6.304318e+00 
7.138330e+00 6.240912e+00 
7.173600e+00 6.177506e+00 
7.208260e+00 6.116041e+00 
7.243530e+00 6.054337e+00 
7.277600e+00 5.995682e+00 
7.312860e+00 5.935923e+00 
7.348120e+00 5.876965e+00 
7.382790e+00 5.819761e+00 
7.417460e+00 5.763475e+00 
7.452720e+00 5.707072e+00 
7.487390e+00 5.652335e+00 
7.522650e+00 5.597390e+00 
7.557320e+00 5.544246e+00 
7.591990e+00 5.491849e+00 
7.627250e+00 5.439242e+00 
7.662510e+00 5.387312e+00 
7.697180e+00 5.337084e+00 
7.731850e+00 5.287556e+00 
7.766510e+00 5.238660e+00 
7.801180e+00 5.190357e+00 
7.836440e+00 5.142003e+00 
7.871110e+00 5.095147e+00 
7.906380e+00 5.048068e+00 
7.941040e+00 5.002374e+00 
7.976310e+00 4.956537e+00 
8.011570e+00 4.911386e+00 
8.046240e+00 4.867531e+00 
8.080900e+00 4.824213e+00 
8.115570e+00 4.781448e+00 
8.150830e+00 4.738657e+00 
8.185500e+00 4.697083e+00 
8.220770e+00 4.655293e+00 
8.255430e+00 4.614712e+00 
8.290100e+00 4.574769e+00 
8.324770e+00 4.535312e+00 
8.359430e+00 4.496323e+00 
8.394700e+00 4.457109e+00 
8.429960e+00 4.418469e+00 
8.464630e+00 4.381018e+00 
8.499890e+00 4.343367e+00 
8.534560e+00 4.306770e+00 
8.569200e+00 4.270619e+00 
