# Parameters:
# omega_b = 0.021705, omega_m = 0.125512, n_s = 1.020079, h = 58.070866, w = -1.000000, sigma_8 = 0.814961
# z = 0.900000
#
# k[1/Mpc] # P(k):
8.694000e-04 8.174562e+03 
2.077466e-03 1.809318e+04 
3.285532e-03 2.597135e+04 
4.493598e-03 3.202550e+04 
5.701664e-03 3.650322e+04 
6.909730e-03 3.963737e+04 
8.117797e-03 4.170758e+04 
9.325863e-03 4.286159e+04 
1.053393e-02 4.325562e+04 
1.174199e-02 4.303975e+04 
1.295006e-02 4.230617e+04 
1.415813e-02 4.118030e+04 
1.536619e-02 3.977453e+04 
1.657426e-02 3.818391e+04 
1.778233e-02 3.658879e+04 
1.899039e-02 3.515903e+04 
2.019846e-02 3.372813e+04 
2.140652e-02 3.220142e+04 
2.261459e-02 3.066256e+04 
2.382266e-02 2.919196e+04 
2.503072e-02 2.781942e+04 
2.623879e-02 2.655237e+04 
2.744685e-02 2.539352e+04 
2.865492e-02 2.434303e+04 
2.986299e-02 2.339534e+04 
3.100100e-02 2.259287e+04 
3.220400e-02 2.183084e+04 
3.288100e-02 2.143903e+04 
3.424300e-02 2.072028e+04 
3.555100e-02 2.010301e+04 
3.686000e-02 1.954591e+04 
3.795000e-02 1.911836e+04 
3.929100e-02 1.862813e+04 
4.039800e-02 1.824411e+04 
4.164000e-02 1.782874e+04 
4.294400e-02 1.739746e+04 
4.415000e-02 1.700457e+04 
4.542900e-02 1.658045e+04 
4.660900e-02 1.618893e+04 
4.782300e-02 1.577125e+04 
4.892900e-02 1.538808e+04 
5.031200e-02 1.490076e+04 
5.155900e-02 1.445363e+04 
5.238100e-02 1.415738e+04 
5.378200e-02 1.365237e+04 
5.513400e-02 1.316619e+04 
5.627600e-02 1.275977e+04 
5.735300e-02 1.238324e+04 
5.870100e-02 1.192388e+04 
5.988700e-02 1.153391e+04 
6.113500e-02 1.113940e+04 
6.225900e-02 1.079976e+04 
6.340100e-02 1.047165e+04 
6.480200e-02 1.009296e+04 
6.601100e-02 9.789013e+03 
6.725500e-02 9.498703e+03 
6.829100e-02 9.275941e+03 
6.958600e-02 9.017873e+03 
7.071100e-02 8.813770e+03 
7.192300e-02 8.612740e+03 
7.307400e-02 8.438782e+03 
7.412300e-02 8.293379e+03 
7.550400e-02 8.120492e+03 
7.663100e-02 7.991192e+03 
7.791200e-02 7.857670e+03 
7.912700e-02 7.740412e+03 
8.027600e-02 7.634945e+03 
8.138400e-02 7.536484e+03 
8.272200e-02 7.419720e+03 
8.406100e-02 7.302837e+03 
8.534100e-02 7.187400e+03 
8.653800e-02 7.074420e+03 
8.759800e-02 6.971272e+03 
8.900300e-02 6.828791e+03 
9.009000e-02 6.713120e+03 
9.113300e-02 6.597261e+03 
9.239600e-02 6.454602e+03 
9.358000e-02 6.317533e+03 
9.496100e-02 6.154325e+03 
9.608400e-02 6.022302e+03 
9.727500e-02 5.883957e+03 
9.852600e-02 5.740323e+03 
9.973800e-02 5.605874e+03 
1.009000e-01 5.481177e+03 
1.020900e-01 5.360344e+03 
1.034000e-01 5.233917e+03 
1.046000e-01 5.124304e+03 
1.057200e-01 5.030133e+03 
1.069100e-01 4.934876e+03 
1.082500e-01 4.836807e+03 
1.093900e-01 4.759527e+03 
1.105400e-01 4.685769e+03 
1.116900e-01 4.618763e+03 
1.129600e-01 4.548239e+03 
1.142000e-01 4.484781e+03 
1.153300e-01 4.429443e+03 
1.166400e-01 4.368539e+03 
1.177800e-01 4.317438e+03 
1.190000e-01 4.264336e+03 
1.201200e-01 4.215992e+03 
1.213400e-01 4.164437e+03 
1.227100e-01 4.105559e+03 
1.238900e-01 4.055424e+03 
1.250700e-01 4.004112e+03 
1.263200e-01 3.950009e+03 
1.275500e-01 3.895755e+03 
1.287500e-01 3.842940e+03 
1.299900e-01 3.787862e+03 
1.311300e-01 3.737483e+03 
1.323500e-01 3.683435e+03 
1.335900e-01 3.629199e+03 
1.347100e-01 3.580537e+03 
1.359800e-01 3.526361e+03 
1.372100e-01 3.474650e+03 
1.384300e-01 3.424526e+03 
1.395700e-01 3.378722e+03 
1.407700e-01 3.331579e+03 
1.420300e-01 3.283686e+03 
1.432800e-01 3.237231e+03 
1.444500e-01 3.195441e+03 
1.456300e-01 3.154155e+03 
1.468900e-01 3.111785e+03 
1.480500e-01 3.073815e+03 
1.491700e-01 3.038244e+03 
1.503800e-01 3.001054e+03 
1.516400e-01 2.963262e+03 
1.528200e-01 2.929213e+03 
1.540200e-01 2.895253e+03 
1.551900e-01 2.863254e+03 
1.564300e-01 2.830107e+03 
1.576600e-01 2.798031e+03 
1.588700e-01 2.767276e+03 
1.600900e-01 2.736856e+03 
1.612700e-01 2.708085e+03 
1.625400e-01 2.677699e+03 
1.637600e-01 2.649001e+03 
1.649500e-01 2.621481e+03 
1.662200e-01 2.592614e+03 
1.674000e-01 2.566078e+03 
1.685000e-01 2.541757e+03 
1.697500e-01 2.514430e+03 
1.710300e-01 2.486799e+03 
1.722200e-01 2.461569e+03 
1.734400e-01 2.435794e+03 
1.746400e-01 2.410865e+03 
1.758700e-01 2.385671e+03 
1.770900e-01 2.360947e+03 
1.782700e-01 2.337436e+03 
1.794600e-01 2.314038e+03 
1.807000e-01 2.290014e+03 
1.819100e-01 2.266966e+03 
1.830100e-01 2.246341e+03 
1.842200e-01 2.224007e+03 
1.855000e-01 2.200784e+03 
1.867000e-01 2.179489e+03 
1.879200e-01 2.158188e+03 
1.890900e-01 2.138116e+03 
1.902800e-01 2.118195e+03 
1.915200e-01 2.097766e+03 
1.926900e-01 2.078851e+03 
1.939000e-01 2.059787e+03 
1.951700e-01 2.040093e+03 
1.963100e-01 2.022742e+03 
1.975100e-01 2.004897e+03 
1.987800e-01 1.986302e+03 
2.000100e-01 1.968631e+03 
2.012500e-01 1.951223e+03 
2.023400e-01 1.936140e+03 
2.036100e-01 1.918836e+03 
2.048900e-01 1.901738e+03 
2.060400e-01 1.886601e+03 
2.072200e-01 1.871286e+03 
2.084200e-01 1.855945e+03 
2.096900e-01 1.839945e+03 
2.109200e-01 1.824676e+03 
2.121100e-01 1.809997e+03 
2.132700e-01 1.795877e+03 
2.145200e-01 1.780874e+03 
2.157200e-01 1.766545e+03 
2.168800e-01 1.752821e+03 
2.180700e-01 1.738930e+03 
2.193400e-01 1.724194e+03 
2.206000e-01 1.709562e+03 
2.217500e-01 1.696388e+03 
2.229500e-01 1.682823e+03 
2.241400e-01 1.669174e+03 
2.253500e-01 1.655471e+03 
2.264900e-01 1.642729e+03 
2.277100e-01 1.629043e+03 
2.289900e-01 1.614629e+03 
2.301500e-01 1.601741e+03 
2.313600e-01 1.588469e+03 
2.325600e-01 1.575015e+03 
2.337700e-01 1.561628e+03 
2.350000e-01 1.548200e+03 
2.362000e-01 1.535086e+03 
2.374100e-01 1.521815e+03 
2.386500e-01 1.508396e+03 
2.399100e-01 1.494944e+03 
2.410400e-01 1.482794e+03 
2.422500e-01 1.469917e+03 
2.435000e-01 1.456789e+03 
2.447300e-01 1.444021e+03 
2.458700e-01 1.432257e+03 
2.470600e-01 1.420129e+03 
2.483300e-01 1.407352e+03 
2.495600e-01 1.395172e+03 
2.507600e-01 1.383484e+03 
2.519600e-01 1.371941e+03 
2.532200e-01 1.359974e+03 
2.543700e-01 1.349334e+03 
2.555500e-01 1.338647e+03 
2.568000e-01 1.327464e+03 
2.580100e-01 1.316773e+03 
2.592400e-01 1.306287e+03 
2.604100e-01 1.296541e+03 
2.616100e-01 1.286660e+03 
2.628400e-01 1.276653e+03 
2.640600e-01 1.267126e+03 
2.652200e-01 1.258281e+03 
2.664300e-01 1.249160e+03 
2.676500e-01 1.240069e+03 
2.688400e-01 1.231529e+03 
2.700700e-01 1.222944e+03 
2.712400e-01 1.214869e+03 
2.724800e-01 1.206405e+03 
2.736700e-01 1.198520e+03 
2.748800e-01 1.190741e+03 
2.761000e-01 1.182983e+03 
2.773200e-01 1.175311e+03 
2.785400e-01 1.167792e+03 
2.797000e-01 1.160863e+03 
2.808900e-01 1.153829e+03 
2.821400e-01 1.146519e+03 
2.833900e-01 1.139295e+03 
2.845500e-01 1.132790e+03 
2.857800e-01 1.125964e+03 
2.870300e-01 1.119100e+03 
2.882100e-01 1.112689e+03 
2.893900e-01 1.106399e+03 
2.906300e-01 1.099888e+03 
2.918900e-01 1.093342e+03 
2.930500e-01 1.087377e+03 
2.942500e-01 1.081277e+03 
2.954200e-01 1.075419e+03 
2.966500e-01 1.069322e+03 
2.978900e-01 1.063238e+03 
2.990400e-01 1.057651e+03 
3.002700e-01 1.051750e+03 
3.015100e-01 1.045869e+03 
3.026800e-01 1.040374e+03 
3.038500e-01 1.034931e+03 
3.050300e-01 1.029493e+03 
3.062600e-01 1.023892e+03 
3.075000e-01 1.018300e+03 
3.087000e-01 1.012942e+03 
3.099100e-01 1.007590e+03 
3.111200e-01 1.002294e+03 
3.123100e-01 9.971417e+02 
3.135300e-01 9.919094e+02 
3.147300e-01 9.868115e+02 
3.159900e-01 9.815100e+02 
3.171800e-01 9.765561e+02 
3.183700e-01 9.716514e+02 
3.196300e-01 9.665071e+02 
3.208400e-01 9.616136e+02 
3.220300e-01 9.568451e+02 
3.232000e-01 9.522059e+02 
3.244300e-01 9.473759e+02 
3.256700e-01 9.425520e+02 
3.269200e-01 9.377347e+02 
3.280800e-01 9.333046e+02 
3.292500e-01 9.288865e+02 
3.304800e-01 9.242870e+02 
3.317100e-01 9.197293e+02 
3.328900e-01 9.153958e+02 
3.340700e-01 9.110999e+02 
3.353600e-01 9.064574e+02 
3.365300e-01 9.022888e+02 
3.377100e-01 8.981205e+02 
3.389200e-01 8.938833e+02 
3.401600e-01 8.895793e+02 
3.413700e-01 8.854282e+02 
3.425300e-01 8.814906e+02 
3.437700e-01 8.773174e+02 
3.449800e-01 8.732806e+02 
3.461800e-01 8.693115e+02 
3.473600e-01 8.654467e+02 
3.485800e-01 8.614981e+02 
3.498100e-01 8.575514e+02 
3.510200e-01 8.537019e+02 
3.522000e-01 8.499791e+02 
3.533900e-01 8.462556e+02 
3.546400e-01 8.423939e+02 
3.558400e-01 8.387189e+02 
3.570600e-01 8.350138e+02 
3.582700e-01 8.313695e+02 
3.595000e-01 8.276958e+02 
3.607100e-01 8.241213e+02 
3.618900e-01 8.206709e+02 
3.631200e-01 8.171037e+02 
3.643200e-01 8.136518e+02 
3.655500e-01 8.101425e+02 
3.667300e-01 8.068030e+02 
3.679500e-01 8.033945e+02 
3.691900e-01 7.999585e+02 
3.703600e-01 7.967422e+02 
3.715700e-01 7.934421e+02 
3.727700e-01 7.901952e+02 
3.739900e-01 7.869268e+02 
3.752000e-01 7.837226e+02 
3.763900e-01 7.805961e+02 
3.775800e-01 7.774936e+02 
3.788200e-01 7.742862e+02 
3.800300e-01 7.711810e+02 
3.812100e-01 7.681816e+02 
3.824200e-01 7.651331e+02 
3.836100e-01 7.621580e+02 
3.848600e-01 7.590572e+02 
3.860400e-01 7.561525e+02 
3.872400e-01 7.532208e+02 
3.884600e-01 7.502726e+02 
3.896500e-01 7.474222e+02 
3.908700e-01 7.445220e+02 
3.920600e-01 7.417145e+02 
3.933100e-01 7.387877e+02 
3.945300e-01 7.359531e+02 
3.957200e-01 7.332161e+02 
3.969300e-01 7.304558e+02 
3.981700e-01 7.276483e+02 
3.993500e-01 7.249965e+02 
4.094840e-01 7.029781e+02 
4.272360e-01 6.676149e+02 
4.454600e-01 6.348129e+02 
4.630560e-01 6.060095e+02 
4.804610e-01 5.799306e+02 
4.980690e-01 5.556768e+02 
5.159230e-01 5.330445e+02 
5.317440e-01 5.144614e+02 
5.489640e-01 4.956753e+02 
5.671990e-01 4.772883e+02 
5.838690e-01 4.616882e+02 
6.018840e-01 4.460121e+02 
6.202330e-01 4.311927e+02 
6.379250e-01 4.178946e+02 
6.545410e-01 4.062316e+02 
6.714560e-01 3.950579e+02 
6.892080e-01 3.840734e+02 
7.066010e-01 3.739381e+02 
7.240540e-01 3.643526e+02 
7.420450e-01 3.550198e+02 
7.593780e-01 3.465034e+02 
7.764720e-01 3.385162e+02 
7.942840e-01 3.306015e+02 
8.116170e-01 3.232451e+02 
8.288310e-01 3.162576e+02 
8.462240e-01 3.094877e+02 
8.631980e-01 3.031344e+02 
8.810700e-01 2.967074e+02 
8.989410e-01 2.905260e+02 
9.166330e-01 2.846233e+02 
9.345640e-01 2.788485e+02 
9.515980e-01 2.735357e+02 
9.688720e-01 2.683141e+02 
9.865640e-01 2.631208e+02 
1.031870e+00 2.505397e+02 
1.063490e+00 2.422677e+02 
1.097920e+00 2.337277e+02 
1.134370e+00 2.251326e+02 
1.167730e+00 2.176546e+02 
1.203830e+00 2.099274e+02 
1.240470e+00 2.024815e+02 
1.275790e+00 1.956108e+02 
1.309140e+00 1.894394e+02 
1.342970e+00 1.834048e+02 
1.378420e+00 1.773789e+02 
1.413200e+00 1.717112e+02 
1.448110e+00 1.662560e+02 
1.484090e+00 1.608862e+02 
1.518820e+00 1.559130e+02 
1.552880e+00 1.512317e+02 
1.588630e+00 1.465177e+02 
1.623230e+00 1.421458e+02 
1.657720e+00 1.379603e+02 
1.692450e+00 1.339238e+02 
1.726400e+00 1.301100e+02 
1.762200e+00 1.262426e+02 
1.797880e+00 1.225523e+02 
1.833270e+00 1.190260e+02 
1.869070e+00 1.156009e+02 
1.903200e+00 1.124616e+02 
1.937740e+00 1.093998e+02 
1.973190e+00 1.063686e+02 
2.007440e+00 1.035516e+02 
2.042160e+00 1.008023e+02 
2.077900e+00 9.806640e+01 
2.112390e+00 9.552971e+01 
2.146220e+00 9.311570e+01 
2.181600e+00 9.068373e+01 
2.216930e+00 8.834301e+01 
2.250760e+00 8.617438e+01 
2.286500e+00 8.395986e+01 
2.321770e+00 8.185428e+01 
2.355950e+00 7.988537e+01 
2.391280e+00 7.791001e+01 
2.426240e+00 7.602110e+01 
2.460670e+00 7.422225e+01 
2.495640e+00 7.245459e+01 
2.531080e+00 7.072037e+01 
2.566220e+00 6.905473e+01 
2.600830e+00 6.746773e+01 
2.635080e+00 6.594852e+01 
2.670340e+00 6.442815e+01 
2.705970e+00 6.294215e+01 
2.740040e+00 6.156562e+01 
2.774520e+00 6.021088e+01 
2.809730e+00 5.887054e+01 
2.844390e+00 5.759188e+01 
2.879960e+00 5.631833e+01 
2.914860e+00 5.510503e+01 
2.949410e+00 5.393939e+01 
2.984440e+00 5.279151e+01 
3.019760e+00 5.166868e+01 
3.054730e+00 5.058998e+01 
3.089030e+00 4.955918e+01 
3.124060e+00 4.853685e+01 
3.159560e+00 4.753067e+01 
3.194710e+00 4.656111e+01 
3.229010e+00 4.564134e+01 
3.263320e+00 4.474750e+01 
3.297930e+00 4.387008e+01 
3.332830e+00 4.300814e+01 
3.368040e+00 4.216218e+01 
3.403300e+00 4.133810e+01 
3.438450e+00 4.053862e+01 
3.473060e+00 3.977251e+01 
3.508440e+00 3.901061e+01 
3.543110e+00 3.828356e+01 
3.577470e+00 3.758020e+01 
3.613040e+00 3.687108e+01 
3.648120e+00 3.619008e+01 
3.682910e+00 3.553197e+01 
3.718050e+00 3.488410e+01 
3.753320e+00 3.425036e+01 
3.787980e+00 3.364319e+01 
3.822290e+00 3.305723e+01 
3.857020e+00 3.247909e+01 
3.891920e+00 3.191177e+01 
3.926650e+00 3.136000e+01 
3.961970e+00 3.081277e+01 
3.997360e+00 3.027867e+01 
4.031670e+00 2.977308e+01 
4.066330e+00 2.927426e+01 
4.101420e+00 2.878100e+01 
4.136200e+00 2.830430e+01 
4.170810e+00 2.784071e+01 
4.206250e+00 2.737679e+01 
4.241580e+00 2.692487e+01 
4.276300e+00 2.649130e+01 
4.310970e+00 2.606823e+01 
4.346120e+00 2.564909e+01 
4.380600e+00 2.524745e+01 
4.414730e+00 2.485839e+01 
4.450350e+00 2.446179e+01 
4.485320e+00 2.408083e+01 
4.519810e+00 2.371362e+01 
4.555430e+00 2.334265e+01 
4.590870e+00 2.298171e+01 
4.625480e+00 2.263720e+01 
4.659910e+00 2.230146e+01 
4.695230e+00 2.196480e+01 
4.729960e+00 2.164061e+01 
4.764450e+00 2.132544e+01 
4.799530e+00 2.101184e+01 
4.834910e+00 2.070191e+01 
4.869700e+00 2.040398e+01 
4.904370e+00 2.011301e+01 
4.939450e+00 1.982461e+01 
4.973940e+00 1.954722e+01 
5.008430e+00 1.927511e+01 
5.043810e+00 1.900183e+01 
5.078840e+00 1.873674e+01 
5.113500e+00 1.847938e+01 
5.148890e+00 1.822247e+01 
5.184210e+00 1.797093e+01 
5.219060e+00 1.772758e+01 
5.253660e+00 1.749100e+01 
5.288570e+00 1.725664e+01 
5.323420e+00 1.702734e+01 
5.358440e+00 1.680154e+01 
5.393590e+00 1.657898e+01 
5.428310e+00 1.636364e+01 
5.462800e+00 1.615379e+01 
5.497640e+00 1.594550e+01 
5.532670e+00 1.574035e+01 
5.567280e+00 1.554135e+01 
5.602000e+00 1.534514e+01 
5.637270e+00 1.514991e+01 
5.672410e+00 1.495889e+01 
5.707020e+00 1.477393e+01 
5.742040e+00 1.459057e+01 
5.777430e+00 1.440853e+01 
5.812210e+00 1.423262e+01 
5.846820e+00 1.406098e+01 
5.881610e+00 1.389141e+01 
5.916510e+00 1.372408e+01 
5.951600e+00 1.355910e+01 
5.986560e+00 1.339764e+01 
6.021830e+00 1.323738e+01 
6.056490e+00 1.308279e+01 
6.091160e+00 1.293090e+01 
6.125830e+00 1.278141e+01 
6.161090e+00 1.263196e+01 
6.195760e+00 1.248774e+01 
6.230420e+00 1.234579e+01 
6.265690e+00 1.220360e+01 
6.300950e+00 1.206428e+01 
6.335620e+00 1.192938e+01 
6.370880e+00 1.179428e+01 
6.405550e+00 1.166386e+01 
6.440220e+00 1.153554e+01 
6.475480e+00 1.140700e+01 
6.510150e+00 1.128266e+01 
6.544810e+00 1.116054e+01 
6.580080e+00 1.103811e+01 
6.614750e+00 1.091953e+01 
6.649410e+00 1.080318e+01 
6.684080e+00 1.068858e+01 
6.719340e+00 1.057371e+01 
6.754010e+00 1.046251e+01 
6.788680e+00 1.035321e+01 
6.823940e+00 1.024362e+01 
6.859800e+00 1.013378e+01 
6.894470e+00 1.002942e+01 
6.929140e+00 9.926646e+00 
6.963800e+00 9.825318e+00 
6.999070e+00 9.723664e+00 
7.033730e+00 9.625528e+00 
7.068400e+00 9.528701e+00 
7.103660e+00 9.431574e+00 
7.138330e+00 9.337516e+00 
7.173600e+00 9.243421e+00 
7.208260e+00 9.152201e+00 
7.243530e+00 9.060623e+00 
7.277600e+00 8.973541e+00 
7.312860e+00 8.884798e+00 
7.348120e+00 8.797238e+00 
7.382790e+00 8.712279e+00 
7.417460e+00 8.628644e+00 
7.452720e+00 8.544811e+00 
7.487390e+00 8.463452e+00 
7.522650e+00 8.381779e+00 
7.557320e+00 8.302737e+00 
7.591990e+00 8.224786e+00 
7.627250e+00 8.146519e+00 
7.662510e+00 8.069257e+00 
7.697180e+00 7.994484e+00 
7.731850e+00 7.920737e+00 
7.766510e+00 7.847927e+00 
7.801180e+00 7.775998e+00 
7.836440e+00 7.703948e+00 
7.871110e+00 7.634101e+00 
7.906380e+00 7.563921e+00 
7.941040e+00 7.495802e+00 
7.976310e+00 7.427437e+00 
8.011570e+00 7.360059e+00 
8.046240e+00 7.294611e+00 
8.080900e+00 7.229964e+00 
8.115570e+00 7.166126e+00 
8.150830e+00 7.102195e+00 
8.185500e+00 7.040081e+00 
8.220770e+00 6.977643e+00 
8.255430e+00 6.917010e+00 
8.290100e+00 6.857270e+00 
8.324770e+00 6.798247e+00 
8.359430e+00 6.739924e+00 
8.394700e+00 6.681265e+00 
8.429960e+00 6.623426e+00 
8.464630e+00 6.567329e+00 
8.499890e+00 6.510934e+00 
8.534560e+00 6.456116e+00 
8.569200e+00 6.401965e+00 
