# Parameters:
# omega_b = 0.022398, omega_m = 0.144252, n_s = 1.048425, h = 56.653543, w = -1.000000, sigma_8 = 0.895276
# z = 0.900000
#
# k[1/Mpc] # P(k):
8.694000e-04 5.561085e+03 
2.077466e-03 1.277643e+04 
3.285532e-03 1.884198e+04 
4.493598e-03 2.380226e+04 
5.701664e-03 2.771312e+04 
6.909730e-03 3.068423e+04 
8.117797e-03 3.288350e+04 
9.325863e-03 3.439403e+04 
1.053393e-02 3.530902e+04 
1.174199e-02 3.572204e+04 
1.295006e-02 3.569131e+04 
1.415813e-02 3.530453e+04 
1.536619e-02 3.464128e+04 
1.657426e-02 3.376513e+04 
1.778233e-02 3.278195e+04 
1.899039e-02 3.181901e+04 
2.019846e-02 3.081520e+04 
2.140652e-02 2.972788e+04 
2.261459e-02 2.860108e+04 
2.382266e-02 2.748871e+04 
2.503072e-02 2.641848e+04 
2.623879e-02 2.540161e+04 
2.744685e-02 2.444247e+04 
2.865492e-02 2.355025e+04 
2.986299e-02 2.272590e+04 
3.100100e-02 2.201125e+04 
3.220400e-02 2.131941e+04 
3.288100e-02 2.095832e+04 
3.424300e-02 2.028917e+04 
3.555100e-02 1.971007e+04 
3.686000e-02 1.918692e+04 
3.795000e-02 1.878756e+04 
3.929100e-02 1.833655e+04 
4.039800e-02 1.799019e+04 
4.164000e-02 1.762284e+04 
4.294400e-02 1.725310e+04 
4.415000e-02 1.692270e+04 
4.542900e-02 1.657389e+04 
4.660900e-02 1.625517e+04 
4.782300e-02 1.591781e+04 
4.892900e-02 1.560796e+04 
5.031200e-02 1.521149e+04 
5.155900e-02 1.484297e+04 
5.238100e-02 1.459564e+04 
5.378200e-02 1.416755e+04 
5.513400e-02 1.374572e+04 
5.627600e-02 1.338502e+04 
5.735300e-02 1.304415e+04 
5.870100e-02 1.261899e+04 
5.988700e-02 1.225004e+04 
6.113500e-02 1.186882e+04 
6.225900e-02 1.153350e+04 
6.340100e-02 1.120318e+04 
6.480200e-02 1.081504e+04 
6.601100e-02 1.049647e+04 
6.725500e-02 1.018672e+04 
6.829100e-02 9.944617e+03 
6.958600e-02 9.660655e+03 
7.071100e-02 9.432698e+03 
7.192300e-02 9.205682e+03 
7.307400e-02 9.007480e+03 
7.412300e-02 8.840911e+03 
7.550400e-02 8.642404e+03 
7.663100e-02 8.494373e+03 
7.791200e-02 8.343483e+03 
7.912700e-02 8.214258e+03 
8.027600e-02 8.101346e+03 
8.138400e-02 7.999183e+03 
8.272200e-02 7.882895e+03 
8.406100e-02 7.771662e+03 
8.534100e-02 7.667213e+03 
8.653800e-02 7.568473e+03 
8.759800e-02 7.479888e+03 
8.900300e-02 7.359220e+03 
9.009000e-02 7.261804e+03 
9.113300e-02 7.163732e+03 
9.239600e-02 7.042088e+03 
9.358000e-02 6.923595e+03 
9.496100e-02 6.779078e+03 
9.608400e-02 6.659727e+03 
9.727500e-02 6.532586e+03 
9.852600e-02 6.395109e+03 
9.973800e-02 6.263624e+03 
1.009000e-01 6.139341e+03 
1.020900e-01 6.013183e+03 
1.034000e-01 5.878465e+03 
1.046000e-01 5.758820e+03 
1.057200e-01 5.651608e+03 
1.069100e-01 5.541644e+03 
1.082500e-01 5.424279e+03 
1.093900e-01 5.329698e+03 
1.105400e-01 5.238177e+03 
1.116900e-01 5.153025e+03 
1.129600e-01 5.062985e+03 
1.142000e-01 4.981434e+03 
1.153300e-01 4.910801e+03 
1.166400e-01 4.833794e+03 
1.177800e-01 4.771047e+03 
1.190000e-01 4.706724e+03 
1.201200e-01 4.651521e+03 
1.213400e-01 4.593245e+03 
1.227100e-01 4.531961e+03 
1.238900e-01 4.480784e+03 
1.250700e-01 4.431578e+03 
1.263200e-01 4.380667e+03 
1.275500e-01 4.331731e+03 
1.287500e-01 4.284722e+03 
1.299900e-01 4.236676e+03 
1.311300e-01 4.192703e+03 
1.323500e-01 4.145490e+03 
1.335900e-01 4.097492e+03 
1.347100e-01 4.053624e+03 
1.359800e-01 4.003915e+03 
1.372100e-01 3.954770e+03 
1.384300e-01 3.906242e+03 
1.395700e-01 3.859824e+03 
1.407700e-01 3.811739e+03 
1.420300e-01 3.759950e+03 
1.432800e-01 3.709699e+03 
1.444500e-01 3.661895e+03 
1.456300e-01 3.614666e+03 
1.468900e-01 3.564819e+03 
1.480500e-01 3.519738e+03 
1.491700e-01 3.477151e+03 
1.503800e-01 3.432165e+03 
1.516400e-01 3.386476e+03 
1.528200e-01 3.345374e+03 
1.540200e-01 3.304389e+03 
1.551900e-01 3.266386e+03 
1.564300e-01 3.227173e+03 
1.576600e-01 3.189752e+03 
1.588700e-01 3.154501e+03 
1.600900e-01 3.119701e+03 
1.612700e-01 3.087997e+03 
1.625400e-01 3.054509e+03 
1.637600e-01 3.023547e+03 
1.649500e-01 2.994241e+03 
1.662200e-01 2.963614e+03 
1.674000e-01 2.936116e+03 
1.685000e-01 2.910907e+03 
1.697500e-01 2.882760e+03 
1.710300e-01 2.854474e+03 
1.722200e-01 2.828638e+03 
1.734400e-01 2.802257e+03 
1.746400e-01 2.776735e+03 
1.758700e-01 2.750844e+03 
1.770900e-01 2.725243e+03 
1.782700e-01 2.700890e+03 
1.794600e-01 2.676400e+03 
1.807000e-01 2.651080e+03 
1.819100e-01 2.626782e+03 
1.830100e-01 2.604638e+03 
1.842200e-01 2.580588e+03 
1.855000e-01 2.555554e+03 
1.867000e-01 2.532146e+03 
1.879200e-01 2.508728e+03 
1.890900e-01 2.486598e+03 
1.902800e-01 2.464322e+03 
1.915200e-01 2.441476e+03 
1.926900e-01 2.420262e+03 
1.939000e-01 2.398687e+03 
1.951700e-01 2.376399e+03 
1.963100e-01 2.356730e+03 
1.975100e-01 2.336420e+03 
1.987800e-01 2.315256e+03 
2.000100e-01 2.295149e+03 
2.012500e-01 2.275356e+03 
2.023400e-01 2.258204e+03 
2.036100e-01 2.238553e+03 
2.048900e-01 2.219236e+03 
2.060400e-01 2.202133e+03 
2.072200e-01 2.184842e+03 
2.084200e-01 2.167685e+03 
2.096900e-01 2.149791e+03 
2.109200e-01 2.132713e+03 
2.121100e-01 2.116486e+03 
2.132700e-01 2.100885e+03 
2.145200e-01 2.084306e+03 
2.157200e-01 2.068606e+03 
2.168800e-01 2.053629e+03 
2.180700e-01 2.038468e+03 
2.193400e-01 2.022442e+03 
2.206000e-01 2.006639e+03 
2.217500e-01 1.992408e+03 
2.229500e-01 1.977751e+03 
2.241400e-01 1.963146e+03 
2.253500e-01 1.948484e+03 
2.264900e-01 1.934847e+03 
2.277100e-01 1.920248e+03 
2.289900e-01 1.904926e+03 
2.301500e-01 1.891223e+03 
2.313600e-01 1.877106e+03 
2.325600e-01 1.862872e+03 
2.337700e-01 1.848703e+03 
2.350000e-01 1.834486e+03 
2.362000e-01 1.820617e+03 
2.374100e-01 1.806603e+03 
2.386500e-01 1.792426e+03 
2.399100e-01 1.778208e+03 
2.410400e-01 1.765367e+03 
2.422500e-01 1.751752e+03 
2.435000e-01 1.737865e+03 
2.447300e-01 1.724348e+03 
2.458700e-01 1.711866e+03 
2.470600e-01 1.698991e+03 
2.483300e-01 1.685422e+03 
2.495600e-01 1.672453e+03 
2.507600e-01 1.659965e+03 
2.519600e-01 1.647626e+03 
2.532200e-01 1.634829e+03 
2.543700e-01 1.623397e+03 
2.555500e-01 1.611873e+03 
2.568000e-01 1.599812e+03 
2.580100e-01 1.588275e+03 
2.592400e-01 1.576887e+03 
2.604100e-01 1.566266e+03 
2.616100e-01 1.555496e+03 
2.628400e-01 1.544584e+03 
2.640600e-01 1.534122e+03 
2.652200e-01 1.524379e+03 
2.664300e-01 1.514328e+03 
2.676500e-01 1.504308e+03 
2.688400e-01 1.494844e+03 
2.700700e-01 1.485296e+03 
2.712400e-01 1.476313e+03 
2.724800e-01 1.466896e+03 
2.736700e-01 1.458091e+03 
2.748800e-01 1.449371e+03 
2.761000e-01 1.440673e+03 
2.773200e-01 1.432070e+03 
2.785400e-01 1.423626e+03 
2.797000e-01 1.415818e+03 
2.808900e-01 1.407891e+03 
2.821400e-01 1.399652e+03 
2.833900e-01 1.391508e+03 
2.845500e-01 1.384155e+03 
2.857800e-01 1.376438e+03 
2.870300e-01 1.368678e+03 
2.882100e-01 1.361429e+03 
2.893900e-01 1.354312e+03 
2.906300e-01 1.346941e+03 
2.918900e-01 1.339529e+03 
2.930500e-01 1.332775e+03 
2.942500e-01 1.325866e+03 
2.954200e-01 1.319226e+03 
2.966500e-01 1.312315e+03 
2.978900e-01 1.305419e+03 
2.990400e-01 1.299086e+03 
3.002700e-01 1.292393e+03 
3.015100e-01 1.285721e+03 
3.026800e-01 1.279487e+03 
3.038500e-01 1.273312e+03 
3.050300e-01 1.267142e+03 
3.062600e-01 1.260782e+03 
3.075000e-01 1.254432e+03 
3.087000e-01 1.248347e+03 
3.099100e-01 1.242270e+03 
3.111200e-01 1.236252e+03 
3.123100e-01 1.230393e+03 
3.135300e-01 1.224443e+03 
3.147300e-01 1.218645e+03 
3.159900e-01 1.212615e+03 
3.171800e-01 1.206974e+03 
3.183700e-01 1.201385e+03 
3.196300e-01 1.195523e+03 
3.208400e-01 1.189946e+03 
3.220300e-01 1.184511e+03 
3.232000e-01 1.179217e+03 
3.244300e-01 1.173701e+03 
3.256700e-01 1.168193e+03 
3.269200e-01 1.162692e+03 
3.280800e-01 1.157632e+03 
3.292500e-01 1.152579e+03 
3.304800e-01 1.147317e+03 
3.317100e-01 1.142101e+03 
3.328900e-01 1.137143e+03 
3.340700e-01 1.132227e+03 
3.353600e-01 1.126906e+03 
3.365300e-01 1.122124e+03 
3.377100e-01 1.117343e+03 
3.389200e-01 1.112483e+03 
3.401600e-01 1.107546e+03 
3.413700e-01 1.102779e+03 
3.425300e-01 1.098253e+03 
3.437700e-01 1.093457e+03 
3.449800e-01 1.088818e+03 
3.461800e-01 1.084256e+03 
3.473600e-01 1.079811e+03 
3.485800e-01 1.075265e+03 
3.498100e-01 1.070720e+03 
3.510200e-01 1.066288e+03 
3.522000e-01 1.062001e+03 
3.533900e-01 1.057714e+03 
3.546400e-01 1.053260e+03 
3.558400e-01 1.049021e+03 
3.570600e-01 1.044747e+03 
3.582700e-01 1.040544e+03 
3.595000e-01 1.036306e+03 
3.607100e-01 1.032180e+03 
3.618900e-01 1.028195e+03 
3.631200e-01 1.024074e+03 
3.643200e-01 1.020087e+03 
3.655500e-01 1.016033e+03 
3.667300e-01 1.012176e+03 
3.679500e-01 1.008233e+03 
3.691900e-01 1.004259e+03 
3.703600e-01 1.000539e+03 
3.715700e-01 9.967217e+02 
3.727700e-01 9.929661e+02 
3.739900e-01 9.891846e+02 
3.752000e-01 9.854753e+02 
3.763900e-01 9.818559e+02 
3.775800e-01 9.782645e+02 
3.788200e-01 9.745516e+02 
3.800300e-01 9.709572e+02 
3.812100e-01 9.674828e+02 
3.824200e-01 9.639501e+02 
3.836100e-01 9.605024e+02 
3.848600e-01 9.569091e+02 
3.860400e-01 9.535432e+02 
3.872400e-01 9.501460e+02 
3.884600e-01 9.467274e+02 
3.896500e-01 9.434215e+02 
3.908700e-01 9.400578e+02 
3.920600e-01 9.368016e+02 
3.933100e-01 9.334073e+02 
3.945300e-01 9.301199e+02 
3.957200e-01 9.269431e+02 
3.969300e-01 9.237385e+02 
3.981700e-01 9.204793e+02 
3.993500e-01 9.174009e+02 
4.094840e-01 8.918191e+02 
4.272360e-01 8.506567e+02 
4.454600e-01 8.123524e+02 
4.630560e-01 7.785973e+02 
4.804610e-01 7.479238e+02 
4.980690e-01 7.192918e+02 
5.159230e-01 6.924826e+02 
5.317440e-01 6.704060e+02 
5.489640e-01 6.480293e+02 
5.671990e-01 6.260778e+02 
5.838690e-01 6.074200e+02 
6.018840e-01 5.886346e+02 
6.202330e-01 5.708391e+02 
6.379250e-01 5.548558e+02 
6.545410e-01 5.408095e+02 
6.714560e-01 5.273264e+02 
6.892080e-01 5.140574e+02 
7.066010e-01 5.017787e+02 
7.240540e-01 4.901472e+02 
7.420450e-01 4.787838e+02 
7.593780e-01 4.683838e+02 
7.764720e-01 4.586014e+02 
7.942840e-01 4.488777e+02 
8.116170e-01 4.397978e+02 
8.288310e-01 4.311378e+02 
8.462240e-01 4.227136e+02 
8.631980e-01 4.147722e+02 
8.810700e-01 4.067058e+02 
8.989410e-01 3.989120e+02 
9.166330e-01 3.914355e+02 
9.345640e-01 3.840866e+02 
9.515980e-01 3.772915e+02 
9.688720e-01 3.705827e+02 
9.865640e-01 3.638757e+02 
1.031870e+00 3.475158e+02 
1.063490e+00 3.366535e+02 
1.097920e+00 3.253596e+02 
1.134370e+00 3.139099e+02 
1.167730e+00 3.038802e+02 
1.203830e+00 2.934471e+02 
1.240470e+00 2.833416e+02 
1.275790e+00 2.739592e+02 
1.309140e+00 2.655030e+02 
1.342970e+00 2.571890e+02 
1.378420e+00 2.488623e+02 
1.413200e+00 2.410010e+02 
1.448110e+00 2.334092e+02 
1.484090e+00 2.259171e+02 
1.518820e+00 2.189600e+02 
1.552880e+00 2.123954e+02 
1.588630e+00 2.057729e+02 
1.623230e+00 1.996193e+02 
1.657720e+00 1.937194e+02 
1.692450e+00 1.880220e+02 
1.726400e+00 1.826297e+02 
1.762200e+00 1.771549e+02 
1.797880e+00 1.719273e+02 
1.833270e+00 1.669267e+02 
1.869070e+00 1.620648e+02 
1.903200e+00 1.576074e+02 
1.937740e+00 1.532575e+02 
1.973190e+00 1.489475e+02 
2.007440e+00 1.449416e+02 
2.042160e+00 1.410308e+02 
2.077900e+00 1.371376e+02 
2.112390e+00 1.335279e+02 
2.146220e+00 1.300915e+02 
2.181600e+00 1.266295e+02 
2.216930e+00 1.232975e+02 
2.250760e+00 1.202103e+02 
2.286500e+00 1.170580e+02 
2.321770e+00 1.140611e+02 
2.355950e+00 1.112595e+02 
2.391280e+00 1.084486e+02 
2.426240e+00 1.057620e+02 
2.460670e+00 1.032042e+02 
2.495640e+00 1.006911e+02 
2.531080e+00 9.822601e+01 
2.566220e+00 9.585957e+01 
2.600830e+00 9.360581e+01 
2.635080e+00 9.144914e+01 
2.670340e+00 8.929185e+01 
2.705970e+00 8.718411e+01 
2.740040e+00 8.523229e+01 
2.774520e+00 8.331184e+01 
2.809730e+00 8.141318e+01 
2.844390e+00 7.960287e+01 
2.879960e+00 7.780075e+01 
2.914860e+00 7.608471e+01 
2.949410e+00 7.443685e+01 
2.984440e+00 7.281539e+01 
3.019760e+00 7.122988e+01 
3.054730e+00 6.970722e+01 
3.089030e+00 6.825369e+01 
3.124060e+00 6.681258e+01 
3.159560e+00 6.539478e+01 
3.194710e+00 6.402981e+01 
3.229010e+00 6.273561e+01 
3.263320e+00 6.147906e+01 
3.297930e+00 6.024600e+01 
3.332830e+00 5.903516e+01 
3.368040e+00 5.784776e+01 
3.403300e+00 5.669185e+01 
3.438450e+00 5.557146e+01 
3.473060e+00 5.449826e+01 
3.508440e+00 5.343173e+01 
3.543110e+00 5.241438e+01 
3.577470e+00 5.143124e+01 
3.613040e+00 5.044042e+01 
3.648120e+00 4.948949e+01 
3.682910e+00 4.857103e+01 
3.718050e+00 4.766756e+01 
3.753320e+00 4.678432e+01 
3.787980e+00 4.593875e+01 
3.822290e+00 4.512319e+01 
3.857020e+00 4.431912e+01 
3.891920e+00 4.353052e+01 
3.926650e+00 4.276415e+01 
3.961970e+00 4.200446e+01 
3.997360e+00 4.126366e+01 
4.031670e+00 4.056264e+01 
4.066330e+00 3.987159e+01 
4.101420e+00 3.918837e+01 
4.136200e+00 3.852885e+01 
4.170810e+00 3.788756e+01 
4.206250e+00 3.724644e+01 
4.241580e+00 3.662208e+01 
4.276300e+00 3.602355e+01 
4.310970e+00 3.543982e+01 
4.346120e+00 3.486179e+01 
4.380600e+00 3.430835e+01 
4.414730e+00 3.377232e+01 
4.450350e+00 3.322658e+01 
4.485320e+00 3.270244e+01 
4.519810e+00 3.219760e+01 
4.555430e+00 3.168781e+01 
4.590870e+00 3.119202e+01 
4.625480e+00 3.071918e+01 
4.659910e+00 3.025844e+01 
4.695230e+00 2.979688e+01 
4.729960e+00 2.935254e+01 
4.764450e+00 2.892077e+01 
4.799530e+00 2.849147e+01 
4.834910e+00 2.806722e+01 
4.869700e+00 2.765980e+01 
4.904370e+00 2.726197e+01 
4.939450e+00 2.686780e+01 
4.973940e+00 2.648900e+01 
5.008430e+00 2.611742e+01 
5.043810e+00 2.574453e+01 
5.078840e+00 2.538296e+01 
5.113500e+00 2.503197e+01 
5.148890e+00 2.468189e+01 
5.184210e+00 2.433917e+01 
5.219060e+00 2.400770e+01 
5.253660e+00 2.368573e+01 
5.288570e+00 2.336679e+01 
5.323420e+00 2.305488e+01 
5.358440e+00 2.274789e+01 
5.393590e+00 2.244531e+01 
5.428310e+00 2.215274e+01 
5.462800e+00 2.186772e+01 
5.497640e+00 2.158484e+01 
5.532670e+00 2.130639e+01 
5.567280e+00 2.103636e+01 
5.602000e+00 2.077013e+01 
5.637270e+00 2.050538e+01 
5.672410e+00 2.024639e+01 
5.707020e+00 1.999563e+01 
5.742040e+00 1.974720e+01 
5.777430e+00 1.950060e+01 
5.812210e+00 1.926231e+01 
5.846820e+00 1.902992e+01 
5.881610e+00 1.880036e+01 
5.916510e+00 1.857384e+01 
5.951600e+00 1.835061e+01 
5.986560e+00 1.813219e+01 
6.021830e+00 1.791539e+01 
6.056490e+00 1.770633e+01 
6.091160e+00 1.750099e+01 
6.125830e+00 1.729887e+01 
6.161090e+00 1.709685e+01 
6.195760e+00 1.690196e+01 
6.230420e+00 1.671013e+01 
6.265690e+00 1.651798e+01 
6.300950e+00 1.632981e+01 
6.335620e+00 1.614762e+01 
6.370880e+00 1.596515e+01 
6.405550e+00 1.578902e+01 
6.440220e+00 1.561575e+01 
6.475480e+00 1.544218e+01 
6.510150e+00 1.527429e+01 
6.544810e+00 1.510945e+01 
6.580080e+00 1.494418e+01 
6.614750e+00 1.478411e+01 
6.649410e+00 1.462709e+01 
6.684080e+00 1.447242e+01 
6.719340e+00 1.431738e+01 
6.754010e+00 1.416731e+01 
6.788680e+00 1.401979e+01 
6.823940e+00 1.387189e+01 
6.859800e+00 1.372364e+01 
6.894470e+00 1.358281e+01 
6.929140e+00 1.344410e+01 
6.963800e+00 1.330735e+01 
6.999070e+00 1.317016e+01 
7.033730e+00 1.303772e+01 
7.068400e+00 1.290705e+01 
7.103660e+00 1.277596e+01 
7.138330e+00 1.264901e+01 
7.173600e+00 1.252200e+01 
7.208260e+00 1.239887e+01 
7.243530e+00 1.227524e+01 
7.277600e+00 1.215768e+01 
7.312860e+00 1.203786e+01 
7.348120e+00 1.191964e+01 
7.382790e+00 1.180492e+01 
7.417460e+00 1.169197e+01 
7.452720e+00 1.157875e+01 
7.487390e+00 1.146886e+01 
7.522650e+00 1.135855e+01 
7.557320e+00 1.125176e+01 
7.591990e+00 1.114643e+01 
7.627250e+00 1.104068e+01 
7.662510e+00 1.093627e+01 
7.697180e+00 1.083521e+01 
7.731850e+00 1.073553e+01 
7.766510e+00 1.063710e+01 
7.801180e+00 1.053987e+01 
7.836440e+00 1.044245e+01 
7.871110e+00 1.034798e+01 
7.906380e+00 1.025307e+01 
7.941040e+00 1.016094e+01 
7.976310e+00 1.006844e+01 
8.011570e+00 9.977252e+00 
8.046240e+00 9.888672e+00 
8.080900e+00 9.801175e+00 
8.115570e+00 9.714764e+00 
8.150830e+00 9.628192e+00 
8.185500e+00 9.544081e+00 
8.220770e+00 9.459530e+00 
8.255430e+00 9.377423e+00 
8.290100e+00 9.296464e+00 
8.324770e+00 9.216470e+00 
8.359430e+00 9.137425e+00 
8.394700e+00 9.057924e+00 
8.429960e+00 8.979507e+00 
8.464630e+00 8.903427e+00 
8.499890e+00 8.826940e+00 
8.534560e+00 8.752594e+00 
8.569200e+00 8.679153e+00 
