# Parameters:
# omega_b = 0.022571, omega_m = 0.152244, n_s = 0.916142, h = 60.905512, w = -1.000000, sigma_8 = 0.737795
# z = 0.900000
#
# k[1/Mpc] # P(k):
8.694000e-04 5.645558e+03 
2.077466e-03 1.165982e+04 
3.285532e-03 1.628194e+04 
4.493598e-03 1.982807e+04 
5.701664e-03 2.247726e+04 
6.909730e-03 2.437737e+04 
8.117797e-03 2.569051e+04 
9.325863e-03 2.650088e+04 
1.053393e-02 2.689318e+04 
1.174199e-02 2.694616e+04 
1.295006e-02 2.670817e+04 
1.415813e-02 2.624401e+04 
1.536619e-02 2.560946e+04 
1.657426e-02 2.484574e+04 
1.778233e-02 2.400665e+04 
1.899039e-02 2.315547e+04 
2.019846e-02 2.227796e+04 
2.140652e-02 2.137476e+04 
2.261459e-02 2.046905e+04 
2.382266e-02 1.958777e+04 
2.503072e-02 1.874636e+04 
2.623879e-02 1.795103e+04 
2.744685e-02 1.720336e+04 
2.865492e-02 1.650896e+04 
2.986299e-02 1.586780e+04 
3.100100e-02 1.531179e+04 
3.220400e-02 1.477318e+04 
3.288100e-02 1.449196e+04 
3.424300e-02 1.397082e+04 
3.555100e-02 1.352034e+04 
3.686000e-02 1.311438e+04 
3.795000e-02 1.280554e+04 
3.929100e-02 1.245894e+04 
4.039800e-02 1.219472e+04 
4.164000e-02 1.191666e+04 
4.294400e-02 1.164007e+04 
4.415000e-02 1.139477e+04 
4.542900e-02 1.113836e+04 
4.660900e-02 1.090542e+04 
4.782300e-02 1.066021e+04 
4.892900e-02 1.043546e+04 
5.031200e-02 1.014823e+04 
5.155900e-02 9.881294e+03 
5.238100e-02 9.702041e+03 
5.378200e-02 9.391652e+03 
5.513400e-02 9.085716e+03 
5.627600e-02 8.824264e+03 
5.735300e-02 8.577493e+03 
5.870100e-02 8.270479e+03 
5.988700e-02 8.005074e+03 
6.113500e-02 7.732134e+03 
6.225900e-02 7.493479e+03 
6.340100e-02 7.259885e+03 
6.480200e-02 6.987321e+03 
6.601100e-02 6.765761e+03 
6.725500e-02 6.552105e+03 
6.829100e-02 6.386587e+03 
6.958600e-02 6.193724e+03 
7.071100e-02 6.040024e+03 
7.192300e-02 5.887771e+03 
7.307400e-02 5.755373e+03 
7.412300e-02 5.644322e+03 
7.550400e-02 5.511972e+03 
7.663100e-02 5.413074e+03 
7.791200e-02 5.311555e+03 
7.912700e-02 5.223661e+03 
8.027600e-02 5.146068e+03 
8.138400e-02 5.075167e+03 
8.272200e-02 4.993548e+03 
8.406100e-02 4.914702e+03 
8.534100e-02 4.840201e+03 
8.653800e-02 4.769851e+03 
8.759800e-02 4.706983e+03 
8.900300e-02 4.621947e+03 
9.009000e-02 4.554008e+03 
9.113300e-02 4.486388e+03 
9.239600e-02 4.403174e+03 
9.358000e-02 4.322910e+03 
9.496100e-02 4.226006e+03 
9.608400e-02 4.146427e+03 
9.727500e-02 4.061990e+03 
9.852600e-02 3.971077e+03 
9.973800e-02 3.884204e+03 
1.009000e-01 3.802160e+03 
1.020900e-01 3.718751e+03 
1.034000e-01 3.629610e+03 
1.046000e-01 3.550350e+03 
1.057200e-01 3.479111e+03 
1.069100e-01 3.406014e+03 
1.082500e-01 3.327821e+03 
1.093900e-01 3.264768e+03 
1.105400e-01 3.203746e+03 
1.116900e-01 3.146979e+03 
1.129600e-01 3.087010e+03 
1.142000e-01 3.032832e+03 
1.153300e-01 2.986019e+03 
1.166400e-01 2.935142e+03 
1.177800e-01 2.893901e+03 
1.190000e-01 2.851730e+03 
1.201200e-01 2.815844e+03 
1.213400e-01 2.778019e+03 
1.227100e-01 2.738638e+03 
1.238900e-01 2.705810e+03 
1.250700e-01 2.674427e+03 
1.263200e-01 2.641981e+03 
1.275500e-01 2.610850e+03 
1.287500e-01 2.580886e+03 
1.299900e-01 2.550169e+03 
1.311300e-01 2.521923e+03 
1.323500e-01 2.491400e+03 
1.335900e-01 2.460173e+03 
1.347100e-01 2.431381e+03 
1.359800e-01 2.398580e+03 
1.372100e-01 2.365806e+03 
1.384300e-01 2.333332e+03 
1.395700e-01 2.301993e+03 
1.407700e-01 2.269520e+03 
1.420300e-01 2.234281e+03 
1.432800e-01 2.200119e+03 
1.444500e-01 2.167546e+03 
1.456300e-01 2.135396e+03 
1.468900e-01 2.101596e+03 
1.480500e-01 2.071087e+03 
1.491700e-01 2.042417e+03 
1.503800e-01 2.012320e+03 
1.516400e-01 1.981864e+03 
1.528200e-01 1.954855e+03 
1.540200e-01 1.927944e+03 
1.551900e-01 1.903400e+03 
1.564300e-01 1.878188e+03 
1.576600e-01 1.854346e+03 
1.588700e-01 1.832149e+03 
1.600900e-01 1.810259e+03 
1.612700e-01 1.790651e+03 
1.625400e-01 1.769943e+03 
1.637600e-01 1.750899e+03 
1.649500e-01 1.732935e+03 
1.662200e-01 1.714156e+03 
1.674000e-01 1.697248e+03 
1.685000e-01 1.681750e+03 
1.697500e-01 1.664346e+03 
1.710300e-01 1.646754e+03 
1.722200e-01 1.630690e+03 
1.734400e-01 1.613990e+03 
1.746400e-01 1.597825e+03 
1.758700e-01 1.581333e+03 
1.770900e-01 1.564836e+03 
1.782700e-01 1.549149e+03 
1.794600e-01 1.533236e+03 
1.807000e-01 1.516697e+03 
1.819100e-01 1.500832e+03 
1.830100e-01 1.486282e+03 
1.842200e-01 1.470471e+03 
1.855000e-01 1.454020e+03 
1.867000e-01 1.438618e+03 
1.879200e-01 1.423217e+03 
1.890900e-01 1.408680e+03 
1.902800e-01 1.394104e+03 
1.915200e-01 1.379161e+03 
1.926900e-01 1.365319e+03 
1.939000e-01 1.351330e+03 
1.951700e-01 1.336887e+03 
1.963100e-01 1.324181e+03 
1.975100e-01 1.311159e+03 
1.987800e-01 1.297595e+03 
2.000100e-01 1.284748e+03 
2.012500e-01 1.272184e+03 
2.023400e-01 1.261300e+03 
2.036100e-01 1.248855e+03 
2.048900e-01 1.236700e+03 
2.060400e-01 1.225941e+03 
2.072200e-01 1.215072e+03 
2.084200e-01 1.204351e+03 
2.096900e-01 1.193172e+03 
2.109200e-01 1.182506e+03 
2.121100e-01 1.172425e+03 
2.132700e-01 1.162739e+03 
2.145200e-01 1.152448e+03 
2.157200e-01 1.142741e+03 
2.168800e-01 1.133499e+03 
2.180700e-01 1.124146e+03 
2.193400e-01 1.114295e+03 
2.206000e-01 1.104645e+03 
2.217500e-01 1.095958e+03 
2.229500e-01 1.087012e+03 
2.241400e-01 1.078210e+03 
2.253500e-01 1.069379e+03 
2.264900e-01 1.061167e+03 
2.277100e-01 1.052458e+03 
2.289900e-01 1.043409e+03 
2.301500e-01 1.035317e+03 
2.313600e-01 1.026985e+03 
2.325600e-01 1.018765e+03 
2.337700e-01 1.010583e+03 
2.350000e-01 1.002376e+03 
2.362000e-01 9.944522e+02 
2.374100e-01 9.865419e+02 
2.386500e-01 9.785404e+02 
2.399100e-01 9.705165e+02 
2.410400e-01 9.633920e+02 
2.422500e-01 9.558536e+02 
2.435000e-01 9.481653e+02 
2.447300e-01 9.406992e+02 
2.458700e-01 9.338735e+02 
2.470600e-01 9.268332e+02 
2.483300e-01 9.194134e+02 
2.495600e-01 9.123298e+02 
2.507600e-01 9.055195e+02 
2.519600e-01 8.987909e+02 
2.532200e-01 8.918124e+02 
2.543700e-01 8.855488e+02 
2.555500e-01 8.792158e+02 
2.568000e-01 8.725870e+02 
2.580100e-01 8.662472e+02 
2.592400e-01 8.599178e+02 
2.604100e-01 8.539839e+02 
2.616100e-01 8.479670e+02 
2.628400e-01 8.418713e+02 
2.640600e-01 8.359320e+02 
2.652200e-01 8.303628e+02 
2.664300e-01 8.246183e+02 
2.676500e-01 8.188923e+02 
2.688400e-01 8.133984e+02 
2.700700e-01 8.078014e+02 
2.712400e-01 8.025364e+02 
2.724800e-01 7.970181e+02 
2.736700e-01 7.917971e+02 
2.748800e-01 7.865627e+02 
2.761000e-01 7.813430e+02 
2.773200e-01 7.761807e+02 
2.785400e-01 7.710822e+02 
2.797000e-01 7.663009e+02 
2.808900e-01 7.614472e+02 
2.821400e-01 7.564038e+02 
2.833900e-01 7.514163e+02 
2.845500e-01 7.468443e+02 
2.857800e-01 7.420471e+02 
2.870300e-01 7.372243e+02 
2.882100e-01 7.327195e+02 
2.893900e-01 7.282643e+02 
2.906300e-01 7.236331e+02 
2.918900e-01 7.189776e+02 
2.930500e-01 7.147356e+02 
2.942500e-01 7.103907e+02 
2.954200e-01 7.061949e+02 
2.966500e-01 7.018284e+02 
2.978900e-01 6.974719e+02 
2.990400e-01 6.934720e+02 
3.002700e-01 6.892340e+02 
3.015100e-01 6.850042e+02 
3.026800e-01 6.810528e+02 
3.038500e-01 6.771394e+02 
3.050300e-01 6.732304e+02 
3.062600e-01 6.691930e+02 
3.075000e-01 6.651635e+02 
3.087000e-01 6.613025e+02 
3.099100e-01 6.574470e+02 
3.111200e-01 6.536297e+02 
3.123100e-01 6.499128e+02 
3.135300e-01 6.461388e+02 
3.147300e-01 6.424622e+02 
3.159900e-01 6.386393e+02 
3.171800e-01 6.350653e+02 
3.183700e-01 6.315259e+02 
3.196300e-01 6.278142e+02 
3.208400e-01 6.242839e+02 
3.220300e-01 6.208443e+02 
3.232000e-01 6.174985e+02 
3.244300e-01 6.140156e+02 
3.256700e-01 6.105376e+02 
3.269200e-01 6.070648e+02 
3.280800e-01 6.038716e+02 
3.292500e-01 6.006874e+02 
3.304800e-01 5.973728e+02 
3.317100e-01 5.940888e+02 
3.328900e-01 5.909667e+02 
3.340700e-01 5.878721e+02 
3.353600e-01 5.845307e+02 
3.365300e-01 5.815317e+02 
3.377100e-01 5.785333e+02 
3.389200e-01 5.754857e+02 
3.401600e-01 5.723905e+02 
3.413700e-01 5.694085e+02 
3.425300e-01 5.665820e+02 
3.437700e-01 5.635869e+02 
3.449800e-01 5.606901e+02 
3.461800e-01 5.578421e+02 
3.473600e-01 5.550709e+02 
3.485800e-01 5.522437e+02 
3.498100e-01 5.494181e+02 
3.510200e-01 5.466624e+02 
3.522000e-01 5.439977e+02 
3.533900e-01 5.413329e+02 
3.546400e-01 5.385763e+02 
3.558400e-01 5.359537e+02 
3.570600e-01 5.333097e+02 
3.582700e-01 5.307095e+02 
3.595000e-01 5.280886e+02 
3.607100e-01 5.255425e+02 
3.618900e-01 5.230881e+02 
3.631200e-01 5.205508e+02 
3.643200e-01 5.180958e+02 
3.655500e-01 5.156001e+02 
3.667300e-01 5.132254e+02 
3.679500e-01 5.108097e+02 
3.691900e-01 5.083746e+02 
3.703600e-01 5.060954e+02 
3.715700e-01 5.037570e+02 
3.727700e-01 5.014565e+02 
3.739900e-01 4.991434e+02 
3.752000e-01 4.968805e+02 
3.763900e-01 4.946724e+02 
3.775800e-01 4.924816e+02 
3.788200e-01 4.902168e+02 
3.800300e-01 4.880244e+02 
3.812100e-01 4.859111e+02 
3.824200e-01 4.837663e+02 
3.836100e-01 4.816733e+02 
3.848600e-01 4.794919e+02 
3.860400e-01 4.774487e+02 
3.872400e-01 4.753867e+02 
3.884600e-01 4.733176e+02 
3.896500e-01 4.713191e+02 
3.908700e-01 4.692858e+02 
3.920600e-01 4.673175e+02 
3.933100e-01 4.652658e+02 
3.945300e-01 4.632788e+02 
3.957200e-01 4.613658e+02 
3.969300e-01 4.594381e+02 
3.981700e-01 4.574777e+02 
3.993500e-01 4.556260e+02 
4.094840e-01 4.402824e+02 
4.272360e-01 4.157743e+02 
4.454600e-01 3.931634e+02 
4.630560e-01 3.734007e+02 
4.804610e-01 3.555647e+02 
4.980690e-01 3.390277e+02 
5.159230e-01 3.236314e+02 
5.317440e-01 3.110219e+02 
5.489640e-01 2.983074e+02 
5.671990e-01 2.858947e+02 
5.838690e-01 2.753932e+02 
6.018840e-01 2.648806e+02 
6.202330e-01 2.549916e+02 
6.379250e-01 2.461392e+02 
6.545410e-01 2.384205e+02 
6.714560e-01 2.310615e+02 
6.892080e-01 2.238531e+02 
7.066010e-01 2.172519e+02 
7.240540e-01 2.110325e+02 
7.420450e-01 2.050252e+02 
7.593780e-01 1.995777e+02 
7.764720e-01 1.944985e+02 
7.942840e-01 1.894948e+02 
8.116170e-01 1.848839e+02 
8.288310e-01 1.805351e+02 
8.462240e-01 1.763487e+02 
8.631980e-01 1.724501e+02 
8.810700e-01 1.685290e+02 
8.989410e-01 1.647831e+02 
9.166330e-01 1.612301e+02 
9.345640e-01 1.577771e+02 
9.515980e-01 1.546230e+02 
9.688720e-01 1.515419e+02 
9.865640e-01 1.484984e+02 
1.031870e+00 1.411847e+02 
1.063490e+00 1.364338e+02 
1.097920e+00 1.315695e+02 
1.134370e+00 1.267119e+02 
1.167730e+00 1.225196e+02 
1.203830e+00 1.182137e+02 
1.240470e+00 1.140871e+02 
1.275790e+00 1.103010e+02 
1.309140e+00 1.069087e+02 
1.342970e+00 1.036070e+02 
1.378420e+00 1.003186e+02 
1.413200e+00 9.723351e+01 
1.448110e+00 9.426952e+01 
1.484090e+00 9.135786e+01 
1.518820e+00 8.866312e+01 
1.552880e+00 8.612879e+01 
1.588630e+00 8.357636e+01 
1.623230e+00 8.121228e+01 
1.657720e+00 7.894862e+01 
1.692450e+00 7.676402e+01 
1.726400e+00 7.470076e+01 
1.762200e+00 7.260903e+01 
1.797880e+00 7.060889e+01 
1.833270e+00 6.869806e+01 
1.869070e+00 6.684114e+01 
1.903200e+00 6.513567e+01 
1.937740e+00 6.347101e+01 
1.973190e+00 6.182271e+01 
2.007440e+00 6.028793e+01 
2.042160e+00 5.878751e+01 
2.077900e+00 5.729345e+01 
2.112390e+00 5.590524e+01 
2.146220e+00 5.458341e+01 
2.181600e+00 5.324935e+01 
2.216930e+00 5.196295e+01 
2.250760e+00 5.076967e+01 
2.286500e+00 4.954963e+01 
2.321770e+00 4.838760e+01 
2.355950e+00 4.729874e+01 
2.391280e+00 4.620498e+01 
2.426240e+00 4.515667e+01 
2.460670e+00 4.415666e+01 
2.495640e+00 4.317291e+01 
2.531080e+00 4.220649e+01 
2.566220e+00 4.127596e+01 
2.600830e+00 4.038766e+01 
2.635080e+00 3.953589e+01 
2.670340e+00 3.868128e+01 
2.705970e+00 3.784490e+01 
2.740040e+00 3.706930e+01 
2.774520e+00 3.630532e+01 
2.809730e+00 3.554721e+01 
2.844390e+00 3.482254e+01 
2.879960e+00 3.409928e+01 
2.914860e+00 3.340938e+01 
2.949410e+00 3.274564e+01 
2.984440e+00 3.209011e+01 
3.019760e+00 3.144830e+01 
3.054730e+00 3.083110e+01 
3.089030e+00 3.023923e+01 
3.124060e+00 2.965171e+01 
3.159560e+00 2.907291e+01 
3.194710e+00 2.851366e+01 
3.229010e+00 2.798236e+01 
3.263320e+00 2.746450e+01 
3.297930e+00 2.695575e+01 
3.332830e+00 2.645546e+01 
3.368040e+00 2.596345e+01 
3.403300e+00 2.548336e+01 
3.438450e+00 2.501637e+01 
3.473060e+00 2.456838e+01 
3.508440e+00 2.412201e+01 
3.543110e+00 2.369566e+01 
3.577470e+00 2.328204e+01 
3.613040e+00 2.286468e+01 
3.648120e+00 2.246329e+01 
3.682910e+00 2.207487e+01 
3.718050e+00 2.169169e+01 
3.753320e+00 2.131633e+01 
3.787980e+00 2.095604e+01 
3.822290e+00 2.060787e+01 
3.857020e+00 2.026372e+01 
3.891920e+00 1.992558e+01 
3.926650e+00 1.959607e+01 
3.961970e+00 1.926893e+01 
3.997360e+00 1.894903e+01 
4.031670e+00 1.864595e+01 
4.066330e+00 1.834626e+01 
4.101420e+00 1.804977e+01 
4.136200e+00 1.776260e+01 
4.170810e+00 1.748322e+01 
4.206250e+00 1.720313e+01 
4.241580e+00 1.693010e+01 
4.276300e+00 1.666761e+01 
4.310970e+00 1.641114e+01 
4.346120e+00 1.615678e+01 
4.380600e+00 1.591266e+01 
4.414730e+00 1.567608e+01 
4.450350e+00 1.543432e+01 
4.485320e+00 1.520203e+01 
4.519810e+00 1.497770e+01 
4.555430e+00 1.475085e+01 
4.590870e+00 1.452993e+01 
4.625480e+00 1.431872e+01 
4.659910e+00 1.411282e+01 
4.695230e+00 1.390594e+01 
4.729960e+00 1.370662e+01 
4.764450e+00 1.351264e+01 
4.799530e+00 1.331932e+01 
4.834910e+00 1.312821e+01 
4.869700e+00 1.294417e+01 
4.904370e+00 1.276434e+01 
4.939450e+00 1.258595e+01 
4.973940e+00 1.241409e+01 
5.008430e+00 1.224546e+01 
5.043810e+00 1.207588e+01 
5.078840e+00 1.191122e+01 
5.113500e+00 1.175134e+01 
5.148890e+00 1.159141e+01 
5.184210e+00 1.143479e+01 
5.219060e+00 1.128316e+01 
5.253660e+00 1.113555e+01 
5.288570e+00 1.098930e+01 
5.323420e+00 1.084607e+01 
5.358440e+00 1.070488e+01 
5.393590e+00 1.056569e+01 
5.428310e+00 1.043085e+01 
5.462800e+00 1.029934e+01 
5.497640e+00 1.016880e+01 
5.532670e+00 1.004005e+01 
5.567280e+00 9.915091e+00 
5.602000e+00 9.791873e+00 
5.637270e+00 9.669113e+00 
5.672410e+00 9.548955e+00 
5.707020e+00 9.432600e+00 
5.742040e+00 9.317090e+00 
5.777430e+00 9.202370e+00 
5.812210e+00 9.091502e+00 
5.846820e+00 8.983206e+00 
5.881610e+00 8.876175e+00 
5.916510e+00 8.770549e+00 
5.951600e+00 8.666314e+00 
5.986560e+00 8.564252e+00 
6.021830e+00 8.462941e+00 
6.056490e+00 8.365145e+00 
6.091160e+00 8.269006e+00 
6.125830e+00 8.174370e+00 
6.161090e+00 8.079727e+00 
6.195760e+00 7.988324e+00 
6.230420e+00 7.898352e+00 
6.265690e+00 7.808220e+00 
6.300950e+00 7.719821e+00 
6.335620e+00 7.634227e+00 
6.370880e+00 7.548497e+00 
6.405550e+00 7.465681e+00 
6.440220e+00 7.384182e+00 
6.475480e+00 7.302534e+00 
6.510150e+00 7.223530e+00 
6.544810e+00 7.145896e+00 
6.580080e+00 7.068058e+00 
6.614750e+00 6.992664e+00 
6.649410e+00 6.918656e+00 
6.684080e+00 6.845744e+00 
6.719340e+00 6.772659e+00 
6.754010e+00 6.701902e+00 
6.788680e+00 6.632317e+00 
6.823940e+00 6.562553e+00 
6.859800e+00 6.492621e+00 
6.894470e+00 6.426167e+00 
6.929140e+00 6.360707e+00 
6.963800e+00 6.296168e+00 
6.999070e+00 6.231419e+00 
7.033730e+00 6.168888e+00 
7.068400e+00 6.107189e+00 
7.103660e+00 6.045298e+00 
7.138330e+00 5.985357e+00 
7.173600e+00 5.925389e+00 
7.208260e+00 5.867250e+00 
7.243530e+00 5.808881e+00 
7.277600e+00 5.753373e+00 
7.312860e+00 5.696800e+00 
7.348120e+00 5.640981e+00 
7.382790e+00 5.586817e+00 
7.417460e+00 5.533501e+00 
7.452720e+00 5.480059e+00 
7.487390e+00 5.428192e+00 
7.522650e+00 5.376124e+00 
7.557320e+00 5.325740e+00 
7.591990e+00 5.276052e+00 
7.627250e+00 5.226161e+00 
7.662510e+00 5.176909e+00 
7.697180e+00 5.129249e+00 
7.731850e+00 5.082243e+00 
7.766510e+00 5.035833e+00 
7.801180e+00 4.989983e+00 
7.836440e+00 4.944068e+00 
7.871110e+00 4.899565e+00 
7.906380e+00 4.854847e+00 
7.941040e+00 4.811440e+00 
7.976310e+00 4.767885e+00 
8.011570e+00 4.724967e+00 
8.046240e+00 4.683276e+00 
8.080900e+00 4.642095e+00 
8.115570e+00 4.601432e+00 
8.150830e+00 4.560729e+00 
8.185500e+00 4.521181e+00 
8.220770e+00 4.481425e+00 
8.255430e+00 4.442816e+00 
8.290100e+00 4.404794e+00 
8.324770e+00 4.367229e+00 
8.359430e+00 4.330107e+00 
8.394700e+00 4.292770e+00 
8.429960e+00 4.255969e+00 
8.464630e+00 4.220294e+00 
8.499890e+00 4.184425e+00 
8.534560e+00 4.149559e+00 
8.569200e+00 4.115114e+00 
