# Parameters:
# omega_b = 0.022350, omega_m = 0.129370, n_s = 0.868898, h = 65.393701, w = -1.000000, sigma_8 = 0.701575
# z = 0.900000
#
# k[1/Mpc] # P(k):
8.694000e-04 1.024788e+04 
2.077466e-03 1.996594e+04 
3.285532e-03 2.681096e+04 
4.493598e-03 3.160062e+04 
5.701664e-03 3.481017e+04 
6.909730e-03 3.678524e+04 
8.117797e-03 3.784970e+04 
9.325863e-03 3.817121e+04 
1.053393e-02 3.790561e+04 
1.174199e-02 3.718937e+04 
1.295006e-02 3.610684e+04 
1.415813e-02 3.476409e+04 
1.536619e-02 3.324932e+04 
1.657426e-02 3.162835e+04 
1.778233e-02 2.999191e+04 
1.899039e-02 2.843718e+04 
2.019846e-02 2.692081e+04 
2.140652e-02 2.542497e+04 
2.261459e-02 2.398601e+04 
2.382266e-02 2.264021e+04 
2.503072e-02 2.140137e+04 
2.623879e-02 2.027074e+04 
2.744685e-02 1.924719e+04 
2.865492e-02 1.832692e+04 
2.986299e-02 1.750261e+04 
3.100100e-02 1.680922e+04 
3.220400e-02 1.615477e+04 
3.288100e-02 1.582024e+04 
3.424300e-02 1.521021e+04 
3.555100e-02 1.469089e+04 
3.686000e-02 1.422682e+04 
3.795000e-02 1.387406e+04 
3.929100e-02 1.347445e+04 
4.039800e-02 1.316469e+04 
4.164000e-02 1.283251e+04 
4.294400e-02 1.249077e+04 
4.415000e-02 1.218063e+04 
4.542900e-02 1.184663e+04 
4.660900e-02 1.153833e+04 
4.782300e-02 1.120831e+04 
4.892900e-02 1.090471e+04 
5.031200e-02 1.051707e+04 
5.155900e-02 1.015994e+04 
5.238100e-02 9.922788e+03 
5.378200e-02 9.517994e+03 
5.513400e-02 9.128303e+03 
5.627600e-02 8.803232e+03 
5.735300e-02 8.503180e+03 
5.870100e-02 8.139326e+03 
5.988700e-02 7.833001e+03 
6.113500e-02 7.526101e+03 
6.225900e-02 7.264961e+03 
6.340100e-02 7.015806e+03 
6.480200e-02 6.732018e+03 
6.601100e-02 6.508303e+03 
6.725500e-02 6.297942e+03 
6.829100e-02 6.139237e+03 
6.958600e-02 5.957642e+03 
7.071100e-02 5.816102e+03 
7.192300e-02 5.678220e+03 
7.307400e-02 5.559960e+03 
7.412300e-02 5.461642e+03 
7.550400e-02 5.345029e+03 
7.663100e-02 5.257665e+03 
7.791200e-02 5.166622e+03 
7.912700e-02 5.085426e+03 
8.027600e-02 5.011310e+03 
8.138400e-02 4.941168e+03 
8.272200e-02 4.856741e+03 
8.406100e-02 4.771163e+03 
8.534100e-02 4.685932e+03 
8.653800e-02 4.602450e+03 
8.759800e-02 4.526416e+03 
8.900300e-02 4.421884e+03 
9.009000e-02 4.337634e+03 
9.113300e-02 4.253903e+03 
9.239600e-02 4.151390e+03 
9.358000e-02 4.053570e+03 
9.496100e-02 3.937874e+03 
9.608400e-02 3.844658e+03 
9.727500e-02 3.747276e+03 
9.852600e-02 3.646377e+03 
9.973800e-02 3.552029e+03 
1.009000e-01 3.464617e+03 
1.020900e-01 3.379844e+03 
1.034000e-01 3.291209e+03 
1.046000e-01 3.214397e+03 
1.057200e-01 3.148503e+03 
1.069100e-01 3.081974e+03 
1.082500e-01 3.013767e+03 
1.093900e-01 2.960342e+03 
1.105400e-01 2.909552e+03 
1.116900e-01 2.863981e+03 
1.129600e-01 2.816260e+03 
1.142000e-01 2.773973e+03 
1.153300e-01 2.737372e+03 
1.166400e-01 2.697516e+03 
1.177800e-01 2.664413e+03 
1.190000e-01 2.630173e+03 
1.201200e-01 2.599214e+03 
1.213400e-01 2.566236e+03 
1.227100e-01 2.528546e+03 
1.238900e-01 2.496392e+03 
1.250700e-01 2.463265e+03 
1.263200e-01 2.428197e+03 
1.275500e-01 2.392725e+03 
1.287500e-01 2.357974e+03 
1.299900e-01 2.321397e+03 
1.311300e-01 2.287712e+03 
1.323500e-01 2.251235e+03 
1.335900e-01 2.214407e+03 
1.347100e-01 2.181062e+03 
1.359800e-01 2.143782e+03 
1.372100e-01 2.107857e+03 
1.384300e-01 2.072958e+03 
1.395700e-01 2.040827e+03 
1.407700e-01 2.007772e+03 
1.420300e-01 1.974000e+03 
1.432800e-01 1.941284e+03 
1.444500e-01 1.911865e+03 
1.456300e-01 1.882834e+03 
1.468900e-01 1.853249e+03 
1.480500e-01 1.826817e+03 
1.491700e-01 1.802250e+03 
1.503800e-01 1.776805e+03 
1.516400e-01 1.751074e+03 
1.528200e-01 1.728359e+03 
1.540200e-01 1.705717e+03 
1.551900e-01 1.684850e+03 
1.564300e-01 1.663354e+03 
1.576600e-01 1.642781e+03 
1.588700e-01 1.623325e+03 
1.600900e-01 1.604103e+03 
1.612700e-01 1.586229e+03 
1.625400e-01 1.567355e+03 
1.637600e-01 1.549591e+03 
1.649500e-01 1.532593e+03 
1.662200e-01 1.514745e+03 
1.674000e-01 1.498227e+03 
1.685000e-01 1.483090e+03 
1.697500e-01 1.465947e+03 
1.710300e-01 1.448480e+03 
1.722200e-01 1.432536e+03 
1.734400e-01 1.415904e+03 
1.746400e-01 1.399811e+03 
1.758700e-01 1.383448e+03 
1.770900e-01 1.367186e+03 
1.782700e-01 1.351730e+03 
1.794600e-01 1.336211e+03 
1.807000e-01 1.320189e+03 
1.819100e-01 1.304829e+03 
1.830100e-01 1.291001e+03 
1.842200e-01 1.276024e+03 
1.855000e-01 1.260461e+03 
1.867000e-01 1.246195e+03 
1.879200e-01 1.231934e+03 
1.890900e-01 1.218520e+03 
1.902800e-01 1.205286e+03 
1.915200e-01 1.191723e+03 
1.926900e-01 1.179205e+03 
1.939000e-01 1.166698e+03 
1.951700e-01 1.153787e+03 
1.963100e-01 1.142457e+03 
1.975100e-01 1.130915e+03 
1.987800e-01 1.118894e+03 
2.000100e-01 1.107512e+03 
2.012500e-01 1.096387e+03 
2.023400e-01 1.086752e+03 
2.036100e-01 1.075721e+03 
2.048900e-01 1.064896e+03 
2.060400e-01 1.055317e+03 
2.072200e-01 1.045632e+03 
2.084200e-01 1.035980e+03 
2.096900e-01 1.025917e+03 
2.109200e-01 1.016318e+03 
2.121100e-01 1.007128e+03 
2.132700e-01 9.982929e+02 
2.145200e-01 9.889081e+02 
2.157200e-01 9.799735e+02 
2.168800e-01 9.714308e+02 
2.180700e-01 9.627875e+02 
2.193400e-01 9.536502e+02 
2.206000e-01 9.446346e+02 
2.217500e-01 9.365206e+02 
2.229500e-01 9.281679e+02 
2.241400e-01 9.198721e+02 
2.253500e-01 9.115492e+02 
2.264900e-01 9.038124e+02 
2.277100e-01 8.955841e+02 
2.289900e-01 8.870073e+02 
2.301500e-01 8.793411e+02 
2.313600e-01 8.714497e+02 
2.325600e-01 8.636309e+02 
2.337700e-01 8.558526e+02 
2.350000e-01 8.480524e+02 
2.362000e-01 8.405168e+02 
2.374100e-01 8.329865e+02 
2.386500e-01 8.253727e+02 
2.399100e-01 8.177414e+02 
2.410400e-01 8.109684e+02 
2.422500e-01 8.038052e+02 
2.435000e-01 7.965030e+02 
2.447300e-01 7.894186e+02 
2.458700e-01 7.829587e+02 
2.470600e-01 7.762986e+02 
2.483300e-01 7.692827e+02 
2.495600e-01 7.626034e+02 
2.507600e-01 7.562060e+02 
2.519600e-01 7.498880e+02 
2.532200e-01 7.433381e+02 
2.543700e-01 7.374904e+02 
2.555500e-01 7.315997e+02 
2.568000e-01 7.254361e+02 
2.580100e-01 7.195436e+02 
2.592400e-01 7.137033e+02 
2.604100e-01 7.082475e+02 
2.616100e-01 7.027173e+02 
2.628400e-01 6.971165e+02 
2.640600e-01 6.917013e+02 
2.652200e-01 6.866409e+02 
2.664300e-01 6.814227e+02 
2.676500e-01 6.762227e+02 
2.688400e-01 6.712637e+02 
2.700700e-01 6.662309e+02 
2.712400e-01 6.614978e+02 
2.724800e-01 6.565381e+02 
2.736700e-01 6.518643e+02 
2.748800e-01 6.471974e+02 
2.761000e-01 6.425446e+02 
2.773200e-01 6.379440e+02 
2.785400e-01 6.334081e+02 
2.797000e-01 6.291697e+02 
2.808900e-01 6.248680e+02 
2.821400e-01 6.203990e+02 
2.833900e-01 6.159810e+02 
2.845500e-01 6.119433e+02 
2.857800e-01 6.077074e+02 
2.870300e-01 6.034499e+02 
2.882100e-01 5.994738e+02 
2.893900e-01 5.955460e+02 
2.906300e-01 5.914658e+02 
2.918900e-01 5.873650e+02 
2.930500e-01 5.836291e+02 
2.942500e-01 5.798043e+02 
2.954200e-01 5.761147e+02 
2.966500e-01 5.722756e+02 
2.978900e-01 5.684462e+02 
2.990400e-01 5.649306e+02 
3.002700e-01 5.612090e+02 
3.015100e-01 5.574963e+02 
3.026800e-01 5.540286e+02 
3.038500e-01 5.505949e+02 
3.050300e-01 5.471657e+02 
3.062600e-01 5.436282e+02 
3.075000e-01 5.400982e+02 
3.087000e-01 5.367165e+02 
3.099100e-01 5.333402e+02 
3.111200e-01 5.299999e+02 
3.123100e-01 5.267512e+02 
3.135300e-01 5.234531e+02 
3.147300e-01 5.202407e+02 
3.159900e-01 5.169011e+02 
3.171800e-01 5.137834e+02 
3.183700e-01 5.106988e+02 
3.196300e-01 5.074646e+02 
3.208400e-01 5.043891e+02 
3.220300e-01 5.013931e+02 
3.232000e-01 4.984832e+02 
3.244300e-01 4.954562e+02 
3.256700e-01 4.924339e+02 
3.269200e-01 4.894167e+02 
3.280800e-01 4.866428e+02 
3.292500e-01 4.838813e+02 
3.304800e-01 4.810083e+02 
3.317100e-01 4.781623e+02 
3.328900e-01 4.754571e+02 
3.340700e-01 4.727761e+02 
3.353600e-01 4.698860e+02 
3.365300e-01 4.672941e+02 
3.377100e-01 4.647030e+02 
3.389200e-01 4.620698e+02 
3.401600e-01 4.593959e+02 
3.413700e-01 4.568224e+02 
3.425300e-01 4.543851e+02 
3.437700e-01 4.518027e+02 
3.449800e-01 4.493054e+02 
3.461800e-01 4.468505e+02 
3.473600e-01 4.444631e+02 
3.485800e-01 4.420301e+02 
3.498100e-01 4.395988e+02 
3.510200e-01 4.372280e+02 
3.522000e-01 4.349358e+02 
3.533900e-01 4.326437e+02 
3.546400e-01 4.302756e+02 
3.558400e-01 4.280229e+02 
3.570600e-01 4.257523e+02 
3.582700e-01 4.235194e+02 
3.595000e-01 4.212691e+02 
3.607100e-01 4.190842e+02 
3.618900e-01 4.169790e+02 
3.631200e-01 4.148029e+02 
3.643200e-01 4.126977e+02 
3.655500e-01 4.105579e+02 
3.667300e-01 4.085220e+02 
3.679500e-01 4.064525e+02 
3.691900e-01 4.043666e+02 
3.703600e-01 4.024146e+02 
3.715700e-01 4.004120e+02 
3.727700e-01 3.984421e+02 
3.739900e-01 3.964618e+02 
3.752000e-01 3.945247e+02 
3.763900e-01 3.926349e+02 
3.775800e-01 3.907600e+02 
3.788200e-01 3.888220e+02 
3.800300e-01 3.869461e+02 
3.812100e-01 3.851385e+02 
3.824200e-01 3.833044e+02 
3.836100e-01 3.815147e+02 
3.848600e-01 3.796497e+02 
3.860400e-01 3.779029e+02 
3.872400e-01 3.761402e+02 
3.884600e-01 3.743721e+02 
3.896500e-01 3.726644e+02 
3.908700e-01 3.709272e+02 
3.920600e-01 3.692457e+02 
3.933100e-01 3.674931e+02 
3.945300e-01 3.657959e+02 
3.957200e-01 3.641624e+02 
3.969300e-01 3.625166e+02 
3.981700e-01 3.608430e+02 
3.993500e-01 3.592623e+02 
4.094840e-01 3.461769e+02 
4.272360e-01 3.253171e+02 
4.454600e-01 3.061441e+02 
4.630560e-01 2.894572e+02 
4.804610e-01 2.744649e+02 
4.980690e-01 2.606279e+02 
5.159230e-01 2.478022e+02 
5.317440e-01 2.373370e+02 
5.489640e-01 2.268205e+02 
5.671990e-01 2.165854e+02 
5.838690e-01 2.079476e+02 
6.018840e-01 1.993211e+02 
6.202330e-01 1.912246e+02 
6.379250e-01 1.839887e+02 
6.545410e-01 1.776910e+02 
6.714560e-01 1.716983e+02 
6.892080e-01 1.658364e+02 
7.066010e-01 1.604800e+02 
7.240540e-01 1.554426e+02 
7.420450e-01 1.505891e+02 
7.593780e-01 1.461987e+02 
7.764720e-01 1.421153e+02 
7.942840e-01 1.381031e+02 
8.116170e-01 1.344187e+02 
8.288310e-01 1.309550e+02 
8.462240e-01 1.276319e+02 
8.631980e-01 1.245480e+02 
8.810700e-01 1.214572e+02 
8.989410e-01 1.185158e+02 
9.166330e-01 1.157365e+02 
9.345640e-01 1.130462e+02 
9.515980e-01 1.105993e+02 
9.688720e-01 1.082185e+02 
9.865640e-01 1.058773e+02 
1.031870e+00 1.002874e+02 
1.063490e+00 9.668918e+01 
1.097920e+00 9.303007e+01 
1.134370e+00 8.940268e+01 
1.167730e+00 8.629318e+01 
1.203830e+00 8.312207e+01 
1.240470e+00 8.009964e+01 
1.275790e+00 7.734532e+01 
1.309140e+00 7.488716e+01 
1.342970e+00 7.250946e+01 
1.378420e+00 7.014955e+01 
1.413200e+00 6.794551e+01 
1.448110e+00 6.583669e+01 
1.484090e+00 6.377151e+01 
1.518820e+00 6.186684e+01 
1.552880e+00 6.008118e+01 
1.588630e+00 5.828730e+01 
1.623230e+00 5.662984e+01 
1.657720e+00 5.504608e+01 
1.692450e+00 5.352064e+01 
1.726400e+00 5.208336e+01 
1.762200e+00 5.062873e+01 
1.797880e+00 4.923973e+01 
1.833270e+00 4.791469e+01 
1.869070e+00 4.662900e+01 
1.903200e+00 4.544910e+01 
1.937740e+00 4.429864e+01 
1.973190e+00 4.316086e+01 
2.007440e+00 4.210206e+01 
2.042160e+00 4.106771e+01 
2.077900e+00 4.003851e+01 
2.112390e+00 3.908257e+01 
2.146220e+00 3.817300e+01 
2.181600e+00 3.725533e+01 
2.216930e+00 3.637074e+01 
2.250760e+00 3.555042e+01 
2.286500e+00 3.471190e+01 
2.321770e+00 3.391337e+01 
2.355950e+00 3.316514e+01 
2.391280e+00 3.241378e+01 
2.426240e+00 3.169346e+01 
2.460670e+00 3.100625e+01 
2.495640e+00 3.033026e+01 
2.531080e+00 2.966618e+01 
2.566220e+00 2.902659e+01 
2.600830e+00 2.841588e+01 
2.635080e+00 2.783015e+01 
2.670340e+00 2.724232e+01 
2.705970e+00 2.666688e+01 
2.740040e+00 2.613312e+01 
2.774520e+00 2.560729e+01 
2.809730e+00 2.508521e+01 
2.844390e+00 2.458595e+01 
2.879960e+00 2.408746e+01 
2.914860e+00 2.361175e+01 
2.949410e+00 2.315390e+01 
2.984440e+00 2.270141e+01 
3.019760e+00 2.225824e+01 
3.054730e+00 2.183196e+01 
3.089030e+00 2.142277e+01 
3.124060e+00 2.101646e+01 
3.159560e+00 2.061606e+01 
3.194710e+00 2.022884e+01 
3.229010e+00 1.986081e+01 
3.263320e+00 1.950176e+01 
3.297930e+00 1.914894e+01 
3.332830e+00 1.880186e+01 
3.368040e+00 1.846023e+01 
3.403300e+00 1.812664e+01 
3.438450e+00 1.780187e+01 
3.473060e+00 1.749020e+01 
3.508440e+00 1.717944e+01 
3.543110e+00 1.688249e+01 
3.577470e+00 1.659410e+01 
3.613040e+00 1.630299e+01 
3.648120e+00 1.602282e+01 
3.682910e+00 1.575158e+01 
3.718050e+00 1.548378e+01 
3.753320e+00 1.522129e+01 
3.787980e+00 1.496913e+01 
3.822290e+00 1.472531e+01 
3.857020e+00 1.448411e+01 
3.891920e+00 1.424701e+01 
3.926650e+00 1.401576e+01 
3.961970e+00 1.378606e+01 
3.997360e+00 1.356121e+01 
4.031670e+00 1.334811e+01 
4.066330e+00 1.313723e+01 
4.101420e+00 1.292856e+01 
4.136200e+00 1.272619e+01 
4.170810e+00 1.252927e+01 
4.206250e+00 1.233165e+01 
4.241580e+00 1.213895e+01 
4.276300e+00 1.195355e+01 
4.310970e+00 1.177230e+01 
4.346120e+00 1.159244e+01 
4.380600e+00 1.141967e+01 
4.414730e+00 1.125221e+01 
4.450350e+00 1.108086e+01 
4.485320e+00 1.091619e+01 
4.519810e+00 1.075704e+01 
4.555430e+00 1.059604e+01 
4.590870e+00 1.043917e+01 
4.625480e+00 1.028905e+01 
4.659910e+00 1.014271e+01 
4.695230e+00 9.995501e+00 
4.729960e+00 9.853635e+00 
4.764450e+00 9.715502e+00 
4.799530e+00 9.577732e+00 
4.834910e+00 9.441530e+00 
4.869700e+00 9.310228e+00 
4.904370e+00 9.181897e+00 
4.939450e+00 9.054550e+00 
4.973940e+00 8.931754e+00 
5.008430e+00 8.811258e+00 
5.043810e+00 8.689986e+00 
5.078840e+00 8.572182e+00 
5.113500e+00 8.457788e+00 
5.148890e+00 8.343254e+00 
5.184210e+00 8.231079e+00 
5.219060e+00 8.122447e+00 
5.253660e+00 8.016596e+00 
5.288570e+00 7.911717e+00 
5.323420e+00 7.808954e+00 
5.358440e+00 7.707597e+00 
5.393590e+00 7.607678e+00 
5.428310e+00 7.510814e+00 
5.462800e+00 7.416311e+00 
5.497640e+00 7.322500e+00 
5.532670e+00 7.229910e+00 
5.567280e+00 7.140032e+00 
5.602000e+00 7.051401e+00 
5.637270e+00 6.963038e+00 
5.672410e+00 6.876534e+00 
5.707020e+00 6.792768e+00 
5.742040e+00 6.709550e+00 
5.777430e+00 6.626889e+00 
5.812210e+00 6.547004e+00 
5.846820e+00 6.468931e+00 
5.881610e+00 6.391759e+00 
5.916510e+00 6.315601e+00 
5.951600e+00 6.240408e+00 
5.986560e+00 6.166763e+00 
6.021830e+00 6.093663e+00 
6.056490e+00 6.023074e+00 
6.091160e+00 5.953663e+00 
6.125830e+00 5.885337e+00 
6.161090e+00 5.816998e+00 
6.195760e+00 5.750979e+00 
6.230420e+00 5.685995e+00 
6.265690e+00 5.620895e+00 
6.300950e+00 5.557009e+00 
6.335620e+00 5.495152e+00 
6.370880e+00 5.433198e+00 
6.405550e+00 5.373342e+00 
6.440220e+00 5.314435e+00 
6.475480e+00 5.255422e+00 
6.510150e+00 5.198313e+00 
6.544810e+00 5.142179e+00 
6.580080e+00 5.085898e+00 
6.614750e+00 5.031387e+00 
6.649410e+00 4.977869e+00 
6.684080e+00 4.925144e+00 
6.719340e+00 4.872295e+00 
6.754010e+00 4.821131e+00 
6.788680e+00 4.770815e+00 
6.823940e+00 4.720370e+00 
6.859800e+00 4.669807e+00 
6.894470e+00 4.621755e+00 
6.929140e+00 4.574422e+00 
6.963800e+00 4.527758e+00 
6.999070e+00 4.480942e+00 
7.033730e+00 4.435728e+00 
7.068400e+00 4.391118e+00 
7.103660e+00 4.346370e+00 
7.138330e+00 4.303037e+00 
7.173600e+00 4.259690e+00 
7.208260e+00 4.217668e+00 
7.243530e+00 4.175480e+00 
7.277600e+00 4.135366e+00 
7.312860e+00 4.094489e+00 
7.348120e+00 4.054157e+00 
7.382790e+00 4.015023e+00 
7.417460e+00 3.976509e+00 
7.452720e+00 3.937909e+00 
7.487390e+00 3.900448e+00 
7.522650e+00 3.862843e+00 
7.557320e+00 3.826466e+00 
7.591990e+00 3.790597e+00 
7.627250e+00 3.754582e+00 
7.662510e+00 3.719030e+00 
7.697180e+00 3.684637e+00 
7.731850e+00 3.650721e+00 
7.766510e+00 3.617236e+00 
7.801180e+00 3.584156e+00 
7.836440e+00 3.551040e+00 
7.871110e+00 3.518950e+00 
7.906380e+00 3.486706e+00 
7.941040e+00 3.455408e+00 
7.976310e+00 3.424015e+00 
8.011570e+00 3.393095e+00 
8.046240e+00 3.363061e+00 
8.080900e+00 3.333394e+00 
8.115570e+00 3.304104e+00 
8.150830e+00 3.274797e+00 
8.185500e+00 3.246324e+00 
8.220770e+00 3.217700e+00 
8.255430e+00 3.189903e+00 
8.290100e+00 3.162553e+00 
8.324770e+00 3.135536e+00 
8.359430e+00 3.108837e+00 
8.394700e+00 3.081984e+00 
8.429960e+00 3.055527e+00 
8.464630e+00 3.029888e+00 
8.499890e+00 3.004111e+00 
8.534560e+00 2.979055e+00 
8.569200e+00 2.954301e+00 
