# Parameters:
# omega_b = 0.022256, omega_m = 0.127441, n_s = 0.851575, h = 62.086614, w = -1.000000, sigma_8 = 0.877953
# z = 1.100000
#
# k[1/Mpc] # P(k):
8.694000e-04 1.585007e+04 
2.077466e-03 3.028294e+04 
3.285532e-03 4.022813e+04 
4.493598e-03 4.706152e+04 
5.701664e-03 5.152695e+04 
6.909730e-03 5.417056e+04 
8.117797e-03 5.549111e+04 
9.325863e-03 5.574202e+04 
1.053393e-02 5.515449e+04 
1.174199e-02 5.392743e+04 
1.295006e-02 5.218436e+04 
1.415813e-02 5.008084e+04 
1.536619e-02 4.774668e+04 
1.657426e-02 4.527734e+04 
1.778233e-02 4.280473e+04 
1.899039e-02 4.047837e+04 
2.019846e-02 3.823441e+04 
2.140652e-02 3.603543e+04 
2.261459e-02 3.393104e+04 
2.382266e-02 3.197240e+04 
2.503072e-02 3.017805e+04 
2.623879e-02 2.854779e+04 
2.744685e-02 2.707914e+04 
2.865492e-02 2.576454e+04 
2.986299e-02 2.459165e+04 
3.100100e-02 2.360842e+04 
3.220400e-02 2.268301e+04 
3.288100e-02 2.221047e+04 
3.424300e-02 2.134868e+04 
3.555100e-02 2.061386e+04 
3.686000e-02 1.995447e+04 
3.795000e-02 1.945065e+04 
3.929100e-02 1.887484e+04 
4.039800e-02 1.842482e+04 
4.164000e-02 1.793891e+04 
4.294400e-02 1.743497e+04 
4.415000e-02 1.697634e+04 
4.542900e-02 1.648208e+04 
4.660900e-02 1.602686e+04 
4.782300e-02 1.554255e+04 
4.892900e-02 1.509991e+04 
5.031200e-02 1.453979e+04 
5.155900e-02 1.402941e+04 
5.238100e-02 1.369341e+04 
5.378200e-02 1.312508e+04 
5.513400e-02 1.258470e+04 
5.627600e-02 1.213896e+04 
5.735300e-02 1.173150e+04 
5.870100e-02 1.124270e+04 
5.988700e-02 1.083531e+04 
6.113500e-02 1.043039e+04 
6.225900e-02 1.008760e+04 
6.340100e-02 9.760736e+03 
6.480200e-02 9.387055e+03 
6.601100e-02 9.089506e+03 
6.725500e-02 8.806168e+03 
6.829100e-02 8.588910e+03 
6.958600e-02 8.336975e+03 
7.071100e-02 8.137311e+03 
7.192300e-02 7.940117e+03 
7.307400e-02 7.768757e+03 
7.412300e-02 7.624805e+03 
7.550400e-02 7.452337e+03 
7.663100e-02 7.322384e+03 
7.791200e-02 7.186517e+03 
7.912700e-02 7.065768e+03 
8.027600e-02 6.956214e+03 
8.138400e-02 6.853323e+03 
8.272200e-02 6.730767e+03 
8.406100e-02 6.607933e+03 
8.534100e-02 6.486976e+03 
8.653800e-02 6.369436e+03 
8.759800e-02 6.262801e+03 
8.900300e-02 6.116708e+03 
9.009000e-02 5.999242e+03 
9.113300e-02 5.882624e+03 
9.239600e-02 5.739961e+03 
9.358000e-02 5.603980e+03 
9.496100e-02 5.443477e+03 
9.608400e-02 5.314451e+03 
9.727500e-02 5.179905e+03 
9.852600e-02 5.041295e+03 
9.973800e-02 4.912114e+03 
1.009000e-01 4.792777e+03 
1.020900e-01 4.677981e+03 
1.034000e-01 4.558333e+03 
1.046000e-01 4.455049e+03 
1.057200e-01 4.366976e+03 
1.069100e-01 4.278160e+03 
1.082500e-01 4.187351e+03 
1.093900e-01 4.116201e+03 
1.105400e-01 4.048543e+03 
1.116900e-01 3.987483e+03 
1.129600e-01 3.923340e+03 
1.142000e-01 3.865839e+03 
1.153300e-01 3.815673e+03 
1.166400e-01 3.760418e+03 
1.177800e-01 3.713807e+03 
1.190000e-01 3.665250e+03 
1.201200e-01 3.620547e+03 
1.213400e-01 3.572790e+03 
1.227100e-01 3.517437e+03 
1.238900e-01 3.470151e+03 
1.250700e-01 3.421258e+03 
1.263200e-01 3.369581e+03 
1.275500e-01 3.317470e+03 
1.287500e-01 3.266691e+03 
1.299900e-01 3.213652e+03 
1.311300e-01 3.165223e+03 
1.323500e-01 3.113380e+03 
1.335900e-01 3.061565e+03 
1.347100e-01 3.015326e+03 
1.359800e-01 2.964083e+03 
1.372100e-01 2.915594e+03 
1.384300e-01 2.868814e+03 
1.395700e-01 2.826529e+03 
1.407700e-01 2.783097e+03 
1.420300e-01 2.739593e+03 
1.432800e-01 2.697422e+03 
1.444500e-01 2.660004e+03 
1.456300e-01 2.623053e+03 
1.468900e-01 2.585384e+03 
1.480500e-01 2.551711e+03 
1.491700e-01 2.520215e+03 
1.503800e-01 2.487345e+03 
1.516400e-01 2.453939e+03 
1.528200e-01 2.423782e+03 
1.540200e-01 2.393714e+03 
1.551900e-01 2.365221e+03 
1.564300e-01 2.335672e+03 
1.576600e-01 2.306972e+03 
1.588700e-01 2.279324e+03 
1.600900e-01 2.251974e+03 
1.612700e-01 2.225889e+03 
1.625400e-01 2.198349e+03 
1.637600e-01 2.172260e+03 
1.649500e-01 2.147201e+03 
1.662200e-01 2.120916e+03 
1.674000e-01 2.096707e+03 
1.685000e-01 2.074528e+03 
1.697500e-01 2.049648e+03 
1.710300e-01 2.024532e+03 
1.722200e-01 2.001609e+03 
1.734400e-01 1.978322e+03 
1.746400e-01 1.955814e+03 
1.758700e-01 1.933132e+03 
1.770900e-01 1.910993e+03 
1.782700e-01 1.889949e+03 
1.794600e-01 1.869108e+03 
1.807000e-01 1.847780e+03 
1.819100e-01 1.827327e+03 
1.830100e-01 1.809139e+03 
1.842200e-01 1.789470e+03 
1.855000e-01 1.769030e+03 
1.867000e-01 1.750391e+03 
1.879200e-01 1.731753e+03 
1.890900e-01 1.714204e+03 
1.902800e-01 1.696833e+03 
1.915200e-01 1.679023e+03 
1.926900e-01 1.662546e+03 
1.939000e-01 1.645964e+03 
1.951700e-01 1.628839e+03 
1.963100e-01 1.613754e+03 
1.975100e-01 1.598239e+03 
1.987800e-01 1.582076e+03 
2.000100e-01 1.566715e+03 
2.012500e-01 1.551575e+03 
2.023400e-01 1.538459e+03 
2.036100e-01 1.523412e+03 
2.048900e-01 1.508531e+03 
2.060400e-01 1.495360e+03 
2.072200e-01 1.482037e+03 
2.084200e-01 1.468690e+03 
2.096900e-01 1.454773e+03 
2.109200e-01 1.441497e+03 
2.121100e-01 1.428758e+03 
2.132700e-01 1.416510e+03 
2.145200e-01 1.403499e+03 
2.157200e-01 1.391107e+03 
2.168800e-01 1.379257e+03 
2.180700e-01 1.367266e+03 
2.193400e-01 1.354583e+03 
2.206000e-01 1.342055e+03 
2.217500e-01 1.330779e+03 
2.229500e-01 1.319171e+03 
2.241400e-01 1.307604e+03 
2.253500e-01 1.295997e+03 
2.264900e-01 1.285207e+03 
2.277100e-01 1.273687e+03 
2.289900e-01 1.261629e+03 
2.301500e-01 1.250851e+03 
2.313600e-01 1.239755e+03 
2.325600e-01 1.228645e+03 
2.337700e-01 1.217592e+03 
2.350000e-01 1.206507e+03 
2.362000e-01 1.195741e+03 
2.374100e-01 1.184915e+03 
2.386500e-01 1.173969e+03 
2.399100e-01 1.162999e+03 
2.410400e-01 1.153165e+03 
2.422500e-01 1.142754e+03 
2.435000e-01 1.132141e+03 
2.447300e-01 1.121832e+03 
2.458700e-01 1.112374e+03 
2.470600e-01 1.102624e+03 
2.483300e-01 1.092355e+03 
2.495600e-01 1.082571e+03 
2.507600e-01 1.073188e+03 
2.519600e-01 1.063923e+03 
2.532200e-01 1.054319e+03 
2.543700e-01 1.045765e+03 
2.555500e-01 1.037161e+03 
2.568000e-01 1.028160e+03 
2.580100e-01 1.019556e+03 
2.592400e-01 1.011083e+03 
2.604100e-01 1.003191e+03 
2.616100e-01 9.951921e+02 
2.628400e-01 9.870919e+02 
2.640600e-01 9.793312e+02 
2.652200e-01 9.721075e+02 
2.664300e-01 9.646586e+02 
2.676500e-01 9.572360e+02 
2.688400e-01 9.502210e+02 
2.700700e-01 9.431417e+02 
2.712400e-01 9.364837e+02 
2.724800e-01 9.295069e+02 
2.736700e-01 9.229794e+02 
2.748800e-01 9.165102e+02 
2.761000e-01 9.100603e+02 
2.773200e-01 9.036822e+02 
2.785400e-01 8.974173e+02 
2.797000e-01 8.916133e+02 
2.808900e-01 8.857219e+02 
2.821400e-01 8.796009e+02 
2.833900e-01 8.735514e+02 
2.845500e-01 8.680738e+02 
2.857800e-01 8.623267e+02 
2.870300e-01 8.565494e+02 
2.882100e-01 8.511535e+02 
2.893900e-01 8.458472e+02 
2.906300e-01 8.403477e+02 
2.918900e-01 8.348196e+02 
2.930500e-01 8.297828e+02 
2.942500e-01 8.246311e+02 
2.954200e-01 8.196789e+02 
2.966500e-01 8.145255e+02 
2.978900e-01 8.093841e+02 
2.990400e-01 8.046636e+02 
3.002700e-01 7.996746e+02 
3.015100e-01 7.947013e+02 
3.026800e-01 7.900555e+02 
3.038500e-01 7.854545e+02 
3.050300e-01 7.808590e+02 
3.062600e-01 7.761246e+02 
3.075000e-01 7.713997e+02 
3.087000e-01 7.668725e+02 
3.099100e-01 7.623519e+02 
3.111200e-01 7.578791e+02 
3.123100e-01 7.535291e+02 
3.135300e-01 7.491122e+02 
3.147300e-01 7.448095e+02 
3.159900e-01 7.403357e+02 
3.171800e-01 7.361586e+02 
3.183700e-01 7.320253e+02 
3.196300e-01 7.276908e+02 
3.208400e-01 7.235683e+02 
3.220300e-01 7.195518e+02 
3.232000e-01 7.156457e+02 
3.244300e-01 7.115799e+02 
3.256700e-01 7.075200e+02 
3.269200e-01 7.034662e+02 
3.280800e-01 6.997388e+02 
3.292500e-01 6.960244e+02 
3.304800e-01 6.921587e+02 
3.317100e-01 6.883288e+02 
3.328900e-01 6.846877e+02 
3.340700e-01 6.810787e+02 
3.353600e-01 6.771824e+02 
3.365300e-01 6.736855e+02 
3.377100e-01 6.701893e+02 
3.389200e-01 6.666357e+02 
3.401600e-01 6.630267e+02 
3.413700e-01 6.595488e+02 
3.425300e-01 6.562519e+02 
3.437700e-01 6.527583e+02 
3.449800e-01 6.493793e+02 
3.461800e-01 6.460573e+02 
3.473600e-01 6.428241e+02 
3.485800e-01 6.395236e+02 
3.498100e-01 6.362250e+02 
3.510200e-01 6.330081e+02 
3.522000e-01 6.298974e+02 
3.533900e-01 6.267865e+02 
3.546400e-01 6.235652e+02 
3.558400e-01 6.205003e+02 
3.570600e-01 6.174105e+02 
3.582700e-01 6.143718e+02 
3.595000e-01 6.113090e+02 
3.607100e-01 6.083319e+02 
3.618900e-01 6.054606e+02 
3.631200e-01 6.024924e+02 
3.643200e-01 5.996206e+02 
3.655500e-01 5.967012e+02 
3.667300e-01 5.939233e+02 
3.679500e-01 5.910947e+02 
3.691900e-01 5.882434e+02 
3.703600e-01 5.855748e+02 
3.715700e-01 5.828369e+02 
3.727700e-01 5.801433e+02 
3.739900e-01 5.774335e+02 
3.752000e-01 5.747797e+02 
3.763900e-01 5.721904e+02 
3.775800e-01 5.696212e+02 
3.788200e-01 5.669654e+02 
3.800300e-01 5.643945e+02 
3.812100e-01 5.619155e+02 
3.824200e-01 5.593989e+02 
3.836100e-01 5.569431e+02 
3.848600e-01 5.543837e+02 
3.860400e-01 5.519865e+02 
3.872400e-01 5.495671e+02 
3.884600e-01 5.471373e+02 
3.896500e-01 5.447895e+02 
3.908700e-01 5.424009e+02 
3.920600e-01 5.400887e+02 
3.933100e-01 5.376785e+02 
3.945300e-01 5.353443e+02 
3.957200e-01 5.330973e+02 
3.969300e-01 5.308331e+02 
3.981700e-01 5.285303e+02 
3.993500e-01 5.263554e+02 
4.094840e-01 5.083347e+02 
4.272360e-01 4.795702e+02 
4.454600e-01 4.531032e+02 
4.630560e-01 4.300381e+02 
4.804610e-01 4.092920e+02 
4.980690e-01 3.901242e+02 
5.159230e-01 3.723334e+02 
5.317440e-01 3.578006e+02 
5.489640e-01 3.431681e+02 
5.671990e-01 3.289064e+02 
5.838690e-01 3.168552e+02 
6.018840e-01 3.047872e+02 
6.202330e-01 2.934281e+02 
6.379250e-01 2.832692e+02 
6.545410e-01 2.743945e+02 
6.714560e-01 2.659256e+02 
6.892080e-01 2.576263e+02 
7.066010e-01 2.500084e+02 
7.240540e-01 2.428327e+02 
7.420450e-01 2.358791e+02 
7.593780e-01 2.295624e+02 
7.764720e-01 2.236659e+02 
7.942840e-01 2.178500e+02 
8.116170e-01 2.124776e+02 
8.288310e-01 2.073980e+02 
8.462240e-01 2.025031e+02 
8.631980e-01 1.979314e+02 
8.810700e-01 1.933293e+02 
8.989410e-01 1.889241e+02 
9.166330e-01 1.847401e+02 
9.345640e-01 1.806711e+02 
9.515980e-01 1.769433e+02 
9.688720e-01 1.732965e+02 
9.865640e-01 1.696882e+02 
1.031870e+00 1.610057e+02 
1.063490e+00 1.553566e+02 
1.097920e+00 1.495547e+02 
1.134370e+00 1.437651e+02 
1.167730e+00 1.387576e+02 
1.203830e+00 1.336128e+02 
1.240470e+00 1.286787e+02 
1.275790e+00 1.241543e+02 
1.309140e+00 1.201032e+02 
1.342970e+00 1.161634e+02 
1.378420e+00 1.122369e+02 
1.413200e+00 1.085566e+02 
1.448110e+00 1.050304e+02 
1.484090e+00 1.015629e+02 
1.518820e+00 9.836450e+01 
1.552880e+00 9.535708e+01 
1.588630e+00 9.233788e+01 
1.623230e+00 8.954026e+01 
1.657720e+00 8.686563e+01 
1.692450e+00 8.428775e+01 
1.726400e+00 8.186180e+01 
1.762200e+00 7.940415e+01 
1.797880e+00 7.705908e+01 
1.833270e+00 7.482315e+01 
1.869070e+00 7.265100e+01 
1.903200e+00 7.066259e+01 
1.937740e+00 6.872505e+01 
1.973190e+00 6.680935e+01 
2.007440e+00 6.502939e+01 
2.042160e+00 6.329180e+01 
2.077900e+00 6.156604e+01 
2.112390e+00 5.996460e+01 
2.146220e+00 5.844427e+01 
2.181600e+00 5.691152e+01 
2.216930e+00 5.543625e+01 
2.250760e+00 5.407205e+01 
2.286500e+00 5.267987e+01 
2.321770e+00 5.135388e+01 
2.355950e+00 5.011281e+01 
2.391280e+00 4.887061e+01 
2.426240e+00 4.768321e+01 
2.460670e+00 4.655289e+01 
2.495640e+00 4.544257e+01 
2.531080e+00 4.435095e+01 
2.566220e+00 4.330420e+01 
2.600830e+00 4.230684e+01 
2.635080e+00 4.135138e+01 
2.670340e+00 4.039781e+01 
2.705970e+00 3.946428e+01 
2.740040e+00 3.859874e+01 
2.774520e+00 3.774707e+01 
2.809730e+00 3.690460e+01 
2.844390e+00 3.610110e+01 
2.879960e+00 3.530121e+01 
2.914860e+00 3.453884e+01 
2.949410e+00 3.380639e+01 
2.984440e+00 3.308537e+01 
3.019760e+00 3.237898e+01 
3.054730e+00 3.169983e+01 
3.089030e+00 3.105245e+01 
3.124060e+00 3.040980e+01 
3.159560e+00 2.977645e+01 
3.194710e+00 2.916728e+01 
3.229010e+00 2.858965e+01 
3.263320e+00 2.802713e+01 
3.297930e+00 2.747496e+01 
3.332830e+00 2.693251e+01 
3.368040e+00 2.640020e+01 
3.403300e+00 2.588169e+01 
3.438450e+00 2.537873e+01 
3.473060e+00 2.489681e+01 
3.508440e+00 2.441648e+01 
3.543110e+00 2.395831e+01 
3.577470e+00 2.351601e+01 
3.613040e+00 2.306982e+01 
3.648120e+00 2.264050e+01 
3.682910e+00 2.222571e+01 
3.718050e+00 2.181751e+01 
3.753320e+00 2.141825e+01 
3.787980e+00 2.103574e+01 
3.822290e+00 2.066635e+01 
3.857020e+00 2.030149e+01 
3.891920e+00 1.994373e+01 
3.926650e+00 1.959625e+01 
3.961970e+00 1.925149e+01 
3.997360e+00 1.891462e+01 
4.031670e+00 1.859577e+01 
4.066330e+00 1.828126e+01 
4.101420e+00 1.797027e+01 
4.136200e+00 1.766925e+01 
4.170810e+00 1.737655e+01 
4.206250e+00 1.708369e+01 
4.241580e+00 1.679844e+01 
4.276300e+00 1.652478e+01 
4.310970e+00 1.625777e+01 
4.346120e+00 1.599320e+01 
4.380600e+00 1.573961e+01 
4.414730e+00 1.549399e+01 
4.450350e+00 1.524359e+01 
4.485320e+00 1.500310e+01 
4.519810e+00 1.477125e+01 
4.555430e+00 1.453703e+01 
4.590870e+00 1.430913e+01 
4.625480e+00 1.409157e+01 
4.659910e+00 1.387957e+01 
4.695230e+00 1.366701e+01 
4.729960e+00 1.346235e+01 
4.764450e+00 1.326338e+01 
4.799530e+00 1.306536e+01 
4.834910e+00 1.286969e+01 
4.869700e+00 1.268158e+01 
4.904370e+00 1.249788e+01 
4.939450e+00 1.231582e+01 
4.973940e+00 1.214072e+01 
5.008430e+00 1.196898e+01 
5.043810e+00 1.179645e+01 
5.078840e+00 1.162906e+01 
5.113500e+00 1.146659e+01 
5.148890e+00 1.130447e+01 
5.184210e+00 1.114577e+01 
5.219060e+00 1.099224e+01 
5.253660e+00 1.084298e+01 
5.288570e+00 1.069514e+01 
5.323420e+00 1.055050e+01 
5.358440e+00 1.040807e+01 
5.393590e+00 1.026770e+01 
5.428310e+00 1.013193e+01 
5.462800e+00 9.999637e+00 
5.497640e+00 9.868357e+00 
5.532670e+00 9.739076e+00 
5.567280e+00 9.613699e+00 
5.602000e+00 9.490099e+00 
5.637270e+00 9.367133e+00 
5.672410e+00 9.246841e+00 
5.707020e+00 9.130387e+00 
5.742040e+00 9.014982e+00 
5.777430e+00 8.900433e+00 
5.812210e+00 8.789758e+00 
5.846820e+00 8.681808e+00 
5.881610e+00 8.575178e+00 
5.916510e+00 8.469974e+00 
5.951600e+00 8.366273e+00 
5.986560e+00 8.264799e+00 
6.021830e+00 8.164095e+00 
6.056490e+00 8.066994e+00 
6.091160e+00 7.971632e+00 
6.125830e+00 7.877781e+00 
6.161090e+00 7.783993e+00 
6.195760e+00 7.693540e+00 
6.230420e+00 7.604521e+00 
6.265690e+00 7.515366e+00 
6.300950e+00 7.428047e+00 
6.335620e+00 7.343515e+00 
6.370880e+00 7.258866e+00 
6.405550e+00 7.177201e+00 
6.440220e+00 7.096888e+00 
6.475480e+00 7.016442e+00 
6.510150e+00 6.938648e+00 
6.544810e+00 6.862289e+00 
6.580080e+00 6.785742e+00 
6.614750e+00 6.711611e+00 
6.649410e+00 6.638945e+00 
6.684080e+00 6.567385e+00 
6.719340e+00 6.495666e+00 
6.754010e+00 6.426278e+00 
6.788680e+00 6.358137e+00 
6.823940e+00 6.289829e+00 
6.859800e+00 6.221367e+00 
6.894470e+00 6.156378e+00 
6.929140e+00 6.092390e+00 
6.963800e+00 6.029312e+00 
6.999070e+00 5.966041e+00 
7.033730e+00 5.905010e+00 
7.068400e+00 5.844799e+00 
7.103660e+00 5.784407e+00 
7.138330e+00 5.725954e+00 
7.173600e+00 5.667540e+00 
7.208260e+00 5.610915e+00 
7.243530e+00 5.554071e+00 
7.277600e+00 5.500063e+00 
7.312860e+00 5.445065e+00 
7.348120e+00 5.390804e+00 
7.382790e+00 5.338159e+00 
7.417460e+00 5.286390e+00 
7.452720e+00 5.234528e+00 
7.487390e+00 5.184201e+00 
7.522650e+00 5.133682e+00 
7.557320e+00 5.084844e+00 
7.591990e+00 5.036701e+00 
7.627250e+00 4.988366e+00 
7.662510e+00 4.940653e+00 
7.697180e+00 4.894532e+00 
7.731850e+00 4.849065e+00 
7.766510e+00 4.804178e+00 
7.801180e+00 4.759835e+00 
7.836440e+00 4.715465e+00 
7.871110e+00 4.672481e+00 
7.906380e+00 4.629294e+00 
7.941040e+00 4.587375e+00 
7.976310e+00 4.545341e+00 
8.011570e+00 4.503956e+00 
8.046240e+00 4.463757e+00 
8.080900e+00 4.424051e+00 
8.115570e+00 4.384854e+00 
8.150830e+00 4.345646e+00 
8.185500e+00 4.307553e+00 
8.220770e+00 4.269262e+00 
8.255430e+00 4.232078e+00 
8.290100e+00 4.195520e+00 
8.324770e+00 4.159410e+00 
8.359430e+00 4.123729e+00 
8.394700e+00 4.087842e+00 
8.429960e+00 4.052489e+00 
8.464630e+00 4.018234e+00 
8.499890e+00 3.983796e+00 
8.534560e+00 3.950321e+00 
8.569200e+00 3.917253e+00 
