# Parameters:
# omega_b = 0.022524, omega_m = 0.144528, n_s = 0.890945, h = 72.244094, w = -1.000000, sigma_8 = 0.769291
# z = 1.100000
#
# k[1/Mpc] # P(k):
8.694000e-04 6.150799e+03 
2.077466e-03 1.235019e+04 
3.285532e-03 1.695428e+04 
4.493598e-03 2.037699e+04 
5.701664e-03 2.283808e+04 
6.909730e-03 2.452083e+04 
8.117797e-03 2.561156e+04 
9.325863e-03 2.620546e+04 
1.053393e-02 2.639295e+04 
1.174199e-02 2.625402e+04 
1.295006e-02 2.584028e+04 
1.415813e-02 2.521869e+04 
1.536619e-02 2.444412e+04 
1.657426e-02 2.355084e+04 
1.778233e-02 2.255089e+04 
1.899039e-02 2.148117e+04 
2.019846e-02 2.040766e+04 
2.140652e-02 1.937932e+04 
2.261459e-02 1.839678e+04 
2.382266e-02 1.746646e+04 
2.503072e-02 1.659738e+04 
2.623879e-02 1.579294e+04 
2.744685e-02 1.505426e+04 
2.865492e-02 1.438263e+04 
2.986299e-02 1.377534e+04 
3.100100e-02 1.326029e+04 
3.220400e-02 1.277190e+04 
3.288100e-02 1.252179e+04 
3.424300e-02 1.206619e+04 
3.555100e-02 1.168035e+04 
3.686000e-02 1.133893e+04 
3.795000e-02 1.108241e+04 
3.929100e-02 1.079697e+04 
4.039800e-02 1.057934e+04 
4.164000e-02 1.034881e+04 
4.294400e-02 1.011469e+04 
4.415000e-02 9.902867e+03 
4.542900e-02 9.674055e+03 
4.660900e-02 9.461195e+03 
4.782300e-02 9.229281e+03 
4.892900e-02 9.012686e+03 
5.031200e-02 8.730495e+03 
5.155900e-02 8.464438e+03 
5.238100e-02 8.284738e+03 
5.378200e-02 7.972861e+03 
5.513400e-02 7.666138e+03 
5.627600e-02 7.405683e+03 
5.735300e-02 7.161858e+03 
5.870100e-02 6.861932e+03 
5.988700e-02 6.606201e+03 
6.113500e-02 6.347241e+03 
6.225900e-02 6.125094e+03 
6.340100e-02 5.912097e+03 
6.480200e-02 5.668996e+03 
6.601100e-02 5.477454e+03 
6.725500e-02 5.297860e+03 
6.829100e-02 5.162965e+03 
6.958600e-02 5.009270e+03 
7.071100e-02 4.890164e+03 
7.192300e-02 4.774788e+03 
7.307400e-02 4.676410e+03 
7.412300e-02 4.595099e+03 
7.550400e-02 4.499488e+03 
7.663100e-02 4.428424e+03 
7.791200e-02 4.355300e+03 
7.912700e-02 4.291026e+03 
8.027600e-02 4.233090e+03 
8.138400e-02 4.178891e+03 
8.272200e-02 4.114487e+03 
8.406100e-02 4.049957e+03 
8.534100e-02 3.986354e+03 
8.653800e-02 3.924347e+03 
8.759800e-02 3.867895e+03 
8.900300e-02 3.790134e+03 
9.009000e-02 3.727120e+03 
9.113300e-02 3.663914e+03 
9.239600e-02 3.585875e+03 
9.358000e-02 3.510462e+03 
9.496100e-02 3.419570e+03 
9.608400e-02 3.345215e+03 
9.727500e-02 3.266616e+03 
9.852600e-02 3.182790e+03 
9.973800e-02 3.103295e+03 
1.009000e-01 3.028730e+03 
1.020900e-01 2.954297e+03 
1.034000e-01 2.875594e+03 
1.046000e-01 2.806480e+03 
1.057200e-01 2.745951e+03 
1.069100e-01 2.684490e+03 
1.082500e-01 2.620561e+03 
1.093900e-01 2.570217e+03 
1.105400e-01 2.522200e+03 
1.116900e-01 2.479126e+03 
1.129600e-01 2.434142e+03 
1.142000e-01 2.394785e+03 
1.153300e-01 2.361139e+03 
1.166400e-01 2.325157e+03 
1.177800e-01 2.296178e+03 
1.190000e-01 2.266637e+03 
1.201200e-01 2.241130e+03 
1.213400e-01 2.214173e+03 
1.227100e-01 2.184904e+03 
1.238900e-01 2.160163e+03 
1.250700e-01 2.135367e+03 
1.263200e-01 2.109236e+03 
1.275500e-01 2.083062e+03 
1.287500e-01 2.057346e+03 
1.299900e-01 2.030165e+03 
1.311300e-01 2.004842e+03 
1.323500e-01 1.976999e+03 
1.335900e-01 1.948420e+03 
1.347100e-01 1.921950e+03 
1.359800e-01 1.891896e+03 
1.372100e-01 1.862048e+03 
1.384300e-01 1.832665e+03 
1.395700e-01 1.804720e+03 
1.407700e-01 1.775860e+03 
1.420300e-01 1.745278e+03 
1.432800e-01 1.715659e+03 
1.444500e-01 1.688214e+03 
1.456300e-01 1.661145e+03 
1.468900e-01 1.633250e+03 
1.480500e-01 1.608244e+03 
1.491700e-01 1.585009e+03 
1.503800e-01 1.560951e+03 
1.516400e-01 1.536701e+03 
1.528200e-01 1.515587e+03 
1.540200e-01 1.494550e+03 
1.551900e-01 1.475633e+03 
1.564300e-01 1.456268e+03 
1.576600e-01 1.438034e+03 
1.588700e-01 1.421155e+03 
1.600900e-01 1.404509e+03 
1.612700e-01 1.389603e+03 
1.625400e-01 1.373859e+03 
1.637600e-01 1.359277e+03 
1.649500e-01 1.345461e+03 
1.662200e-01 1.330972e+03 
1.674000e-01 1.317680e+03 
1.685000e-01 1.305497e+03 
1.697500e-01 1.291641e+03 
1.710300e-01 1.277466e+03 
1.722200e-01 1.264522e+03 
1.734400e-01 1.250760e+03 
1.746400e-01 1.237429e+03 
1.758700e-01 1.223761e+03 
1.770900e-01 1.209952e+03 
1.782700e-01 1.196825e+03 
1.794600e-01 1.183456e+03 
1.807000e-01 1.169528e+03 
1.819100e-01 1.156174e+03 
1.830100e-01 1.143947e+03 
1.842200e-01 1.130669e+03 
1.855000e-01 1.116864e+03 
1.867000e-01 1.104051e+03 
1.879200e-01 1.091244e+03 
1.890900e-01 1.079185e+03 
1.902800e-01 1.067222e+03 
1.915200e-01 1.054963e+03 
1.926900e-01 1.043649e+03 
1.939000e-01 1.032344e+03 
1.951700e-01 1.020675e+03 
1.963100e-01 1.010448e+03 
1.975100e-01 1.000064e+03 
1.987800e-01 9.892497e+02 
2.000100e-01 9.790355e+02 
2.012500e-01 9.691106e+02 
2.023400e-01 9.605147e+02 
2.036100e-01 9.506928e+02 
2.048900e-01 9.411266e+02 
2.060400e-01 9.326606e+02 
2.072200e-01 9.241081e+02 
2.084200e-01 9.156623e+02 
2.096900e-01 9.068571e+02 
2.109200e-01 8.984570e+02 
2.121100e-01 8.904865e+02 
2.132700e-01 8.828271e+02 
2.145200e-01 8.746906e+02 
2.157200e-01 8.669917e+02 
2.168800e-01 8.596517e+02 
2.180700e-01 8.522245e+02 
2.193400e-01 8.443995e+02 
2.206000e-01 8.367284e+02 
2.217500e-01 8.298234e+02 
2.229500e-01 8.227142e+02 
2.241400e-01 8.157363e+02 
2.253500e-01 8.087362e+02 
2.264900e-01 8.022278e+02 
2.277100e-01 7.953529e+02 
2.289900e-01 7.882383e+02 
2.301500e-01 7.818774e+02 
2.313600e-01 7.753286e+02 
2.325600e-01 7.689432e+02 
2.337700e-01 7.625886e+02 
2.350000e-01 7.562139e+02 
2.362000e-01 7.500992e+02 
2.374100e-01 7.440404e+02 
2.386500e-01 7.379120e+02 
2.399100e-01 7.317668e+02 
2.410400e-01 7.263703e+02 
2.422500e-01 7.206679e+02 
2.435000e-01 7.148521e+02 
2.447300e-01 7.092141e+02 
2.458700e-01 7.040986e+02 
2.470600e-01 6.988222e+02 
2.483300e-01 6.932612e+02 
2.495600e-01 6.879592e+02 
2.507600e-01 6.828712e+02 
2.519600e-01 6.778442e+02 
2.532200e-01 6.726303e+02 
2.543700e-01 6.679427e+02 
2.555500e-01 6.631977e+02 
2.568000e-01 6.582309e+02 
2.580100e-01 6.534806e+02 
2.592400e-01 6.487132e+02 
2.604100e-01 6.442327e+02 
2.616100e-01 6.396896e+02 
2.628400e-01 6.350870e+02 
2.640600e-01 6.305670e+02 
2.652200e-01 6.263146e+02 
2.664300e-01 6.219285e+02 
2.676500e-01 6.175566e+02 
2.688400e-01 6.133306e+02 
2.700700e-01 6.090057e+02 
2.712400e-01 6.049376e+02 
2.724800e-01 6.006740e+02 
2.736700e-01 5.966196e+02 
2.748800e-01 5.925336e+02 
2.761000e-01 5.884596e+02 
2.773200e-01 5.844306e+02 
2.785400e-01 5.804409e+02 
2.797000e-01 5.766772e+02 
2.808900e-01 5.728569e+02 
2.821400e-01 5.688878e+02 
2.833900e-01 5.649620e+02 
2.845500e-01 5.613423e+02 
2.857800e-01 5.575447e+02 
2.870300e-01 5.537275e+02 
2.882100e-01 5.501623e+02 
2.893900e-01 5.466275e+02 
2.906300e-01 5.429485e+02 
2.918900e-01 5.392507e+02 
2.930500e-01 5.358818e+02 
2.942500e-01 5.324302e+02 
2.954200e-01 5.290932e+02 
2.966500e-01 5.256209e+02 
2.978900e-01 5.221571e+02 
2.990400e-01 5.189771e+02 
3.002700e-01 5.156064e+02 
3.015100e-01 5.122417e+02 
3.026800e-01 5.090989e+02 
3.038500e-01 5.059867e+02 
3.050300e-01 5.028785e+02 
3.062600e-01 4.996691e+02 
3.075000e-01 4.964665e+02 
3.087000e-01 4.933982e+02 
3.099100e-01 4.903348e+02 
3.111200e-01 4.873030e+02 
3.123100e-01 4.843528e+02 
3.135300e-01 4.813576e+02 
3.147300e-01 4.784402e+02 
3.159900e-01 4.754071e+02 
3.171800e-01 4.725740e+02 
3.183700e-01 4.697701e+02 
3.196300e-01 4.668300e+02 
3.208400e-01 4.640341e+02 
3.220300e-01 4.613103e+02 
3.232000e-01 4.586627e+02 
3.244300e-01 4.559076e+02 
3.256700e-01 4.531568e+02 
3.269200e-01 4.504104e+02 
3.280800e-01 4.478855e+02 
3.292500e-01 4.453702e+02 
3.304800e-01 4.427529e+02 
3.317100e-01 4.401602e+02 
3.328900e-01 4.376955e+02 
3.340700e-01 4.352529e+02 
3.353600e-01 4.326174e+02 
3.365300e-01 4.302530e+02 
3.377100e-01 4.278892e+02 
3.389200e-01 4.254869e+02 
3.401600e-01 4.230475e+02 
3.413700e-01 4.206988e+02 
3.425300e-01 4.184738e+02 
3.437700e-01 4.161164e+02 
3.449800e-01 4.138365e+02 
3.461800e-01 4.115954e+02 
3.473600e-01 4.094150e+02 
3.485800e-01 4.071913e+02 
3.498100e-01 4.049690e+02 
3.510200e-01 4.028020e+02 
3.522000e-01 4.007068e+02 
3.533900e-01 3.986116e+02 
3.546400e-01 3.964454e+02 
3.558400e-01 3.943847e+02 
3.570600e-01 3.923075e+02 
3.582700e-01 3.902649e+02 
3.595000e-01 3.882062e+02 
3.607100e-01 3.862067e+02 
3.618900e-01 3.842795e+02 
3.631200e-01 3.822873e+02 
3.643200e-01 3.803600e+02 
3.655500e-01 3.784011e+02 
3.667300e-01 3.765372e+02 
3.679500e-01 3.746419e+02 
3.691900e-01 3.727317e+02 
3.703600e-01 3.709439e+02 
3.715700e-01 3.691099e+02 
3.727700e-01 3.673058e+02 
3.739900e-01 3.654917e+02 
3.752000e-01 3.637168e+02 
3.763900e-01 3.619850e+02 
3.775800e-01 3.602669e+02 
3.788200e-01 3.584910e+02 
3.800300e-01 3.567720e+02 
3.812100e-01 3.551155e+02 
3.824200e-01 3.534348e+02 
3.836100e-01 3.517947e+02 
3.848600e-01 3.500855e+02 
3.860400e-01 3.484848e+02 
3.872400e-01 3.468694e+02 
3.884600e-01 3.452487e+02 
3.896500e-01 3.436833e+02 
3.908700e-01 3.420907e+02 
3.920600e-01 3.405493e+02 
3.933100e-01 3.389426e+02 
3.945300e-01 3.373868e+02 
3.957200e-01 3.358895e+02 
3.969300e-01 3.343809e+02 
3.981700e-01 3.328469e+02 
3.993500e-01 3.313980e+02 
4.094840e-01 3.194053e+02 
4.272360e-01 3.002903e+02 
4.454600e-01 2.827305e+02 
4.630560e-01 2.674513e+02 
4.804610e-01 2.537268e+02 
4.980690e-01 2.410596e+02 
5.159230e-01 2.293140e+02 
5.317440e-01 2.197267e+02 
5.489640e-01 2.100861e+02 
5.671990e-01 2.006941e+02 
5.838690e-01 1.927640e+02 
6.018840e-01 1.848359e+02 
6.202330e-01 1.773870e+02 
6.379250e-01 1.707288e+02 
6.545410e-01 1.649280e+02 
6.714560e-01 1.594064e+02 
6.892080e-01 1.540025e+02 
7.066010e-01 1.490640e+02 
7.240540e-01 1.444205e+02 
7.420450e-01 1.399452e+02 
7.593780e-01 1.358984e+02 
7.764720e-01 1.321357e+02 
7.942840e-01 1.284400e+02 
8.116170e-01 1.250475e+02 
8.288310e-01 1.218605e+02 
8.462240e-01 1.188050e+02 
8.631980e-01 1.159712e+02 
8.810700e-01 1.131331e+02 
8.989410e-01 1.104341e+02 
9.166330e-01 1.078864e+02 
9.345640e-01 1.054226e+02 
9.515980e-01 1.031832e+02 
9.688720e-01 1.010058e+02 
9.865640e-01 9.886647e+01 
1.031870e+00 9.376396e+01 
1.063490e+00 9.048626e+01 
1.097920e+00 8.715217e+01 
1.134370e+00 8.385433e+01 
1.167730e+00 8.102800e+01 
1.203830e+00 7.814671e+01 
1.240470e+00 7.540031e+01 
1.275790e+00 7.289976e+01 
1.309140e+00 7.066813e+01 
1.342970e+00 6.850954e+01 
1.378420e+00 6.636543e+01 
1.413200e+00 6.436228e+01 
1.448110e+00 6.244589e+01 
1.484090e+00 6.056653e+01 
1.518820e+00 5.883437e+01 
1.552880e+00 5.720692e+01 
1.588630e+00 5.557265e+01 
1.623230e+00 5.405995e+01 
1.657720e+00 5.261383e+01 
1.692450e+00 5.121740e+01 
1.726400e+00 4.990305e+01 
1.762200e+00 4.857122e+01 
1.797880e+00 4.729708e+01 
1.833270e+00 4.608211e+01 
1.869070e+00 4.489968e+01 
1.903200e+00 4.381417e+01 
1.937740e+00 4.275485e+01 
1.973190e+00 4.170594e+01 
2.007440e+00 4.072859e+01 
2.042160e+00 3.977167e+01 
2.077900e+00 3.882009e+01 
2.112390e+00 3.793386e+01 
2.146220e+00 3.709154e+01 
2.181600e+00 3.623925e+01 
2.216930e+00 3.541663e+01 
2.250760e+00 3.465410e+01 
2.286500e+00 3.387404e+01 
2.321770e+00 3.312902e+01 
2.355950e+00 3.242905e+01 
2.391280e+00 3.172662e+01 
2.426240e+00 3.105282e+01 
2.460670e+00 3.040955e+01 
2.495640e+00 2.977615e+01 
2.531080e+00 2.915159e+01 
2.566220e+00 2.855067e+01 
2.600830e+00 2.797621e+01 
2.635080e+00 2.742408e+01 
2.670340e+00 2.687051e+01 
2.705970e+00 2.632735e+01 
2.740040e+00 2.582267e+01 
2.774520e+00 2.532485e+01 
2.809730e+00 2.483016e+01 
2.844390e+00 2.435677e+01 
2.879960e+00 2.388371e+01 
2.914860e+00 2.343176e+01 
2.949410e+00 2.299644e+01 
2.984440e+00 2.256586e+01 
3.019760e+00 2.214318e+01 
3.054730e+00 2.173601e+01 
3.089030e+00 2.134553e+01 
3.124060e+00 2.095716e+01 
3.159560e+00 2.057357e+01 
3.194710e+00 2.020300e+01 
3.229010e+00 1.985074e+01 
3.263320e+00 1.950592e+01 
3.297930e+00 1.916686e+01 
3.332830e+00 1.883301e+01 
3.368040e+00 1.850419e+01 
3.403300e+00 1.818292e+01 
3.438450e+00 1.786991e+01 
3.473060e+00 1.756940e+01 
3.508440e+00 1.726875e+01 
3.543110e+00 1.698143e+01 
3.577470e+00 1.670263e+01 
3.613040e+00 1.642091e+01 
3.648120e+00 1.614915e+01 
3.682910e+00 1.588589e+01 
3.718050e+00 1.562575e+01 
3.753320e+00 1.537067e+01 
3.787980e+00 1.512552e+01 
3.822290e+00 1.488815e+01 
3.857020e+00 1.465287e+01 
3.891920e+00 1.442164e+01 
3.926650e+00 1.419626e+01 
3.961970e+00 1.397217e+01 
3.997360e+00 1.375238e+01 
4.031670e+00 1.354400e+01 
4.066330e+00 1.333765e+01 
4.101420e+00 1.313337e+01 
4.136200e+00 1.293478e+01 
4.170810e+00 1.274148e+01 
4.206250e+00 1.254742e+01 
4.241580e+00 1.235812e+01 
4.276300e+00 1.217581e+01 
4.310970e+00 1.199746e+01 
4.346120e+00 1.182037e+01 
4.380600e+00 1.165012e+01 
4.414730e+00 1.148505e+01 
4.450350e+00 1.131598e+01 
4.485320e+00 1.115347e+01 
4.519810e+00 1.099623e+01 
4.555430e+00 1.083706e+01 
4.590870e+00 1.068189e+01 
4.625480e+00 1.053330e+01 
4.659910e+00 1.038840e+01 
4.695230e+00 1.024249e+01 
4.729960e+00 1.010182e+01 
4.764450e+00 9.964757e+00 
4.799530e+00 9.827931e+00 
4.834910e+00 9.692624e+00 
4.869700e+00 9.562070e+00 
4.904370e+00 9.434425e+00 
4.939450e+00 9.307701e+00 
4.973940e+00 9.185414e+00 
5.008430e+00 9.065388e+00 
5.043810e+00 8.944478e+00 
5.078840e+00 8.826949e+00 
5.113500e+00 8.712794e+00 
5.148890e+00 8.598379e+00 
5.184210e+00 8.486289e+00 
5.219060e+00 8.377694e+00 
5.253660e+00 8.271801e+00 
5.288570e+00 8.166854e+00 
5.323420e+00 8.063960e+00 
5.358440e+00 7.962409e+00 
5.393590e+00 7.862273e+00 
5.428310e+00 7.765124e+00 
5.462800e+00 7.670294e+00 
5.497640e+00 7.576138e+00 
5.532670e+00 7.483124e+00 
5.567280e+00 7.392796e+00 
5.602000e+00 7.303701e+00 
5.637270e+00 7.214810e+00 
5.672410e+00 7.127758e+00 
5.707020e+00 7.043443e+00 
5.742040e+00 6.959609e+00 
5.777430e+00 6.876307e+00 
5.812210e+00 6.795785e+00 
5.846820e+00 6.717028e+00 
5.881610e+00 6.639151e+00 
5.916510e+00 6.562282e+00 
5.951600e+00 6.486316e+00 
5.986560e+00 6.411876e+00 
6.021830e+00 6.337971e+00 
6.056490e+00 6.266568e+00 
6.091160e+00 6.196323e+00 
6.125830e+00 6.127163e+00 
6.161090e+00 6.057962e+00 
6.195760e+00 5.991065e+00 
6.230420e+00 5.925204e+00 
6.265690e+00 5.859212e+00 
6.300950e+00 5.794375e+00 
6.335620e+00 5.731586e+00 
6.370880e+00 5.668687e+00 
6.405550e+00 5.607878e+00 
6.440220e+00 5.548013e+00 
6.475480e+00 5.488029e+00 
6.510150e+00 5.429953e+00 
6.544810e+00 5.372820e+00 
6.580080e+00 5.315528e+00 
6.614750e+00 5.260027e+00 
6.649410e+00 5.205503e+00 
6.684080e+00 5.151771e+00 
6.719340e+00 5.097905e+00 
6.754010e+00 5.045732e+00 
6.788680e+00 4.994383e+00 
6.823940e+00 4.942895e+00 
6.859800e+00 4.891277e+00 
6.894470e+00 4.842189e+00 
6.929140e+00 4.793818e+00 
6.963800e+00 4.746122e+00 
6.999070e+00 4.698262e+00 
7.033730e+00 4.651991e+00 
7.068400e+00 4.606331e+00 
7.103660e+00 4.560522e+00 
7.138330e+00 4.516144e+00 
7.173600e+00 4.471724e+00 
7.208260e+00 4.428654e+00 
7.243530e+00 4.385407e+00 
7.277600e+00 4.344262e+00 
7.312860e+00 4.302308e+00 
7.348120e+00 4.260909e+00 
7.382790e+00 4.220732e+00 
7.417460e+00 4.181167e+00 
7.452720e+00 4.141495e+00 
7.487390e+00 4.102989e+00 
7.522650e+00 4.064329e+00 
7.557320e+00 4.026903e+00 
7.591990e+00 3.989985e+00 
7.627250e+00 3.952912e+00 
7.662510e+00 3.916309e+00 
7.697180e+00 3.880876e+00 
7.731850e+00 3.845920e+00 
7.766510e+00 3.811405e+00 
7.801180e+00 3.777302e+00 
7.836440e+00 3.743144e+00 
7.871110e+00 3.710031e+00 
7.906380e+00 3.676755e+00 
7.941040e+00 3.644451e+00 
7.976310e+00 3.612028e+00 
8.011570e+00 3.580070e+00 
8.046240e+00 3.549022e+00 
8.080900e+00 3.518351e+00 
8.115570e+00 3.488060e+00 
8.150830e+00 3.457728e+00 
8.185500e+00 3.428254e+00 
8.220770e+00 3.398622e+00 
8.255430e+00 3.369842e+00 
8.290100e+00 3.341498e+00 
8.324770e+00 3.313492e+00 
8.359430e+00 3.285814e+00 
8.394700e+00 3.257973e+00 
8.429960e+00 3.230528e+00 
8.464630e+00 3.203919e+00 
8.499890e+00 3.177164e+00 
8.534560e+00 3.151153e+00 
8.569200e+00 3.125456e+00 
