# Parameters:
# omega_b = 0.021941, omega_m = 0.153346, n_s = 1.029528, h = 74.370079, w = -1.000000, sigma_8 = 0.766142
# z = 1.100000
#
# k[1/Mpc] # P(k):
8.694000e-04 2.467813e+03 
2.077466e-03 5.624524e+03 
3.285532e-03 8.277150e+03 
4.493598e-03 1.045271e+04 
5.701664e-03 1.218413e+04 
6.909730e-03 1.351751e+04 
8.117797e-03 1.452259e+04 
9.325863e-03 1.523464e+04 
1.053393e-02 1.569363e+04 
1.174199e-02 1.593912e+04 
1.295006e-02 1.599622e+04 
1.415813e-02 1.590105e+04 
1.536619e-02 1.568443e+04 
1.657426e-02 1.536464e+04 
1.778233e-02 1.494042e+04 
1.899039e-02 1.442453e+04 
2.019846e-02 1.387206e+04 
2.140652e-02 1.333040e+04 
2.261459e-02 1.279958e+04 
2.382266e-02 1.228286e+04 
2.503072e-02 1.178834e+04 
2.623879e-02 1.132088e+04 
2.744685e-02 1.088305e+04 
2.865492e-02 1.047878e+04 
2.986299e-02 1.010862e+04 
3.100100e-02 9.791429e+03 
3.220400e-02 9.488637e+03 
3.288100e-02 9.333040e+03 
3.424300e-02 9.049478e+03 
3.555100e-02 8.809821e+03 
3.686000e-02 8.599163e+03 
3.795000e-02 8.442169e+03 
3.929100e-02 8.269789e+03 
4.039800e-02 8.139911e+03 
4.164000e-02 8.003395e+03 
4.294400e-02 7.865429e+03 
4.415000e-02 7.740329e+03 
4.542900e-02 7.603506e+03 
4.660900e-02 7.474419e+03 
4.782300e-02 7.330004e+03 
4.892900e-02 7.192370e+03 
5.031200e-02 7.008429e+03 
5.155900e-02 6.830080e+03 
5.238100e-02 6.707202e+03 
5.378200e-02 6.489738e+03 
5.513400e-02 6.270509e+03 
5.627600e-02 6.080492e+03 
5.735300e-02 5.899664e+03 
5.870100e-02 5.673407e+03 
5.988700e-02 5.477426e+03 
6.113500e-02 5.276227e+03 
6.225900e-02 5.101615e+03 
6.340100e-02 4.932783e+03 
6.480200e-02 4.738974e+03 
6.601100e-02 4.585743e+03 
6.725500e-02 4.442094e+03 
6.829100e-02 4.334541e+03 
6.958600e-02 4.212494e+03 
7.071100e-02 4.118585e+03 
7.192300e-02 4.028340e+03 
7.307400e-02 3.952129e+03 
7.412300e-02 3.889773e+03 
7.550400e-02 3.817493e+03 
7.663100e-02 3.764441e+03 
7.791200e-02 3.710834e+03 
7.912700e-02 3.664459e+03 
8.027600e-02 3.623109e+03 
8.138400e-02 3.584711e+03 
8.272200e-02 3.539311e+03 
8.406100e-02 3.493852e+03 
8.534100e-02 3.448854e+03 
8.653800e-02 3.404589e+03 
8.759800e-02 3.363965e+03 
8.900300e-02 3.307400e+03 
9.009000e-02 3.260948e+03 
9.113300e-02 3.213701e+03 
9.239600e-02 3.154746e+03 
9.358000e-02 3.096961e+03 
9.496100e-02 3.026046e+03 
9.608400e-02 2.967251e+03 
9.727500e-02 2.904463e+03 
9.852600e-02 2.836007e+03 
9.973800e-02 2.770388e+03 
1.009000e-01 2.708264e+03 
1.020900e-01 2.645004e+03 
1.034000e-01 2.577570e+03 
1.046000e-01 2.517803e+03 
1.057200e-01 2.464736e+03 
1.069100e-01 2.410620e+03 
1.082500e-01 2.353794e+03 
1.093900e-01 2.308843e+03 
1.105400e-01 2.265850e+03 
1.116900e-01 2.227239e+03 
1.129600e-01 2.186952e+03 
1.142000e-01 2.151926e+03 
1.153300e-01 2.122193e+03 
1.166400e-01 2.090734e+03 
1.177800e-01 2.065904e+03 
1.190000e-01 2.040841e+03 
1.201200e-01 2.019914e+03 
1.213400e-01 1.997933e+03 
1.227100e-01 1.975050e+03 
1.238900e-01 1.955869e+03 
1.250700e-01 1.937119e+03 
1.263200e-01 1.917446e+03 
1.275500e-01 1.897914e+03 
1.287500e-01 1.878659e+03 
1.299900e-01 1.858199e+03 
1.311300e-01 1.838899e+03 
1.323500e-01 1.817325e+03 
1.335900e-01 1.794803e+03 
1.347100e-01 1.773461e+03 
1.359800e-01 1.748868e+03 
1.372100e-01 1.723749e+03 
1.384300e-01 1.698727e+03 
1.395700e-01 1.674263e+03 
1.407700e-01 1.648910e+03 
1.420300e-01 1.621256e+03 
1.432800e-01 1.594467e+03 
1.444500e-01 1.569093e+03 
1.456300e-01 1.544066e+03 
1.468900e-01 1.518084e+03 
1.480500e-01 1.494737e+03 
1.491700e-01 1.473061e+03 
1.503800e-01 1.450638e+03 
1.516400e-01 1.428088e+03 
1.528200e-01 1.408679e+03 
1.540200e-01 1.389340e+03 
1.551900e-01 1.372291e+03 
1.564300e-01 1.354924e+03 
1.576600e-01 1.338785e+03 
1.588700e-01 1.324112e+03 
1.600900e-01 1.309659e+03 
1.612700e-01 1.297123e+03 
1.625400e-01 1.283880e+03 
1.637600e-01 1.271765e+03 
1.649500e-01 1.260376e+03 
1.662200e-01 1.248438e+03 
1.674000e-01 1.237527e+03 
1.685000e-01 1.227523e+03 
1.697500e-01 1.216060e+03 
1.710300e-01 1.204245e+03 
1.722200e-01 1.193455e+03 
1.734400e-01 1.181699e+03 
1.746400e-01 1.170298e+03 
1.758700e-01 1.158499e+03 
1.770900e-01 1.146363e+03 
1.782700e-01 1.134822e+03 
1.794600e-01 1.122902e+03 
1.807000e-01 1.110373e+03 
1.819100e-01 1.098357e+03 
1.830100e-01 1.087193e+03 
1.842200e-01 1.075039e+03 
1.855000e-01 1.062396e+03 
1.867000e-01 1.050549e+03 
1.879200e-01 1.038707e+03 
1.890900e-01 1.027550e+03 
1.902800e-01 1.016451e+03 
1.915200e-01 1.005077e+03 
1.926900e-01 9.945843e+02 
1.939000e-01 9.841170e+02 
1.951700e-01 9.733102e+02 
1.963100e-01 9.638540e+02 
1.975100e-01 9.542945e+02 
1.987800e-01 9.443376e+02 
2.000100e-01 9.349540e+02 
2.012500e-01 9.258881e+02 
2.023400e-01 9.180347e+02 
2.036100e-01 9.090742e+02 
2.048900e-01 9.004014e+02 
2.060400e-01 8.927246e+02 
2.072200e-01 8.849717e+02 
2.084200e-01 8.773594e+02 
2.096900e-01 8.694216e+02 
2.109200e-01 8.618474e+02 
2.121100e-01 8.546842e+02 
2.132700e-01 8.478006e+02 
2.145200e-01 8.404868e+02 
2.157200e-01 8.335724e+02 
2.168800e-01 8.269827e+02 
2.180700e-01 8.203133e+02 
2.193400e-01 8.132854e+02 
2.206000e-01 8.063948e+02 
2.217500e-01 8.001909e+02 
2.229500e-01 7.938023e+02 
2.241400e-01 7.875338e+02 
2.253500e-01 7.812442e+02 
2.264900e-01 7.753950e+02 
2.277100e-01 7.692213e+02 
2.289900e-01 7.628377e+02 
2.301500e-01 7.571290e+02 
2.313600e-01 7.512506e+02 
2.325600e-01 7.455384e+02 
2.337700e-01 7.398524e+02 
2.350000e-01 7.341471e+02 
2.362000e-01 7.286851e+02 
2.374100e-01 7.232861e+02 
2.386500e-01 7.178237e+02 
2.399100e-01 7.123450e+02 
2.410400e-01 7.075513e+02 
2.422500e-01 7.024871e+02 
2.435000e-01 6.973210e+02 
2.447300e-01 6.923140e+02 
2.458700e-01 6.877793e+02 
2.470600e-01 6.831008e+02 
2.483300e-01 6.781690e+02 
2.495600e-01 6.734626e+02 
2.507600e-01 6.689410e+02 
2.519600e-01 6.644726e+02 
2.532200e-01 6.598370e+02 
2.543700e-01 6.556555e+02 
2.555500e-01 6.514131e+02 
2.568000e-01 6.469715e+02 
2.580100e-01 6.427226e+02 
2.592400e-01 6.384318e+02 
2.604100e-01 6.343872e+02 
2.616100e-01 6.302853e+02 
2.628400e-01 6.261288e+02 
2.640600e-01 6.220171e+02 
2.652200e-01 6.181366e+02 
2.664300e-01 6.141333e+02 
2.676500e-01 6.101424e+02 
2.688400e-01 6.062602e+02 
2.700700e-01 6.022716e+02 
2.712400e-01 5.985193e+02 
2.724800e-01 5.945860e+02 
2.736700e-01 5.908295e+02 
2.748800e-01 5.870270e+02 
2.761000e-01 5.832351e+02 
2.773200e-01 5.794846e+02 
2.785400e-01 5.757630e+02 
2.797000e-01 5.722369e+02 
2.808900e-01 5.686573e+02 
2.821400e-01 5.649376e+02 
2.833900e-01 5.612576e+02 
2.845500e-01 5.578505e+02 
2.857800e-01 5.542754e+02 
2.870300e-01 5.506814e+02 
2.882100e-01 5.473244e+02 
2.893900e-01 5.439895e+02 
2.906300e-01 5.405150e+02 
2.918900e-01 5.370223e+02 
2.930500e-01 5.338399e+02 
2.942500e-01 5.305776e+02 
2.954200e-01 5.274187e+02 
2.966500e-01 5.241314e+02 
2.978900e-01 5.208517e+02 
2.990400e-01 5.178405e+02 
3.002700e-01 5.146455e+02 
3.015100e-01 5.114546e+02 
3.026800e-01 5.084738e+02 
3.038500e-01 5.055217e+02 
3.050300e-01 5.025730e+02 
3.062600e-01 4.995252e+02 
3.075000e-01 4.964836e+02 
3.087000e-01 4.935692e+02 
3.099100e-01 4.906590e+02 
3.111200e-01 4.877777e+02 
3.123100e-01 4.849723e+02 
3.135300e-01 4.821238e+02 
3.147300e-01 4.793489e+02 
3.159900e-01 4.764637e+02 
3.171800e-01 4.737664e+02 
3.183700e-01 4.710953e+02 
3.196300e-01 4.682941e+02 
3.208400e-01 4.656300e+02 
3.220300e-01 4.630343e+02 
3.232000e-01 4.605099e+02 
3.244300e-01 4.578822e+02 
3.256700e-01 4.552583e+02 
3.269200e-01 4.526384e+02 
3.280800e-01 4.502294e+02 
3.292500e-01 4.478281e+02 
3.304800e-01 4.453286e+02 
3.317100e-01 4.428523e+02 
3.328900e-01 4.404981e+02 
3.340700e-01 4.381647e+02 
3.353600e-01 4.356451e+02 
3.365300e-01 4.333836e+02 
3.377100e-01 4.311227e+02 
3.389200e-01 4.288246e+02 
3.401600e-01 4.264908e+02 
3.413700e-01 4.242429e+02 
3.425300e-01 4.221128e+02 
3.437700e-01 4.198557e+02 
3.449800e-01 4.176726e+02 
3.461800e-01 4.155264e+02 
3.473600e-01 4.134378e+02 
3.485800e-01 4.113063e+02 
3.498100e-01 4.091760e+02 
3.510200e-01 4.070984e+02 
3.522000e-01 4.050895e+02 
3.533900e-01 4.030805e+02 
3.546400e-01 4.010022e+02 
3.558400e-01 3.990248e+02 
3.570600e-01 3.970314e+02 
3.582700e-01 3.950711e+02 
3.595000e-01 3.930951e+02 
3.607100e-01 3.911750e+02 
3.618900e-01 3.893237e+02 
3.631200e-01 3.874098e+02 
3.643200e-01 3.855580e+02 
3.655500e-01 3.836756e+02 
3.667300e-01 3.818845e+02 
3.679500e-01 3.800620e+02 
3.691900e-01 3.782250e+02 
3.703600e-01 3.765056e+02 
3.715700e-01 3.747415e+02 
3.727700e-01 3.730061e+02 
3.739900e-01 3.712607e+02 
3.752000e-01 3.695524e+02 
3.763900e-01 3.678855e+02 
3.775800e-01 3.662316e+02 
3.788200e-01 3.645219e+02 
3.800300e-01 3.628669e+02 
3.812100e-01 3.612713e+02 
3.824200e-01 3.596516e+02 
3.836100e-01 3.580710e+02 
3.848600e-01 3.564237e+02 
3.860400e-01 3.548808e+02 
3.872400e-01 3.533236e+02 
3.884600e-01 3.517606e+02 
3.896500e-01 3.502506e+02 
3.908700e-01 3.487143e+02 
3.920600e-01 3.472272e+02 
3.933100e-01 3.456771e+02 
3.945300e-01 3.441759e+02 
3.957200e-01 3.427301e+02 
3.969300e-01 3.412731e+02 
3.981700e-01 3.397913e+02 
3.993500e-01 3.383918e+02 
4.094840e-01 3.267963e+02 
4.272360e-01 3.082657e+02 
4.454600e-01 2.911835e+02 
4.630560e-01 2.762686e+02 
4.804610e-01 2.628250e+02 
4.980690e-01 2.503747e+02 
5.159230e-01 2.387900e+02 
5.317440e-01 2.293055e+02 
5.489640e-01 2.197413e+02 
5.671990e-01 2.103951e+02 
5.838690e-01 2.024842e+02 
6.018840e-01 1.945575e+02 
6.202330e-01 1.870932e+02 
6.379250e-01 1.804091e+02 
6.545410e-01 1.745766e+02 
6.714560e-01 1.690180e+02 
6.892080e-01 1.635710e+02 
7.066010e-01 1.585901e+02 
7.240540e-01 1.539018e+02 
7.420450e-01 1.493819e+02 
7.593780e-01 1.452934e+02 
7.764720e-01 1.414906e+02 
7.942840e-01 1.377544e+02 
8.116170e-01 1.343249e+02 
8.288310e-01 1.311035e+02 
8.462240e-01 1.280145e+02 
8.631980e-01 1.251507e+02 
8.810700e-01 1.222822e+02 
8.989410e-01 1.195544e+02 
9.166330e-01 1.169796e+02 
9.345640e-01 1.144893e+02 
9.515980e-01 1.122266e+02 
9.688720e-01 1.100262e+02 
9.865640e-01 1.078643e+02 
1.031870e+00 1.027038e+02 
1.063490e+00 9.938630e+01 
1.097920e+00 9.600950e+01 
1.134370e+00 9.266386e+01 
1.167730e+00 8.979357e+01 
1.203830e+00 8.686095e+01 
1.240470e+00 8.406084e+01 
1.275790e+00 8.150512e+01 
1.309140e+00 7.922028e+01 
1.342970e+00 7.700301e+01 
1.378420e+00 7.479706e+01 
1.413200e+00 7.273035e+01 
1.448110e+00 7.074688e+01 
1.484090e+00 6.879787e+01 
1.518820e+00 6.699569e+01 
1.552880e+00 6.529731e+01 
1.588630e+00 6.358669e+01 
1.623230e+00 6.199957e+01 
1.657720e+00 6.047866e+01 
1.692450e+00 5.900516e+01 
1.726400e+00 5.761410e+01 
1.762200e+00 5.620099e+01 
1.797880e+00 5.484480e+01 
1.833270e+00 5.354885e+01 
1.869070e+00 5.228360e+01 
1.903200e+00 5.111885e+01 
1.937740e+00 4.997953e+01 
1.973190e+00 4.884844e+01 
2.007440e+00 4.779167e+01 
2.042160e+00 4.675404e+01 
2.077900e+00 4.571993e+01 
2.112390e+00 4.475440e+01 
2.146220e+00 4.383452e+01 
2.181600e+00 4.290135e+01 
2.216930e+00 4.199833e+01 
2.250760e+00 4.115950e+01 
2.286500e+00 4.029961e+01 
2.321770e+00 3.947648e+01 
2.355950e+00 3.870124e+01 
2.391280e+00 3.792130e+01 
2.426240e+00 3.717154e+01 
2.460670e+00 3.645438e+01 
2.495640e+00 3.574694e+01 
2.531080e+00 3.504768e+01 
2.566220e+00 3.437345e+01 
2.600830e+00 3.372766e+01 
2.635080e+00 3.310584e+01 
2.670340e+00 3.248059e+01 
2.705970e+00 3.186614e+01 
2.740040e+00 3.129441e+01 
2.774520e+00 3.072949e+01 
2.809730e+00 3.016677e+01 
2.844390e+00 2.962735e+01 
2.879960e+00 2.908723e+01 
2.914860e+00 2.857034e+01 
2.949410e+00 2.807183e+01 
2.984440e+00 2.757758e+01 
3.019760e+00 2.709174e+01 
3.054730e+00 2.662323e+01 
3.089030e+00 2.617262e+01 
3.124060e+00 2.572399e+01 
3.159560e+00 2.528028e+01 
3.194710e+00 2.485077e+01 
3.229010e+00 2.444204e+01 
3.263320e+00 2.404101e+01 
3.297930e+00 2.364629e+01 
3.332830e+00 2.325702e+01 
3.368040e+00 2.287308e+01 
3.403300e+00 2.249754e+01 
3.438450e+00 2.213089e+01 
3.473060e+00 2.177859e+01 
3.508440e+00 2.142542e+01 
3.543110e+00 2.108765e+01 
3.577470e+00 2.075920e+01 
3.613040e+00 2.042707e+01 
3.648120e+00 2.010625e+01 
3.682910e+00 1.979514e+01 
3.718050e+00 1.948721e+01 
3.753320e+00 1.918496e+01 
3.787980e+00 1.889406e+01 
3.822290e+00 1.861211e+01 
3.857020e+00 1.833228e+01 
3.891920e+00 1.805698e+01 
3.926650e+00 1.778826e+01 
3.961970e+00 1.752087e+01 
3.997360e+00 1.725826e+01 
4.031670e+00 1.700910e+01 
4.066330e+00 1.676190e+01 
4.101420e+00 1.651710e+01 
4.136200e+00 1.627874e+01 
4.170810e+00 1.604665e+01 
4.206250e+00 1.581333e+01 
4.241580e+00 1.558562e+01 
4.276300e+00 1.536597e+01 
4.310970e+00 1.515087e+01 
4.346120e+00 1.493712e+01 
4.380600e+00 1.473139e+01 
4.414730e+00 1.453186e+01 
4.450350e+00 1.432716e+01 
4.485320e+00 1.413033e+01 
4.519810e+00 1.393962e+01 
4.555430e+00 1.374643e+01 
4.590870e+00 1.355796e+01 
4.625480e+00 1.337726e+01 
4.659910e+00 1.320099e+01 
4.695230e+00 1.302324e+01 
4.729960e+00 1.285179e+01 
4.764450e+00 1.268460e+01 
4.799530e+00 1.251750e+01 
4.834910e+00 1.235222e+01 
4.869700e+00 1.219253e+01 
4.904370e+00 1.203633e+01 
4.939450e+00 1.188115e+01 
4.973940e+00 1.173123e+01 
5.008430e+00 1.158404e+01 
5.043810e+00 1.143562e+01 
5.078840e+00 1.129125e+01 
5.113500e+00 1.115099e+01 
5.148890e+00 1.101018e+01 
5.184210e+00 1.087217e+01 
5.219060e+00 1.073840e+01 
5.253660e+00 1.060782e+01 
5.288570e+00 1.047838e+01 
5.323420e+00 1.035136e+01 
5.358440e+00 1.022589e+01 
5.393590e+00 1.010214e+01 
5.428310e+00 9.981949e+00 
5.462800e+00 9.864547e+00 
5.497640e+00 9.747946e+00 
5.532670e+00 9.632632e+00 
5.567280e+00 9.520585e+00 
5.602000e+00 9.410040e+00 
5.637270e+00 9.299621e+00 
5.672410e+00 9.191438e+00 
5.707020e+00 9.086629e+00 
5.742040e+00 8.982290e+00 
5.777430e+00 8.878566e+00 
5.812210e+00 8.778280e+00 
5.846820e+00 8.680073e+00 
5.881610e+00 8.582918e+00 
5.916510e+00 8.486996e+00 
5.951600e+00 8.392107e+00 
5.986560e+00 8.299069e+00 
6.021830e+00 8.206678e+00 
6.056490e+00 8.117345e+00 
6.091160e+00 8.029397e+00 
6.125830e+00 7.942788e+00 
6.161090e+00 7.856072e+00 
6.195760e+00 7.772149e+00 
6.230420e+00 7.689508e+00 
6.265690e+00 7.606679e+00 
6.300950e+00 7.525195e+00 
6.335620e+00 7.446266e+00 
6.370880e+00 7.367183e+00 
6.405550e+00 7.290648e+00 
6.440220e+00 7.215256e+00 
6.475480e+00 7.139700e+00 
6.510150e+00 7.066505e+00 
6.544810e+00 6.994423e+00 
6.580080e+00 6.922125e+00 
6.614750e+00 6.852073e+00 
6.649410e+00 6.783170e+00 
6.684080e+00 6.715241e+00 
6.719340e+00 6.647128e+00 
6.754010e+00 6.581116e+00 
6.788680e+00 6.516067e+00 
6.823940e+00 6.450829e+00 
6.859800e+00 6.385413e+00 
6.894470e+00 6.323137e+00 
6.929140e+00 6.261739e+00 
6.963800e+00 6.201187e+00 
6.999070e+00 6.140411e+00 
7.033730e+00 6.081577e+00 
7.068400e+00 6.023509e+00 
7.103660e+00 5.965243e+00 
7.138330e+00 5.908760e+00 
7.173600e+00 5.852155e+00 
7.208260e+00 5.797263e+00 
7.243530e+00 5.742137e+00 
7.277600e+00 5.689637e+00 
7.312860e+00 5.636058e+00 
7.348120e+00 5.583178e+00 
7.382790e+00 5.531853e+00 
7.417460e+00 5.481256e+00 
7.452720e+00 5.430494e+00 
7.487390e+00 5.381217e+00 
7.522650e+00 5.331735e+00 
7.557320e+00 5.283768e+00 
7.591990e+00 5.236426e+00 
7.627250e+00 5.188879e+00 
7.662510e+00 5.141929e+00 
7.697180e+00 5.096424e+00 
7.731850e+00 5.051509e+00 
7.766510e+00 5.007154e+00 
7.801180e+00 4.963323e+00 
7.836440e+00 4.919376e+00 
7.871110e+00 4.876741e+00 
7.906380e+00 4.833891e+00 
7.941040e+00 4.792289e+00 
7.976310e+00 4.750495e+00 
8.011570e+00 4.709255e+00 
8.046240e+00 4.669187e+00 
8.080900e+00 4.629600e+00 
8.115570e+00 4.590489e+00 
8.150830e+00 4.551272e+00 
8.185500e+00 4.513162e+00 
8.220770e+00 4.474843e+00 
8.255430e+00 4.437623e+00 
8.290100e+00 4.400899e+00 
8.324770e+00 4.364602e+00 
8.359430e+00 4.328728e+00 
8.394700e+00 4.292638e+00 
8.429960e+00 4.257031e+00 
8.464630e+00 4.222476e+00 
8.499890e+00 4.187729e+00 
8.534560e+00 4.153947e+00 
8.569200e+00 4.120568e+00 
