# Parameters:
# omega_b = 0.023059, omega_m = 0.122205, n_s = 0.963386, h = 66.338583, w = -1.000000, sigma_8 = 0.838583
# z = 1.100000
#
# k[1/Mpc] # P(k):
8.694000e-04 9.715780e+03 
2.077466e-03 2.043422e+04 
3.285532e-03 2.847645e+04 
4.493598e-03 3.437815e+04 
5.701664e-03 3.849696e+04 
6.909730e-03 4.117239e+04 
8.117797e-03 4.275851e+04 
9.325863e-03 4.343596e+04 
1.053393e-02 4.337689e+04 
1.174199e-02 4.273485e+04 
1.295006e-02 4.161034e+04 
1.415813e-02 4.013485e+04 
1.536619e-02 3.841958e+04 
1.657426e-02 3.654667e+04 
1.778233e-02 3.461603e+04 
1.899039e-02 3.275663e+04 
2.019846e-02 3.095512e+04 
2.140652e-02 2.919821e+04 
2.261459e-02 2.751961e+04 
2.382266e-02 2.595818e+04 
2.503072e-02 2.453016e+04 
2.623879e-02 2.323682e+04 
2.744685e-02 2.207834e+04 
2.865492e-02 2.104799e+04 
2.986299e-02 2.013584e+04 
3.100100e-02 1.937908e+04 
3.220400e-02 1.867475e+04 
3.288100e-02 1.831929e+04 
3.424300e-02 1.767829e+04 
3.555100e-02 1.713919e+04 
3.686000e-02 1.666173e+04 
3.795000e-02 1.629996e+04 
3.929100e-02 1.588854e+04 
4.039800e-02 1.556605e+04 
4.164000e-02 1.521502e+04 
4.294400e-02 1.484363e+04 
4.415000e-02 1.449953e+04 
4.542900e-02 1.411817e+04 
4.660900e-02 1.375969e+04 
4.782300e-02 1.336714e+04 
4.892900e-02 1.300195e+04 
5.031200e-02 1.253071e+04 
5.155900e-02 1.209341e+04 
5.238100e-02 1.180235e+04 
5.378200e-02 1.130544e+04 
5.513400e-02 1.082859e+04 
5.627600e-02 1.043314e+04 
5.735300e-02 1.007084e+04 
5.870100e-02 9.636066e+03 
5.988700e-02 9.274487e+03 
6.113500e-02 8.916711e+03 
6.225900e-02 8.616172e+03 
6.340100e-02 8.332519e+03 
6.480200e-02 8.012139e+03 
6.601100e-02 7.761805e+03 
6.725500e-02 7.527764e+03 
6.829100e-02 7.352228e+03 
6.958600e-02 7.152021e+03 
7.071100e-02 6.996909e+03 
7.192300e-02 6.846670e+03 
7.307400e-02 6.718548e+03 
7.412300e-02 6.612580e+03 
7.550400e-02 6.487614e+03 
7.663100e-02 6.394213e+03 
7.791200e-02 6.296790e+03 
7.912700e-02 6.209221e+03 
8.027600e-02 6.128334e+03 
8.138400e-02 6.050747e+03 
8.272200e-02 5.955643e+03 
8.406100e-02 5.857170e+03 
8.534100e-02 5.756569e+03 
8.653800e-02 5.656006e+03 
8.759800e-02 5.563245e+03 
8.900300e-02 5.434035e+03 
9.009000e-02 5.328680e+03 
9.113300e-02 5.223136e+03 
9.239600e-02 5.093371e+03 
9.358000e-02 4.969079e+03 
9.496100e-02 4.821893e+03 
9.608400e-02 4.703476e+03 
9.727500e-02 4.579974e+03 
9.852600e-02 4.452915e+03 
9.973800e-02 4.334776e+03 
1.009000e-01 4.225876e+03 
1.020900e-01 4.121959e+03 
1.034000e-01 4.014238e+03 
1.046000e-01 3.921874e+03 
1.057200e-01 3.844440e+03 
1.069100e-01 3.766908e+03 
1.082500e-01 3.689367e+03 
1.093900e-01 3.629807e+03 
1.105400e-01 3.573891e+03 
1.116900e-01 3.525138e+03 
1.129600e-01 3.474492e+03 
1.142000e-01 3.430475e+03 
1.153300e-01 3.392424e+03 
1.166400e-01 3.351076e+03 
1.177800e-01 3.316196e+03 
1.190000e-01 3.279865e+03 
1.201200e-01 3.245589e+03 
1.213400e-01 3.208826e+03 
1.227100e-01 3.164278e+03 
1.238900e-01 3.125754e+03 
1.250700e-01 3.084414e+03 
1.263200e-01 3.040122e+03 
1.275500e-01 2.994171e+03 
1.287500e-01 2.948809e+03 
1.299900e-01 2.900529e+03 
1.311300e-01 2.856058e+03 
1.323500e-01 2.807884e+03 
1.335900e-01 2.759548e+03 
1.347100e-01 2.716163e+03 
1.359800e-01 2.668080e+03 
1.372100e-01 2.622557e+03 
1.384300e-01 2.578738e+03 
1.395700e-01 2.539338e+03 
1.407700e-01 2.498930e+03 
1.420300e-01 2.458964e+03 
1.432800e-01 2.420230e+03 
1.444500e-01 2.386526e+03 
1.456300e-01 2.353243e+03 
1.468900e-01 2.319850e+03 
1.480500e-01 2.290159e+03 
1.491700e-01 2.262657e+03 
1.503800e-01 2.234303e+03 
1.516400e-01 2.205574e+03 
1.528200e-01 2.180047e+03 
1.540200e-01 2.154589e+03 
1.551900e-01 2.130722e+03 
1.564300e-01 2.106029e+03 
1.576600e-01 2.082091e+03 
1.588700e-01 2.059089e+03 
1.600900e-01 2.036324e+03 
1.612700e-01 2.014518e+03 
1.625400e-01 1.991488e+03 
1.637600e-01 1.969491e+03 
1.649500e-01 1.948255e+03 
1.662200e-01 1.925913e+03 
1.674000e-01 1.904999e+03 
1.685000e-01 1.885834e+03 
1.697500e-01 1.864105e+03 
1.710300e-01 1.841942e+03 
1.722200e-01 1.821711e+03 
1.734400e-01 1.800750e+03 
1.746400e-01 1.780472e+03 
1.758700e-01 1.759936e+03 
1.770900e-01 1.739685e+03 
1.782700e-01 1.720436e+03 
1.794600e-01 1.701269e+03 
1.807000e-01 1.681585e+03 
1.819100e-01 1.662710e+03 
1.830100e-01 1.645900e+03 
1.842200e-01 1.627720e+03 
1.855000e-01 1.608831e+03 
1.867000e-01 1.591691e+03 
1.879200e-01 1.574552e+03 
1.890900e-01 1.558442e+03 
1.902800e-01 1.542630e+03 
1.915200e-01 1.526420e+03 
1.926900e-01 1.511466e+03 
1.939000e-01 1.496559e+03 
1.951700e-01 1.481163e+03 
1.963100e-01 1.467644e+03 
1.975100e-01 1.453857e+03 
1.987800e-01 1.439494e+03 
2.000100e-01 1.425876e+03 
2.012500e-01 1.412531e+03 
2.023400e-01 1.400970e+03 
2.036100e-01 1.387715e+03 
2.048900e-01 1.374640e+03 
2.060400e-01 1.363067e+03 
2.072200e-01 1.351358e+03 
2.084200e-01 1.339612e+03 
2.096900e-01 1.327364e+03 
2.109200e-01 1.315678e+03 
2.121100e-01 1.304411e+03 
2.132700e-01 1.293574e+03 
2.145200e-01 1.282060e+03 
2.157200e-01 1.271049e+03 
2.168800e-01 1.260498e+03 
2.180700e-01 1.249820e+03 
2.193400e-01 1.238503e+03 
2.206000e-01 1.227286e+03 
2.217500e-01 1.217190e+03 
2.229500e-01 1.206794e+03 
2.241400e-01 1.196405e+03 
2.253500e-01 1.185978e+03 
2.264900e-01 1.176285e+03 
2.277100e-01 1.165936e+03 
2.289900e-01 1.155107e+03 
2.301500e-01 1.145426e+03 
2.313600e-01 1.135458e+03 
2.325600e-01 1.125507e+03 
2.337700e-01 1.115606e+03 
2.350000e-01 1.105676e+03 
2.362000e-01 1.096052e+03 
2.374100e-01 1.086396e+03 
2.386500e-01 1.076633e+03 
2.399100e-01 1.066846e+03 
2.410400e-01 1.058112e+03 
2.422500e-01 1.048867e+03 
2.435000e-01 1.039442e+03 
2.447300e-01 1.030292e+03 
2.458700e-01 1.021924e+03 
2.470600e-01 1.013296e+03 
2.483300e-01 1.004207e+03 
2.495600e-01 9.955528e+02 
2.507600e-01 9.872610e+02 
2.519600e-01 9.790720e+02 
2.532200e-01 9.705821e+02 
2.543700e-01 9.630174e+02 
2.555500e-01 9.554072e+02 
2.568000e-01 9.474442e+02 
2.580100e-01 9.398310e+02 
2.592400e-01 9.323182e+02 
2.604100e-01 9.253146e+02 
2.616100e-01 9.182149e+02 
2.628400e-01 9.110240e+02 
2.640600e-01 9.041129e+02 
2.652200e-01 8.976709e+02 
2.664300e-01 8.910273e+02 
2.676500e-01 8.844064e+02 
2.688400e-01 8.781282e+02 
2.700700e-01 8.717791e+02 
2.712400e-01 8.658073e+02 
2.724800e-01 8.595491e+02 
2.736700e-01 8.536781e+02 
2.748800e-01 8.478435e+02 
2.761000e-01 8.420258e+02 
2.773200e-01 8.362725e+02 
2.785400e-01 8.306131e+02 
2.797000e-01 8.253532e+02 
2.808900e-01 8.200139e+02 
2.821400e-01 8.144661e+02 
2.833900e-01 8.089821e+02 
2.845500e-01 8.039998e+02 
2.857800e-01 7.987720e+02 
2.870300e-01 7.935166e+02 
2.882100e-01 7.886079e+02 
2.893900e-01 7.837729e+02 
2.906300e-01 7.787577e+02 
2.918900e-01 7.737161e+02 
2.930500e-01 7.691224e+02 
2.942500e-01 7.644223e+02 
2.954200e-01 7.598991e+02 
2.966500e-01 7.551919e+02 
2.978900e-01 7.504956e+02 
2.990400e-01 7.461836e+02 
3.002700e-01 7.416241e+02 
3.015100e-01 7.370778e+02 
3.026800e-01 7.328307e+02 
3.038500e-01 7.286244e+02 
3.050300e-01 7.244231e+02 
3.062600e-01 7.200945e+02 
3.075000e-01 7.157744e+02 
3.087000e-01 7.116348e+02 
3.099100e-01 7.075013e+02 
3.111200e-01 7.034117e+02 
3.123100e-01 6.994350e+02 
3.135300e-01 6.953971e+02 
3.147300e-01 6.914635e+02 
3.159900e-01 6.873733e+02 
3.171800e-01 6.835547e+02 
3.183700e-01 6.797764e+02 
3.196300e-01 6.758141e+02 
3.208400e-01 6.720455e+02 
3.220300e-01 6.683735e+02 
3.232000e-01 6.648040e+02 
3.244300e-01 6.610891e+02 
3.256700e-01 6.573793e+02 
3.269200e-01 6.536750e+02 
3.280800e-01 6.502689e+02 
3.292500e-01 6.468757e+02 
3.304800e-01 6.433445e+02 
3.317100e-01 6.398459e+02 
3.328900e-01 6.365197e+02 
3.340700e-01 6.332227e+02 
3.353600e-01 6.296634e+02 
3.365300e-01 6.264691e+02 
3.377100e-01 6.232753e+02 
3.389200e-01 6.200290e+02 
3.401600e-01 6.167320e+02 
3.413700e-01 6.135551e+02 
3.425300e-01 6.105436e+02 
3.437700e-01 6.073524e+02 
3.449800e-01 6.042658e+02 
3.461800e-01 6.012312e+02 
3.473600e-01 5.982774e+02 
3.485800e-01 5.952616e+02 
3.498100e-01 5.922474e+02 
3.510200e-01 5.893078e+02 
3.522000e-01 5.864652e+02 
3.533900e-01 5.836224e+02 
3.546400e-01 5.806775e+02 
3.558400e-01 5.778755e+02 
3.570600e-01 5.750506e+02 
3.582700e-01 5.722725e+02 
3.595000e-01 5.694722e+02 
3.607100e-01 5.667492e+02 
3.618900e-01 5.641221e+02 
3.631200e-01 5.614063e+02 
3.643200e-01 5.587785e+02 
3.655500e-01 5.561072e+02 
3.667300e-01 5.535653e+02 
3.679500e-01 5.509747e+02 
3.691900e-01 5.483633e+02 
3.703600e-01 5.459192e+02 
3.715700e-01 5.434115e+02 
3.727700e-01 5.409444e+02 
3.739900e-01 5.384616e+02 
3.752000e-01 5.360285e+02 
3.763900e-01 5.336545e+02 
3.775800e-01 5.312990e+02 
3.788200e-01 5.288640e+02 
3.800300e-01 5.265068e+02 
3.812100e-01 5.242321e+02 
3.824200e-01 5.219218e+02 
3.836100e-01 5.196672e+02 
3.848600e-01 5.173175e+02 
3.860400e-01 5.151166e+02 
3.872400e-01 5.128954e+02 
3.884600e-01 5.106628e+02 
3.896500e-01 5.085049e+02 
3.908700e-01 5.063093e+02 
3.920600e-01 5.041840e+02 
3.933100e-01 5.019686e+02 
3.945300e-01 4.998231e+02 
3.957200e-01 4.977552e+02 
3.969300e-01 4.956708e+02 
3.981700e-01 4.935509e+02 
3.993500e-01 4.915487e+02 
4.094840e-01 4.749474e+02 
4.272360e-01 4.483836e+02 
4.454600e-01 4.238932e+02 
4.630560e-01 4.025227e+02 
4.804610e-01 3.832861e+02 
4.980690e-01 3.655050e+02 
5.159230e-01 3.489946e+02 
5.317440e-01 3.355027e+02 
5.489640e-01 3.219141e+02 
5.671990e-01 3.086607e+02 
5.838690e-01 2.974541e+02 
6.018840e-01 2.862248e+02 
6.202330e-01 2.756468e+02 
6.379250e-01 2.661787e+02 
6.545410e-01 2.579020e+02 
6.714560e-01 2.500006e+02 
6.892080e-01 2.422521e+02 
7.066010e-01 2.351397e+02 
7.240540e-01 2.284374e+02 
7.420450e-01 2.219446e+02 
7.593780e-01 2.160485e+02 
7.764720e-01 2.105463e+02 
7.942840e-01 2.051217e+02 
8.116170e-01 2.001152e+02 
8.288310e-01 1.953865e+02 
8.462240e-01 1.908335e+02 
8.631980e-01 1.865865e+02 
8.810700e-01 1.823154e+02 
8.989410e-01 1.782320e+02 
9.166330e-01 1.743584e+02 
9.345640e-01 1.705954e+02 
9.515980e-01 1.671535e+02 
9.688720e-01 1.637903e+02 
9.865640e-01 1.604675e+02 
1.031870e+00 1.524843e+02 
1.063490e+00 1.473026e+02 
1.097920e+00 1.419904e+02 
1.134370e+00 1.366958e+02 
1.167730e+00 1.321231e+02 
1.203830e+00 1.274292e+02 
1.240470e+00 1.229300e+02 
1.275790e+00 1.188065e+02 
1.309140e+00 1.151145e+02 
1.342970e+00 1.115237e+02 
1.378420e+00 1.079444e+02 
1.413200e+00 1.045881e+02 
1.448110e+00 1.013698e+02 
1.484090e+00 9.820337e+01 
1.518820e+00 9.527964e+01 
1.552880e+00 9.252765e+01 
1.588630e+00 8.976142e+01 
1.623230e+00 8.719572e+01 
1.657720e+00 8.474019e+01 
1.692450e+00 8.236975e+01 
1.726400e+00 8.013595e+01 
1.762200e+00 7.787008e+01 
1.797880e+00 7.570432e+01 
1.833270e+00 7.363694e+01 
1.869070e+00 7.162503e+01 
1.903200e+00 6.978024e+01 
1.937740e+00 6.798016e+01 
1.973190e+00 6.619757e+01 
2.007440e+00 6.453846e+01 
2.042160e+00 6.291600e+01 
2.077900e+00 6.130227e+01 
2.112390e+00 5.980226e+01 
2.146220e+00 5.837604e+01 
2.181600e+00 5.693563e+01 
2.216930e+00 5.554684e+01 
2.250760e+00 5.426066e+01 
2.286500e+00 5.294611e+01 
2.321770e+00 5.169202e+01 
2.355950e+00 5.051622e+01 
2.391280e+00 4.933725e+01 
2.426240e+00 4.820843e+01 
2.460670e+00 4.713226e+01 
2.495640e+00 4.607364e+01 
2.531080e+00 4.503097e+01 
2.566220e+00 4.402953e+01 
2.600830e+00 4.307387e+01 
2.635080e+00 4.215699e+01 
2.670340e+00 4.124001e+01 
2.705970e+00 4.034109e+01 
2.740040e+00 3.950659e+01 
2.774520e+00 3.868426e+01 
2.809730e+00 3.786930e+01 
2.844390e+00 3.709092e+01 
2.879960e+00 3.631476e+01 
2.914860e+00 3.557391e+01 
2.949410e+00 3.486127e+01 
2.984440e+00 3.415843e+01 
3.019760e+00 3.346899e+01 
3.054730e+00 3.280543e+01 
3.089030e+00 3.217147e+01 
3.124060e+00 3.154148e+01 
3.159560e+00 3.091982e+01 
3.194710e+00 3.032085e+01 
3.229010e+00 2.975230e+01 
3.263320e+00 2.919750e+01 
3.297930e+00 2.865239e+01 
3.332830e+00 2.811616e+01 
3.368040e+00 2.758918e+01 
3.403300e+00 2.707527e+01 
3.438450e+00 2.657588e+01 
3.473060e+00 2.609696e+01 
3.508440e+00 2.561876e+01 
3.543110e+00 2.516225e+01 
3.577470e+00 2.472070e+01 
3.613040e+00 2.427490e+01 
3.648120e+00 2.384539e+01 
3.682910e+00 2.342997e+01 
3.718050e+00 2.302051e+01 
3.753320e+00 2.261958e+01 
3.787980e+00 2.223497e+01 
3.822290e+00 2.186314e+01 
3.857020e+00 2.149536e+01 
3.891920e+00 2.113439e+01 
3.926650e+00 2.078330e+01 
3.961970e+00 2.043465e+01 
3.997360e+00 2.009347e+01 
4.031670e+00 1.977031e+01 
4.066330e+00 1.945101e+01 
4.101420e+00 1.913511e+01 
4.136200e+00 1.882884e+01 
4.170810e+00 1.853087e+01 
4.206250e+00 1.823232e+01 
4.241580e+00 1.794133e+01 
4.276300e+00 1.766176e+01 
4.310970e+00 1.738870e+01 
4.346120e+00 1.711789e+01 
4.380600e+00 1.685800e+01 
4.414730e+00 1.660616e+01 
4.450350e+00 1.634897e+01 
4.485320e+00 1.610186e+01 
4.519810e+00 1.586329e+01 
4.555430e+00 1.562208e+01 
4.590870e+00 1.538719e+01 
4.625480e+00 1.516267e+01 
4.659910e+00 1.494382e+01 
4.695230e+00 1.472402e+01 
4.729960e+00 1.451228e+01 
4.764450e+00 1.430624e+01 
4.799530e+00 1.410094e+01 
4.834910e+00 1.389800e+01 
4.869700e+00 1.370262e+01 
4.904370e+00 1.351171e+01 
4.939450e+00 1.332238e+01 
4.973940e+00 1.314004e+01 
5.008430e+00 1.296114e+01 
5.043810e+00 1.278122e+01 
5.078840e+00 1.260653e+01 
5.113500e+00 1.243690e+01 
5.148890e+00 1.226736e+01 
5.184210e+00 1.210133e+01 
5.219060e+00 1.194061e+01 
5.253660e+00 1.178417e+01 
5.288570e+00 1.162917e+01 
5.323420e+00 1.147739e+01 
5.358440e+00 1.132778e+01 
5.393590e+00 1.118030e+01 
5.428310e+00 1.103748e+01 
5.462800e+00 1.089822e+01 
5.497640e+00 1.075998e+01 
5.532670e+00 1.062368e+01 
5.567280e+00 1.049141e+01 
5.602000e+00 1.036099e+01 
5.637270e+00 1.023107e+01 
5.672410e+00 1.010391e+01 
5.707020e+00 9.980781e+00 
5.742040e+00 9.858596e+00 
5.777430e+00 9.737259e+00 
5.812210e+00 9.619995e+00 
5.846820e+00 9.505479e+00 
5.881610e+00 9.392306e+00 
5.916510e+00 9.280618e+00 
5.951600e+00 9.170407e+00 
5.986560e+00 9.062494e+00 
6.021830e+00 8.955375e+00 
6.056490e+00 8.852000e+00 
6.091160e+00 8.750398e+00 
6.125830e+00 8.650384e+00 
6.161090e+00 8.550375e+00 
6.195760e+00 8.453818e+00 
6.230420e+00 8.358770e+00 
6.265690e+00 8.263553e+00 
6.300950e+00 8.170168e+00 
6.335620e+00 8.079744e+00 
6.370880e+00 7.989176e+00 
6.405550e+00 7.901711e+00 
6.440220e+00 7.815648e+00 
6.475480e+00 7.729426e+00 
6.510150e+00 7.645997e+00 
6.544810e+00 7.564021e+00 
6.580080e+00 7.481828e+00 
6.614750e+00 7.402214e+00 
6.649410e+00 7.324084e+00 
6.684080e+00 7.247113e+00 
6.719340e+00 7.169959e+00 
6.754010e+00 7.095270e+00 
6.788680e+00 7.021842e+00 
6.823940e+00 6.948222e+00 
6.859800e+00 6.874424e+00 
6.894470e+00 6.804299e+00 
6.929140e+00 6.735222e+00 
6.963800e+00 6.667116e+00 
6.999070e+00 6.598786e+00 
7.033730e+00 6.532794e+00 
7.068400e+00 6.467678e+00 
7.103660e+00 6.402357e+00 
7.138330e+00 6.339099e+00 
7.173600e+00 6.275820e+00 
7.208260e+00 6.214470e+00 
7.243530e+00 6.152875e+00 
7.277600e+00 6.094305e+00 
7.312860e+00 6.034616e+00 
7.348120e+00 5.975720e+00 
7.382790e+00 5.918569e+00 
7.417460e+00 5.862320e+00 
7.452720e+00 5.805941e+00 
7.487390e+00 5.751222e+00 
7.522650e+00 5.696289e+00 
7.557320e+00 5.643129e+00 
7.591990e+00 5.590702e+00 
7.627250e+00 5.538059e+00 
7.662510e+00 5.486088e+00 
7.697180e+00 5.435802e+00 
7.731850e+00 5.386206e+00 
7.766510e+00 5.337238e+00 
7.801180e+00 5.288859e+00 
7.836440e+00 5.240410e+00 
7.871110e+00 5.193447e+00 
7.906380e+00 5.146258e+00 
7.941040e+00 5.100450e+00 
7.976310e+00 5.054486e+00 
8.011570e+00 5.009194e+00 
8.046240e+00 4.965197e+00 
8.080900e+00 4.921736e+00 
8.115570e+00 4.878818e+00 
8.150830e+00 4.835844e+00 
8.185500e+00 4.794089e+00 
8.220770e+00 4.752113e+00 
8.255430e+00 4.711348e+00 
8.290100e+00 4.671216e+00 
8.324770e+00 4.631568e+00 
8.359430e+00 4.592387e+00 
8.394700e+00 4.552977e+00 
8.429960e+00 4.514129e+00 
8.464630e+00 4.476462e+00 
8.499890e+00 4.438591e+00 
8.534560e+00 4.401777e+00 
8.569200e+00 4.365407e+00 
