# Parameters:
# omega_b = 0.022870, omega_m = 0.137913, n_s = 0.990157, h = 62.322835, w = -1.000000, sigma_8 = 0.829134
# z = 1.100000
#
# k[1/Mpc] # P(k):
8.694000e-04 5.753699e+03 
2.077466e-03 1.254335e+04 
3.285532e-03 1.791841e+04 
4.493598e-03 2.210031e+04 
5.701664e-03 2.523258e+04 
6.909730e-03 2.747467e+04 
8.117797e-03 2.901616e+04 
9.325863e-03 2.995315e+04 
1.053393e-02 3.038295e+04 
1.174199e-02 3.039616e+04 
1.295006e-02 3.005130e+04 
1.415813e-02 2.942915e+04 
1.536619e-02 2.859987e+04 
1.657426e-02 2.761535e+04 
1.778233e-02 2.653867e+04 
1.899039e-02 2.545621e+04 
2.019846e-02 2.436716e+04 
2.140652e-02 2.327076e+04 
2.261459e-02 2.219066e+04 
2.382266e-02 2.115705e+04 
2.503072e-02 2.018677e+04 
2.623879e-02 1.928569e+04 
2.744685e-02 1.845634e+04 
2.865492e-02 1.770085e+04 
2.986299e-02 1.701660e+04 
3.100100e-02 1.643523e+04 
3.220400e-02 1.588257e+04 
3.288100e-02 1.559852e+04 
3.424300e-02 1.507875e+04 
3.555100e-02 1.463495e+04 
3.686000e-02 1.423799e+04 
3.795000e-02 1.393630e+04 
3.929100e-02 1.359506e+04 
4.039800e-02 1.333100e+04 
4.164000e-02 1.304787e+04 
4.294400e-02 1.275639e+04 
4.415000e-02 1.249134e+04 
4.542900e-02 1.220451e+04 
4.660900e-02 1.193831e+04 
4.782300e-02 1.165077e+04 
4.892900e-02 1.138429e+04 
5.031200e-02 1.104070e+04 
5.155900e-02 1.072045e+04 
5.238100e-02 1.050588e+04 
5.378200e-02 1.013628e+04 
5.513400e-02 9.776102e+03 
5.627600e-02 9.472470e+03 
5.735300e-02 9.189867e+03 
5.870100e-02 8.844279e+03 
5.988700e-02 8.550997e+03 
6.113500e-02 8.254746e+03 
6.225900e-02 8.000325e+03 
6.340100e-02 7.755048e+03 
6.480200e-02 7.472357e+03 
6.601100e-02 7.245663e+03 
6.725500e-02 7.029112e+03 
6.829100e-02 6.862920e+03 
6.958600e-02 6.670359e+03 
7.071100e-02 6.518154e+03 
7.192300e-02 6.368430e+03 
7.307400e-02 6.239049e+03 
7.412300e-02 6.131075e+03 
7.550400e-02 6.003032e+03 
7.663100e-02 5.907488e+03 
7.791200e-02 5.809155e+03 
7.912700e-02 5.723152e+03 
8.027600e-02 5.646114e+03 
8.138400e-02 5.574511e+03 
8.272200e-02 5.490080e+03 
8.406100e-02 5.406078e+03 
8.534100e-02 5.323712e+03 
8.653800e-02 5.243533e+03 
8.759800e-02 5.170523e+03 
8.900300e-02 5.069863e+03 
9.009000e-02 4.988171e+03 
9.113300e-02 4.906158e+03 
9.239600e-02 4.804893e+03 
9.358000e-02 4.707117e+03 
9.496100e-02 4.589673e+03 
9.608400e-02 4.493946e+03 
9.727500e-02 4.393036e+03 
9.852600e-02 4.286495e+03 
9.973800e-02 4.185927e+03 
1.009000e-01 4.091965e+03 
1.020900e-01 3.999188e+03 
1.034000e-01 3.901395e+03 
1.046000e-01 3.815848e+03 
1.057200e-01 3.741293e+03 
1.069100e-01 3.665584e+03 
1.082500e-01 3.586837e+03 
1.093900e-01 3.524566e+03 
1.105400e-01 3.465008e+03 
1.116900e-01 3.410932e+03 
1.129600e-01 3.354134e+03 
1.142000e-01 3.303505e+03 
1.153300e-01 3.259730e+03 
1.166400e-01 3.212133e+03 
1.177800e-01 3.172985e+03 
1.190000e-01 3.132675e+03 
1.201200e-01 3.097004e+03 
1.213400e-01 3.059145e+03 
1.227100e-01 3.017224e+03 
1.238900e-01 2.981724e+03 
1.250700e-01 2.945985e+03 
1.263200e-01 2.908414e+03 
1.275500e-01 2.870982e+03 
1.287500e-01 2.834495e+03 
1.299900e-01 2.796374e+03 
1.311300e-01 2.761279e+03 
1.323500e-01 2.723298e+03 
1.335900e-01 2.684813e+03 
1.347100e-01 2.649800e+03 
1.359800e-01 2.610446e+03 
1.372100e-01 2.572143e+03 
1.384300e-01 2.534701e+03 
1.395700e-01 2.499733e+03 
1.407700e-01 2.463658e+03 
1.420300e-01 2.426080e+03 
1.432800e-01 2.389645e+03 
1.444500e-01 2.356195e+03 
1.456300e-01 2.323165e+03 
1.468900e-01 2.289040e+03 
1.480500e-01 2.258401e+03 
1.491700e-01 2.229737e+03 
1.503800e-01 2.199812e+03 
1.516400e-01 2.169492e+03 
1.528200e-01 2.142507e+03 
1.540200e-01 2.115604e+03 
1.551900e-01 2.090733e+03 
1.564300e-01 2.065092e+03 
1.576600e-01 2.040571e+03 
1.588700e-01 2.017409e+03 
1.600900e-01 1.994529e+03 
1.612700e-01 1.973411e+03 
1.625400e-01 1.951107e+03 
1.637600e-01 1.930247e+03 
1.649500e-01 1.910364e+03 
1.662200e-01 1.889521e+03 
1.674000e-01 1.870442e+03 
1.685000e-01 1.852955e+03 
1.697500e-01 1.833247e+03 
1.710300e-01 1.813262e+03 
1.722200e-01 1.795012e+03 
1.734400e-01 1.776118e+03 
1.746400e-01 1.757833e+03 
1.758700e-01 1.739253e+03 
1.770900e-01 1.720810e+03 
1.782700e-01 1.703274e+03 
1.794600e-01 1.685649e+03 
1.807000e-01 1.667438e+03 
1.819100e-01 1.649970e+03 
1.830100e-01 1.634159e+03 
1.842200e-01 1.617013e+03 
1.855000e-01 1.599181e+03 
1.867000e-01 1.582706e+03 
1.879200e-01 1.566230e+03 
1.890900e-01 1.550701e+03 
1.902800e-01 1.535253e+03 
1.915200e-01 1.519415e+03 
1.926900e-01 1.504762e+03 
1.939000e-01 1.490024e+03 
1.951700e-01 1.474804e+03 
1.963100e-01 1.461417e+03 
1.975100e-01 1.447707e+03 
1.987800e-01 1.433423e+03 
2.000100e-01 1.419883e+03 
2.012500e-01 1.406619e+03 
2.023400e-01 1.395128e+03 
2.036100e-01 1.381968e+03 
2.048900e-01 1.369047e+03 
2.060400e-01 1.357610e+03 
2.072200e-01 1.346046e+03 
2.084200e-01 1.334546e+03 
2.096900e-01 1.322553e+03 
2.109200e-01 1.311109e+03 
2.121100e-01 1.300185e+03 
2.132700e-01 1.289681e+03 
2.145200e-01 1.278521e+03 
2.157200e-01 1.267913e+03 
2.168800e-01 1.257776e+03 
2.180700e-01 1.247516e+03 
2.193400e-01 1.236665e+03 
2.206000e-01 1.225952e+03 
2.217500e-01 1.216307e+03 
2.229500e-01 1.206376e+03 
2.241400e-01 1.196482e+03 
2.253500e-01 1.186553e+03 
2.264900e-01 1.177319e+03 
2.277100e-01 1.167464e+03 
2.289900e-01 1.157151e+03 
2.301500e-01 1.147931e+03 
2.313600e-01 1.138435e+03 
2.325600e-01 1.128941e+03 
2.337700e-01 1.119493e+03 
2.350000e-01 1.110015e+03 
2.362000e-01 1.100816e+03 
2.374100e-01 1.091573e+03 
2.386500e-01 1.082226e+03 
2.399100e-01 1.072854e+03 
2.410400e-01 1.064462e+03 
2.422500e-01 1.055576e+03 
2.435000e-01 1.046516e+03 
2.447300e-01 1.037711e+03 
2.458700e-01 1.029635e+03 
2.470600e-01 1.021306e+03 
2.483300e-01 1.012531e+03 
2.495600e-01 1.004159e+03 
2.507600e-01 9.961187e+02 
2.519600e-01 9.881764e+02 
2.532200e-01 9.799411e+02 
2.543700e-01 9.725852e+02 
2.555500e-01 9.651726e+02 
2.568000e-01 9.574152e+02 
2.580100e-01 9.499976e+02 
2.592400e-01 9.426578e+02 
2.604100e-01 9.358060e+02 
2.616100e-01 9.288595e+02 
2.628400e-01 9.218230e+02 
2.640600e-01 9.150446e+02 
2.652200e-01 9.087197e+02 
2.664300e-01 9.021963e+02 
2.676500e-01 8.956945e+02 
2.688400e-01 8.895197e+02 
2.700700e-01 8.832688e+02 
2.712400e-01 8.773889e+02 
2.724800e-01 8.712266e+02 
2.736700e-01 8.654408e+02 
2.748800e-01 8.596861e+02 
2.761000e-01 8.539477e+02 
2.773200e-01 8.482724e+02 
2.785400e-01 8.426883e+02 
2.797000e-01 8.374959e+02 
2.808900e-01 8.322248e+02 
2.821400e-01 8.267476e+02 
2.833900e-01 8.213330e+02 
2.845500e-01 8.164127e+02 
2.857800e-01 8.112498e+02 
2.870300e-01 8.060594e+02 
2.882100e-01 8.012110e+02 
2.893900e-01 7.964349e+02 
2.906300e-01 7.914803e+02 
2.918900e-01 7.864994e+02 
2.930500e-01 7.819609e+02 
2.942500e-01 7.773164e+02 
2.954200e-01 7.728451e+02 
2.966500e-01 7.681918e+02 
2.978900e-01 7.635489e+02 
2.990400e-01 7.592857e+02 
3.002700e-01 7.547755e+02 
3.015100e-01 7.502770e+02 
3.026800e-01 7.460745e+02 
3.038500e-01 7.419121e+02 
3.050300e-01 7.377543e+02 
3.062600e-01 7.334657e+02 
3.075000e-01 7.291853e+02 
3.087000e-01 7.250837e+02 
3.099100e-01 7.209877e+02 
3.111200e-01 7.169333e+02 
3.123100e-01 7.129871e+02 
3.135300e-01 7.089800e+02 
3.147300e-01 7.050762e+02 
3.159900e-01 7.010168e+02 
3.171800e-01 6.972228e+02 
3.183700e-01 6.934659e+02 
3.196300e-01 6.895258e+02 
3.208400e-01 6.857782e+02 
3.220300e-01 6.821267e+02 
3.232000e-01 6.785732e+02 
3.244300e-01 6.748734e+02 
3.256700e-01 6.711786e+02 
3.269200e-01 6.674891e+02 
3.280800e-01 6.640965e+02 
3.292500e-01 6.607130e+02 
3.304800e-01 6.571907e+02 
3.317100e-01 6.537007e+02 
3.328900e-01 6.503826e+02 
3.340700e-01 6.470935e+02 
3.353600e-01 6.435396e+02 
3.365300e-01 6.403489e+02 
3.377100e-01 6.371586e+02 
3.389200e-01 6.339158e+02 
3.401600e-01 6.306222e+02 
3.413700e-01 6.274473e+02 
3.425300e-01 6.244370e+02 
3.437700e-01 6.212468e+02 
3.449800e-01 6.181611e+02 
3.461800e-01 6.151273e+02 
3.473600e-01 6.121740e+02 
3.485800e-01 6.091577e+02 
3.498100e-01 6.061429e+02 
3.510200e-01 6.032027e+02 
3.522000e-01 6.003594e+02 
3.533900e-01 5.975158e+02 
3.546400e-01 5.945705e+02 
3.558400e-01 5.917679e+02 
3.570600e-01 5.889424e+02 
3.582700e-01 5.861636e+02 
3.595000e-01 5.833625e+02 
3.607100e-01 5.806392e+02 
3.618900e-01 5.780122e+02 
3.631200e-01 5.752963e+02 
3.643200e-01 5.726685e+02 
3.655500e-01 5.699971e+02 
3.667300e-01 5.674550e+02 
3.679500e-01 5.648660e+02 
3.691900e-01 5.622561e+02 
3.703600e-01 5.598134e+02 
3.715700e-01 5.573070e+02 
3.727700e-01 5.548412e+02 
3.739900e-01 5.523605e+02 
3.752000e-01 5.499309e+02 
3.763900e-01 5.475603e+02 
3.775800e-01 5.452081e+02 
3.788200e-01 5.427765e+02 
3.800300e-01 5.404224e+02 
3.812100e-01 5.381521e+02 
3.824200e-01 5.358470e+02 
3.836100e-01 5.335975e+02 
3.848600e-01 5.312530e+02 
3.860400e-01 5.290569e+02 
3.872400e-01 5.268405e+02 
3.884600e-01 5.246145e+02 
3.896500e-01 5.224634e+02 
3.908700e-01 5.202748e+02 
3.920600e-01 5.181562e+02 
3.933100e-01 5.159477e+02 
3.945300e-01 5.138088e+02 
3.957200e-01 5.117491e+02 
3.969300e-01 5.096734e+02 
3.981700e-01 5.075624e+02 
3.993500e-01 5.055684e+02 
4.094840e-01 4.890376e+02 
4.272360e-01 4.626099e+02 
4.454600e-01 4.382292e+02 
4.630560e-01 4.169208e+02 
4.804610e-01 3.976944e+02 
4.980690e-01 3.798726e+02 
5.159230e-01 3.632745e+02 
5.317440e-01 3.496762e+02 
5.489640e-01 3.359481e+02 
5.671990e-01 3.225284e+02 
5.838690e-01 3.111637e+02 
6.018840e-01 2.997621e+02 
6.202330e-01 2.890115e+02 
6.379250e-01 2.793826e+02 
6.545410e-01 2.709634e+02 
6.714560e-01 2.629241e+02 
6.892080e-01 2.550397e+02 
7.066010e-01 2.478041e+02 
7.240540e-01 2.409846e+02 
7.420450e-01 2.343801e+02 
7.593780e-01 2.283829e+02 
7.764720e-01 2.227860e+02 
7.942840e-01 2.172673e+02 
8.116170e-01 2.121737e+02 
8.288310e-01 2.073618e+02 
8.462240e-01 2.027266e+02 
8.631980e-01 1.984018e+02 
8.810700e-01 1.940498e+02 
8.989410e-01 1.898864e+02 
9.166330e-01 1.859341e+02 
9.345640e-01 1.820914e+02 
9.515980e-01 1.785740e+02 
9.688720e-01 1.751337e+02 
9.865640e-01 1.717310e+02 
1.031870e+00 1.635397e+02 
1.063490e+00 1.582088e+02 
1.097920e+00 1.527314e+02 
1.134370e+00 1.472579e+02 
1.167730e+00 1.425197e+02 
1.203830e+00 1.376413e+02 
1.240470e+00 1.329549e+02 
1.275790e+00 1.286474e+02 
1.309140e+00 1.247834e+02 
1.342970e+00 1.210138e+02 
1.378420e+00 1.172505e+02 
1.413200e+00 1.137132e+02 
1.448110e+00 1.103134e+02 
1.484090e+00 1.069631e+02 
1.518820e+00 1.038628e+02 
1.552880e+00 1.009388e+02 
1.588630e+00 9.799436e+01 
1.623230e+00 9.525943e+01 
1.657720e+00 9.263825e+01 
1.692450e+00 9.010339e+01 
1.726400e+00 8.771086e+01 
1.762200e+00 8.528092e+01 
1.797880e+00 8.295472e+01 
1.833270e+00 8.073191e+01 
1.869070e+00 7.856575e+01 
1.903200e+00 7.657712e+01 
1.937740e+00 7.463465e+01 
1.973190e+00 7.270906e+01 
2.007440e+00 7.091493e+01 
2.042160e+00 6.915846e+01 
2.077900e+00 6.741006e+01 
2.112390e+00 6.578324e+01 
2.146220e+00 6.423527e+01 
2.181600e+00 6.267044e+01 
2.216930e+00 6.116035e+01 
2.250760e+00 5.976089e+01 
2.286500e+00 5.832967e+01 
2.321770e+00 5.696330e+01 
2.355950e+00 5.568118e+01 
2.391280e+00 5.439471e+01 
2.426240e+00 5.316220e+01 
2.460670e+00 5.198655e+01 
2.495640e+00 5.082952e+01 
2.531080e+00 4.968925e+01 
2.566220e+00 4.859341e+01 
2.600830e+00 4.754714e+01 
2.635080e+00 4.654286e+01 
2.670340e+00 4.553768e+01 
2.705970e+00 4.455202e+01 
2.740040e+00 4.363676e+01 
2.774520e+00 4.273459e+01 
2.809730e+00 4.183994e+01 
2.844390e+00 4.098509e+01 
2.879960e+00 4.013228e+01 
2.914860e+00 3.931813e+01 
2.949410e+00 3.853479e+01 
2.984440e+00 3.776179e+01 
3.019760e+00 3.700343e+01 
3.054730e+00 3.627344e+01 
3.089030e+00 3.557555e+01 
3.124060e+00 3.488196e+01 
3.159560e+00 3.419747e+01 
3.194710e+00 3.353770e+01 
3.229010e+00 3.291133e+01 
3.263320e+00 3.229987e+01 
3.297930e+00 3.169902e+01 
3.332830e+00 3.110783e+01 
3.368040e+00 3.052679e+01 
3.403300e+00 2.996008e+01 
3.438450e+00 2.940919e+01 
3.473060e+00 2.888082e+01 
3.508440e+00 2.835316e+01 
3.543110e+00 2.784940e+01 
3.577470e+00 2.736199e+01 
3.613040e+00 2.686988e+01 
3.648120e+00 2.639574e+01 
3.682910e+00 2.593710e+01 
3.718050e+00 2.548495e+01 
3.753320e+00 2.504219e+01 
3.787980e+00 2.461739e+01 
3.822290e+00 2.420669e+01 
3.857020e+00 2.380044e+01 
3.891920e+00 2.340168e+01 
3.926650e+00 2.301376e+01 
3.961970e+00 2.262854e+01 
3.997360e+00 2.225158e+01 
4.031670e+00 2.189450e+01 
4.066330e+00 2.154162e+01 
4.101420e+00 2.119249e+01 
4.136200e+00 2.085401e+01 
4.170810e+00 2.052472e+01 
4.206250e+00 2.019480e+01 
4.241580e+00 1.987324e+01 
4.276300e+00 1.956425e+01 
4.310970e+00 1.926241e+01 
4.346120e+00 1.896308e+01 
4.380600e+00 1.867582e+01 
4.414730e+00 1.839745e+01 
4.450350e+00 1.811318e+01 
4.485320e+00 1.784005e+01 
4.519810e+00 1.757634e+01 
4.555430e+00 1.730970e+01 
4.590870e+00 1.705006e+01 
4.625480e+00 1.680188e+01 
4.659910e+00 1.655995e+01 
4.695230e+00 1.631700e+01 
4.729960e+00 1.608294e+01 
4.764450e+00 1.585518e+01 
4.799530e+00 1.562825e+01 
4.834910e+00 1.540391e+01 
4.869700e+00 1.518795e+01 
4.904370e+00 1.497694e+01 
4.939450e+00 1.476766e+01 
4.973940e+00 1.456612e+01 
5.008430e+00 1.436836e+01 
5.043810e+00 1.416951e+01 
5.078840e+00 1.397644e+01 
5.113500e+00 1.378897e+01 
5.148890e+00 1.360157e+01 
5.184210e+00 1.341805e+01 
5.219060e+00 1.324041e+01 
5.253660e+00 1.306751e+01 
5.288570e+00 1.289621e+01 
5.323420e+00 1.272846e+01 
5.358440e+00 1.256313e+01 
5.393590e+00 1.240014e+01 
5.428310e+00 1.224229e+01 
5.462800e+00 1.208839e+01 
5.497640e+00 1.193560e+01 
5.532670e+00 1.178497e+01 
5.567280e+00 1.163879e+01 
5.602000e+00 1.149465e+01 
5.637270e+00 1.135107e+01 
5.672410e+00 1.121055e+01 
5.707020e+00 1.107446e+01 
5.742040e+00 1.093943e+01 
5.777430e+00 1.080533e+01 
5.812210e+00 1.067574e+01 
5.846820e+00 1.054917e+01 
5.881610e+00 1.042409e+01 
5.916510e+00 1.030065e+01 
5.951600e+00 1.017884e+01 
5.986560e+00 1.005958e+01 
6.021830e+00 9.941184e+00 
6.056490e+00 9.826932e+00 
6.091160e+00 9.714642e+00 
6.125830e+00 9.604102e+00 
6.161090e+00 9.493564e+00 
6.195760e+00 9.386833e+00 
6.230420e+00 9.281767e+00 
6.265690e+00 9.176512e+00 
6.300950e+00 9.073285e+00 
6.335620e+00 8.973329e+00 
6.370880e+00 8.873210e+00 
6.405550e+00 8.776517e+00 
6.440220e+00 8.681370e+00 
6.475480e+00 8.586045e+00 
6.510150e+00 8.493805e+00 
6.544810e+00 8.403171e+00 
6.580080e+00 8.312292e+00 
6.614750e+00 8.224264e+00 
6.649410e+00 8.137869e+00 
6.684080e+00 8.052753e+00 
6.719340e+00 7.967432e+00 
6.754010e+00 7.884831e+00 
6.788680e+00 7.803612e+00 
6.823940e+00 7.722179e+00 
6.859800e+00 7.640546e+00 
6.894470e+00 7.562971e+00 
6.929140e+00 7.486553e+00 
6.963800e+00 7.411207e+00 
6.999070e+00 7.335611e+00 
7.033730e+00 7.262596e+00 
7.068400e+00 7.190550e+00 
7.103660e+00 7.118274e+00 
7.138330e+00 7.048275e+00 
7.173600e+00 6.978241e+00 
7.208260e+00 6.910340e+00 
7.243530e+00 6.842166e+00 
7.277600e+00 6.777330e+00 
7.312860e+00 6.711245e+00 
7.348120e+00 6.646037e+00 
7.382790e+00 6.582759e+00 
7.417460e+00 6.520473e+00 
7.452720e+00 6.458040e+00 
7.487390e+00 6.397443e+00 
7.522650e+00 6.336607e+00 
7.557320e+00 6.277722e+00 
7.591990e+00 6.219642e+00 
7.627250e+00 6.161322e+00 
7.662510e+00 6.103744e+00 
7.697180e+00 6.048024e+00 
7.731850e+00 5.993065e+00 
7.766510e+00 5.938800e+00 
7.801180e+00 5.885187e+00 
7.836440e+00 5.831486e+00 
7.871110e+00 5.779428e+00 
7.906380e+00 5.727116e+00 
7.941040e+00 5.676335e+00 
7.976310e+00 5.625371e+00 
8.011570e+00 5.575140e+00 
8.046240e+00 5.526344e+00 
8.080900e+00 5.478141e+00 
8.115570e+00 5.430538e+00 
8.150830e+00 5.382863e+00 
8.185500e+00 5.336540e+00 
8.220770e+00 5.289971e+00 
8.255430e+00 5.244744e+00 
8.290100e+00 5.200200e+00 
8.324770e+00 5.156189e+00 
8.359430e+00 5.112697e+00 
8.394700e+00 5.068949e+00 
8.429960e+00 5.025817e+00 
8.464630e+00 4.983989e+00 
8.499890e+00 4.941934e+00 
8.534560e+00 4.901052e+00 
8.569200e+00 4.860664e+00 
