# Parameters:
# omega_b = 0.022004, omega_m = 0.135157, n_s = 0.980709, h = 84.763780, w = -1.000000, sigma_8 = 0.840157
# z = 1.100000
#
# k[1/Mpc] # P(k):
8.694000e-04 5.305237e+03 
2.077466e-03 1.140399e+04 
3.285532e-03 1.618553e+04 
4.493598e-03 1.985247e+04 
5.701664e-03 2.256080e+04 
6.909730e-03 2.446574e+04 
8.117797e-03 2.574393e+04 
9.325863e-03 2.648633e+04 
1.053393e-02 2.678358e+04 
1.174199e-02 2.671878e+04 
1.295006e-02 2.634671e+04 
1.415813e-02 2.574074e+04 
1.536619e-02 2.496096e+04 
1.657426e-02 2.404197e+04 
1.778233e-02 2.297387e+04 
1.899039e-02 2.177860e+04 
2.019846e-02 2.057754e+04 
2.140652e-02 1.945928e+04 
2.261459e-02 1.841455e+04 
2.382266e-02 1.743941e+04 
2.503072e-02 1.654055e+04 
2.623879e-02 1.572061e+04 
2.744685e-02 1.498161e+04 
2.865492e-02 1.432163e+04 
2.986299e-02 1.373614e+04 
3.100100e-02 1.325065e+04 
3.220400e-02 1.280044e+04 
3.288100e-02 1.257484e+04 
3.424300e-02 1.217190e+04 
3.555100e-02 1.183846e+04 
3.686000e-02 1.154943e+04 
3.795000e-02 1.133491e+04 
3.929100e-02 1.109711e+04 
4.039800e-02 1.091386e+04 
4.164000e-02 1.071593e+04 
4.294400e-02 1.050581e+04 
4.415000e-02 1.030880e+04 
4.542900e-02 1.008450e+04 
4.660900e-02 9.868603e+03 
4.782300e-02 9.623055e+03 
4.892900e-02 9.388597e+03 
5.031200e-02 9.076759e+03 
5.155900e-02 8.778437e+03 
5.238100e-02 8.575810e+03 
5.378200e-02 8.223222e+03 
5.513400e-02 7.876929e+03 
5.627600e-02 7.584265e+03 
5.735300e-02 7.311932e+03 
5.870100e-02 6.979602e+03 
5.988700e-02 6.698912e+03 
6.113500e-02 6.417794e+03 
6.225900e-02 6.180075e+03 
6.340100e-02 5.955905e+03 
6.480200e-02 5.704807e+03 
6.601100e-02 5.512679e+03 
6.725500e-02 5.337736e+03 
6.829100e-02 5.210957e+03 
6.958600e-02 5.070518e+03 
7.071100e-02 4.965845e+03 
7.192300e-02 4.867866e+03 
7.307400e-02 4.787099e+03 
7.412300e-02 4.722207e+03 
7.550400e-02 4.648068e+03 
7.663100e-02 4.593765e+03 
7.791200e-02 4.537981e+03 
7.912700e-02 4.487679e+03 
8.027600e-02 4.440591e+03 
8.138400e-02 4.394616e+03 
8.272200e-02 4.336828e+03 
8.406100e-02 4.275279e+03 
8.534100e-02 4.210457e+03 
8.653800e-02 4.144150e+03 
8.759800e-02 4.082142e+03 
8.900300e-02 3.994526e+03 
9.009000e-02 3.922129e+03 
9.113300e-02 3.848787e+03 
9.239600e-02 3.757885e+03 
9.358000e-02 3.669921e+03 
9.496100e-02 3.564372e+03 
9.608400e-02 3.478603e+03 
9.727500e-02 3.388473e+03 
9.852600e-02 3.294006e+03 
9.973800e-02 3.205416e+03 
1.009000e-01 3.123139e+03 
1.020900e-01 3.043229e+03 
1.034000e-01 2.959904e+03 
1.046000e-01 2.887945e+03 
1.057200e-01 2.827081e+03 
1.069100e-01 2.766069e+03 
1.082500e-01 2.704957e+03 
1.093900e-01 2.658272e+03 
1.105400e-01 2.614604e+03 
1.116900e-01 2.577327e+03 
1.129600e-01 2.538989e+03 
1.142000e-01 2.506872e+03 
1.153300e-01 2.479734e+03 
1.166400e-01 2.451244e+03 
1.177800e-01 2.428194e+03 
1.190000e-01 2.404657e+03 
1.201200e-01 2.383269e+03 
1.213400e-01 2.360480e+03 
1.227100e-01 2.333290e+03 
1.238900e-01 2.309730e+03 
1.250700e-01 2.284214e+03 
1.263200e-01 2.256615e+03 
1.275500e-01 2.227422e+03 
1.287500e-01 2.198135e+03 
1.299900e-01 2.166251e+03 
1.311300e-01 2.136308e+03 
1.323500e-01 2.103036e+03 
1.335900e-01 2.068998e+03 
1.347100e-01 2.037608e+03 
1.359800e-01 2.002283e+03 
1.372100e-01 1.967789e+03 
1.384300e-01 1.934196e+03 
1.395700e-01 1.903059e+03 
1.407700e-01 1.871039e+03 
1.420300e-01 1.838341e+03 
1.432800e-01 1.806678e+03 
1.444500e-01 1.778519e+03 
1.456300e-01 1.750738e+03 
1.468900e-01 1.722839e+03 
1.480500e-01 1.698039e+03 
1.491700e-01 1.675279e+03 
1.503800e-01 1.652082e+03 
1.516400e-01 1.628760e+03 
1.528200e-01 1.608780e+03 
1.540200e-01 1.588859e+03 
1.551900e-01 1.571062e+03 
1.564300e-01 1.552867e+03 
1.576600e-01 1.535692e+03 
1.588700e-01 1.519746e+03 
1.600900e-01 1.504000e+03 
1.612700e-01 1.489627e+03 
1.625400e-01 1.474444e+03 
1.637600e-01 1.460114e+03 
1.649500e-01 1.446378e+03 
1.662200e-01 1.431900e+03 
1.674000e-01 1.418225e+03 
1.685000e-01 1.405689e+03 
1.697500e-01 1.391219e+03 
1.710300e-01 1.376205e+03 
1.722200e-01 1.362495e+03 
1.734400e-01 1.347630e+03 
1.746400e-01 1.333220e+03 
1.758700e-01 1.318402e+03 
1.770900e-01 1.303345e+03 
1.782700e-01 1.289032e+03 
1.794600e-01 1.274459e+03 
1.807000e-01 1.259281e+03 
1.819100e-01 1.244728e+03 
1.830100e-01 1.231498e+03 
1.842200e-01 1.217145e+03 
1.855000e-01 1.202232e+03 
1.867000e-01 1.188568e+03 
1.879200e-01 1.174910e+03 
1.890900e-01 1.162083e+03 
1.902800e-01 1.149527e+03 
1.915200e-01 1.136658e+03 
1.926900e-01 1.124825e+03 
1.939000e-01 1.113145e+03 
1.951700e-01 1.101086e+03 
1.963100e-01 1.090552e+03 
1.975100e-01 1.079953e+03 
1.987800e-01 1.068913e+03 
2.000100e-01 1.058506e+03 
2.012500e-01 1.048443e+03 
2.023400e-01 1.039726e+03 
2.036100e-01 1.029763e+03 
2.048900e-01 1.020059e+03 
2.060400e-01 1.011469e+03 
2.072200e-01 1.002784e+03 
2.084200e-01 9.941574e+02 
2.096900e-01 9.851613e+02 
2.109200e-01 9.765773e+02 
2.121100e-01 9.683506e+02 
2.132700e-01 9.604395e+02 
2.145200e-01 9.520343e+02 
2.157200e-01 9.440253e+02 
2.168800e-01 9.363636e+02 
2.180700e-01 9.286097e+02 
2.193400e-01 9.204170e+02 
2.206000e-01 9.123433e+02 
2.217500e-01 9.050750e+02 
2.229500e-01 8.975910e+02 
2.241400e-01 8.902217e+02 
2.253500e-01 8.828277e+02 
2.264900e-01 8.759524e+02 
2.277100e-01 8.686960e+02 
2.289900e-01 8.611934e+02 
2.301500e-01 8.544847e+02 
2.313600e-01 8.475776e+02 
2.325600e-01 8.408854e+02 
2.337700e-01 8.342247e+02 
2.350000e-01 8.275421e+02 
2.362000e-01 8.211587e+02 
2.374100e-01 8.148654e+02 
2.386500e-01 8.084989e+02 
2.399100e-01 8.021139e+02 
2.410400e-01 7.965560e+02 
2.422500e-01 7.906884e+02 
2.435000e-01 7.847032e+02 
2.447300e-01 7.789089e+02 
2.458700e-01 7.736870e+02 
2.470600e-01 7.682999e+02 
2.483300e-01 7.626212e+02 
2.495600e-01 7.572161e+02 
2.507600e-01 7.520424e+02 
2.519600e-01 7.469297e+02 
2.532200e-01 7.416258e+02 
2.543700e-01 7.368567e+02 
2.555500e-01 7.320285e+02 
2.568000e-01 7.269737e+02 
2.580100e-01 7.221384e+02 
2.592400e-01 7.172708e+02 
2.604100e-01 7.126891e+02 
2.616100e-01 7.080427e+02 
2.628400e-01 7.033345e+02 
2.640600e-01 6.986866e+02 
2.652200e-01 6.943038e+02 
2.664300e-01 6.897825e+02 
2.676500e-01 6.852751e+02 
2.688400e-01 6.808955e+02 
2.700700e-01 6.763991e+02 
2.712400e-01 6.721690e+02 
2.724800e-01 6.677351e+02 
2.736700e-01 6.635017e+02 
2.748800e-01 6.592180e+02 
2.761000e-01 6.549462e+02 
2.773200e-01 6.507212e+02 
2.785400e-01 6.465285e+02 
2.797000e-01 6.425559e+02 
2.808900e-01 6.385230e+02 
2.821400e-01 6.343324e+02 
2.833900e-01 6.301865e+02 
2.845500e-01 6.263473e+02 
2.857800e-01 6.223190e+02 
2.870300e-01 6.182693e+02 
2.882100e-01 6.144866e+02 
2.893900e-01 6.107292e+02 
2.906300e-01 6.068147e+02 
2.918900e-01 6.028797e+02 
2.930500e-01 5.992944e+02 
2.942500e-01 5.956196e+02 
2.954200e-01 5.920631e+02 
2.966500e-01 5.883620e+02 
2.978900e-01 5.846696e+02 
2.990400e-01 5.812793e+02 
3.002700e-01 5.776852e+02 
3.015100e-01 5.740970e+02 
3.026800e-01 5.707451e+02 
3.038500e-01 5.674255e+02 
3.050300e-01 5.641098e+02 
3.062600e-01 5.606885e+02 
3.075000e-01 5.572741e+02 
3.087000e-01 5.540024e+02 
3.099100e-01 5.507356e+02 
3.111200e-01 5.475035e+02 
3.123100e-01 5.443602e+02 
3.135300e-01 5.411686e+02 
3.147300e-01 5.380596e+02 
3.159900e-01 5.348268e+02 
3.171800e-01 5.318091e+02 
3.183700e-01 5.288234e+02 
3.196300e-01 5.256923e+02 
3.208400e-01 5.227144e+02 
3.220300e-01 5.198130e+02 
3.232000e-01 5.169945e+02 
3.244300e-01 5.140622e+02 
3.256700e-01 5.111340e+02 
3.269200e-01 5.082102e+02 
3.280800e-01 5.055219e+02 
3.292500e-01 5.028453e+02 
3.304800e-01 5.000604e+02 
3.317100e-01 4.973013e+02 
3.328900e-01 4.946783e+02 
3.340700e-01 4.920783e+02 
3.353600e-01 4.892730e+02 
3.365300e-01 4.867560e+02 
3.377100e-01 4.842394e+02 
3.389200e-01 4.816815e+02 
3.401600e-01 4.790838e+02 
3.413700e-01 4.765819e+02 
3.425300e-01 4.742114e+02 
3.437700e-01 4.716994e+02 
3.449800e-01 4.692698e+02 
3.461800e-01 4.668812e+02 
3.473600e-01 4.645565e+02 
3.485800e-01 4.621836e+02 
3.498100e-01 4.598121e+02 
3.510200e-01 4.574993e+02 
3.522000e-01 4.552628e+02 
3.533900e-01 4.530262e+02 
3.546400e-01 4.507102e+02 
3.558400e-01 4.485065e+02 
3.570600e-01 4.462850e+02 
3.582700e-01 4.441002e+02 
3.595000e-01 4.418980e+02 
3.607100e-01 4.397564e+02 
3.618900e-01 4.376903e+02 
3.631200e-01 4.355543e+02 
3.643200e-01 4.334876e+02 
3.655500e-01 4.313868e+02 
3.667300e-01 4.293878e+02 
3.679500e-01 4.273498e+02 
3.691900e-01 4.252956e+02 
3.703600e-01 4.233729e+02 
3.715700e-01 4.214003e+02 
3.727700e-01 4.194596e+02 
3.739900e-01 4.175063e+02 
3.752000e-01 4.155917e+02 
3.763900e-01 4.137235e+02 
3.775800e-01 4.118699e+02 
3.788200e-01 4.099537e+02 
3.800300e-01 4.080989e+02 
3.812100e-01 4.063080e+02 
3.824200e-01 4.044886e+02 
3.836100e-01 4.027131e+02 
3.848600e-01 4.008627e+02 
3.860400e-01 3.991295e+02 
3.872400e-01 3.973804e+02 
3.884600e-01 3.956215e+02 
3.896500e-01 3.939212e+02 
3.908700e-01 3.921913e+02 
3.920600e-01 3.905168e+02 
3.933100e-01 3.887713e+02 
3.945300e-01 3.870809e+02 
3.957200e-01 3.854499e+02 
3.969300e-01 3.838055e+02 
3.981700e-01 3.821331e+02 
3.993500e-01 3.805536e+02 
4.094840e-01 3.674544e+02 
4.272360e-01 3.464591e+02 
4.454600e-01 3.270856e+02 
4.630560e-01 3.101778e+02 
4.804610e-01 2.949645e+02 
4.980690e-01 2.809109e+02 
5.159230e-01 2.678707e+02 
5.317440e-01 2.572201e+02 
5.489640e-01 2.465011e+02 
5.671990e-01 2.360471e+02 
5.838690e-01 2.272079e+02 
6.018840e-01 2.183544e+02 
6.202330e-01 2.100168e+02 
6.379250e-01 2.025513e+02 
6.545410e-01 1.960291e+02 
6.714560e-01 1.898076e+02 
6.892080e-01 1.837060e+02 
7.066010e-01 1.781155e+02 
7.240540e-01 1.728497e+02 
7.420450e-01 1.677611e+02 
7.593780e-01 1.631501e+02 
7.764720e-01 1.588557e+02 
7.942840e-01 1.546309e+02 
8.116170e-01 1.507452e+02 
8.288310e-01 1.470883e+02 
8.462240e-01 1.435777e+02 
8.631980e-01 1.403167e+02 
8.810700e-01 1.370472e+02 
8.989410e-01 1.339339e+02 
9.166330e-01 1.309919e+02 
9.345640e-01 1.281440e+02 
9.515980e-01 1.255520e+02 
9.688720e-01 1.230291e+02 
9.865640e-01 1.205478e+02 
1.031870e+00 1.146202e+02 
1.063490e+00 1.108048e+02 
1.097920e+00 1.069184e+02 
1.134370e+00 1.030666e+02 
1.167730e+00 9.976007e+01 
1.203830e+00 9.638298e+01 
1.240470e+00 9.315860e+01 
1.275790e+00 9.021692e+01 
1.309140e+00 8.758867e+01 
1.342970e+00 8.504055e+01 
1.378420e+00 8.250580e+01 
1.413200e+00 8.013344e+01 
1.448110e+00 7.786006e+01 
1.484090e+00 7.562656e+01 
1.518820e+00 7.356446e+01 
1.552880e+00 7.162376e+01 
1.588630e+00 6.967182e+01 
1.623230e+00 6.786173e+01 
1.657720e+00 6.612872e+01 
1.692450e+00 6.445302e+01 
1.726400e+00 6.287274e+01 
1.762200e+00 6.126857e+01 
1.797880e+00 5.973201e+01 
1.833270e+00 5.826434e+01 
1.869070e+00 5.683335e+01 
1.903200e+00 5.551820e+01 
1.937740e+00 5.423305e+01 
1.973190e+00 5.295826e+01 
2.007440e+00 5.176898e+01 
2.042160e+00 5.060305e+01 
2.077900e+00 4.944166e+01 
2.112390e+00 4.835920e+01 
2.146220e+00 4.732834e+01 
2.181600e+00 4.628427e+01 
2.216930e+00 4.527515e+01 
2.250760e+00 4.433858e+01 
2.286500e+00 4.337931e+01 
2.321770e+00 4.246197e+01 
2.355950e+00 4.159937e+01 
2.391280e+00 4.073228e+01 
2.426240e+00 3.989978e+01 
2.460670e+00 3.910422e+01 
2.495640e+00 3.832001e+01 
2.531080e+00 3.754551e+01 
2.566220e+00 3.679961e+01 
2.600830e+00 3.608595e+01 
2.635080e+00 3.539949e+01 
2.670340e+00 3.471043e+01 
2.705970e+00 3.403355e+01 
2.740040e+00 3.340400e+01 
2.774520e+00 3.278223e+01 
2.809730e+00 3.216389e+01 
2.844390e+00 3.157178e+01 
2.879960e+00 3.097959e+01 
2.914860e+00 3.041307e+01 
2.949410e+00 2.986699e+01 
2.984440e+00 2.932647e+01 
3.019760e+00 2.879526e+01 
3.054730e+00 2.828314e+01 
3.089030e+00 2.779160e+01 
3.124060e+00 2.730234e+01 
3.159560e+00 2.681859e+01 
3.194710e+00 2.635092e+01 
3.229010e+00 2.590615e+01 
3.263320e+00 2.547042e+01 
3.297930e+00 2.504165e+01 
3.332830e+00 2.461896e+01 
3.368040e+00 2.420240e+01 
3.403300e+00 2.379523e+01 
3.438450e+00 2.339820e+01 
3.473060e+00 2.301688e+01 
3.508440e+00 2.263488e+01 
3.543110e+00 2.226968e+01 
3.577470e+00 2.191505e+01 
3.613040e+00 2.155652e+01 
3.648120e+00 2.121031e+01 
3.682910e+00 2.087477e+01 
3.718050e+00 2.054301e+01 
3.753320e+00 2.021752e+01 
3.787980e+00 1.990449e+01 
3.822290e+00 1.960124e+01 
3.857020e+00 1.930046e+01 
3.891920e+00 1.900472e+01 
3.926650e+00 1.871628e+01 
3.961970e+00 1.842937e+01 
3.997360e+00 1.814778e+01 
4.031670e+00 1.788070e+01 
4.066330e+00 1.761597e+01 
4.101420e+00 1.735384e+01 
4.136200e+00 1.709881e+01 
4.170810e+00 1.685051e+01 
4.206250e+00 1.660101e+01 
4.241580e+00 1.635756e+01 
4.276300e+00 1.612295e+01 
4.310970e+00 1.589336e+01 
4.346120e+00 1.566527e+01 
4.380600e+00 1.544585e+01 
4.414730e+00 1.523306e+01 
4.450350e+00 1.501496e+01 
4.485320e+00 1.480526e+01 
4.519810e+00 1.460224e+01 
4.555430e+00 1.439665e+01 
4.590870e+00 1.419615e+01 
4.625480e+00 1.400402e+01 
4.659910e+00 1.381662e+01 
4.695230e+00 1.362779e+01 
4.729960e+00 1.344568e+01 
4.764450e+00 1.326818e+01 
4.799530e+00 1.309089e+01 
4.834910e+00 1.291552e+01 
4.869700e+00 1.274620e+01 
4.904370e+00 1.258060e+01 
4.939450e+00 1.241614e+01 
4.973940e+00 1.225734e+01 
5.008430e+00 1.210144e+01 
5.043810e+00 1.194431e+01 
5.078840e+00 1.179151e+01 
5.113500e+00 1.164306e+01 
5.148890e+00 1.149417e+01 
5.184210e+00 1.134828e+01 
5.219060e+00 1.120688e+01 
5.253660e+00 1.106892e+01 
5.288570e+00 1.093216e+01 
5.323420e+00 1.079801e+01 
5.358440e+00 1.066554e+01 
5.393590e+00 1.053489e+01 
5.428310e+00 1.040807e+01 
5.462800e+00 1.028423e+01 
5.497640e+00 1.016125e+01 
5.532670e+00 1.003968e+01 
5.567280e+00 9.921595e+00 
5.602000e+00 9.805096e+00 
5.637270e+00 9.688776e+00 
5.672410e+00 9.574827e+00 
5.707020e+00 9.464439e+00 
5.742040e+00 9.354608e+00 
5.777430e+00 9.245445e+00 
5.812210e+00 9.139906e+00 
5.846820e+00 9.036600e+00 
5.881610e+00 8.934417e+00 
5.916510e+00 8.833537e+00 
5.951600e+00 8.733781e+00 
5.986560e+00 8.635992e+00 
6.021830e+00 8.538888e+00 
6.056490e+00 8.445025e+00 
6.091160e+00 8.352640e+00 
6.125830e+00 8.261668e+00 
6.161090e+00 8.170603e+00 
6.195760e+00 8.082507e+00 
6.230420e+00 7.995760e+00 
6.265690e+00 7.908824e+00 
6.300950e+00 7.823335e+00 
6.335620e+00 7.740532e+00 
6.370880e+00 7.657572e+00 
6.405550e+00 7.577309e+00 
6.440220e+00 7.498259e+00 
6.475480e+00 7.419040e+00 
6.510150e+00 7.342311e+00 
6.544810e+00 7.266772e+00 
6.580080e+00 7.191011e+00 
6.614750e+00 7.117609e+00 
6.649410e+00 7.045432e+00 
6.684080e+00 6.974283e+00 
6.719340e+00 6.902947e+00 
6.754010e+00 6.833823e+00 
6.788680e+00 6.765737e+00 
6.823940e+00 6.697457e+00 
6.859800e+00 6.628993e+00 
6.894470e+00 6.563830e+00 
6.929140e+00 6.499592e+00 
6.963800e+00 6.436243e+00 
6.999070e+00 6.372663e+00 
7.033730e+00 6.311130e+00 
7.068400e+00 6.250401e+00 
7.103660e+00 6.189467e+00 
7.138330e+00 6.130407e+00 
7.173600e+00 6.071236e+00 
7.208260e+00 6.013858e+00 
7.243530e+00 5.956238e+00 
7.277600e+00 5.901377e+00 
7.312860e+00 5.845403e+00 
7.348120e+00 5.790162e+00 
7.382790e+00 5.736547e+00 
7.417460e+00 5.683704e+00 
7.452720e+00 5.630694e+00 
7.487390e+00 5.579237e+00 
7.522650e+00 5.527568e+00 
7.557320e+00 5.477494e+00 
7.591990e+00 5.428076e+00 
7.627250e+00 5.378448e+00 
7.662510e+00 5.329444e+00 
7.697180e+00 5.281959e+00 
7.731850e+00 5.235095e+00 
7.766510e+00 5.188816e+00 
7.801180e+00 5.143087e+00 
7.836440e+00 5.097241e+00 
7.871110e+00 5.052767e+00 
7.906380e+00 5.008071e+00 
7.941040e+00 4.964678e+00 
7.976310e+00 4.921095e+00 
8.011570e+00 4.878100e+00 
8.046240e+00 4.836329e+00 
8.080900e+00 4.795060e+00 
8.115570e+00 4.754290e+00 
8.150830e+00 4.713412e+00 
8.185500e+00 4.673690e+00 
8.220770e+00 4.633751e+00 
8.255430e+00 4.594959e+00 
8.290100e+00 4.556702e+00 
8.324770e+00 4.518893e+00 
8.359430e+00 4.481525e+00 
8.394700e+00 4.443935e+00 
8.429960e+00 4.406850e+00 
8.464630e+00 4.370863e+00 
8.499890e+00 4.334678e+00 
8.534560e+00 4.299498e+00 
8.569200e+00 4.264739e+00 
