# Parameters:
# omega_b = 0.022161, omega_m = 0.130197, n_s = 0.982283, h = 63.740157, w = -1.000000, sigma_8 = 0.715748
# z = 1.100000
#
# k[1/Mpc] # P(k):
8.694000e-04 5.251507e+03 
2.077466e-03 1.130250e+04 
3.285532e-03 1.599148e+04 
4.493598e-03 1.954397e+04 
5.701664e-03 2.213629e+04 
6.909730e-03 2.392672e+04 
8.117797e-03 2.509260e+04 
9.325863e-03 2.572646e+04 
1.053393e-02 2.592220e+04 
1.174199e-02 2.576677e+04 
1.295006e-02 2.531495e+04 
1.415813e-02 2.463942e+04 
1.536619e-02 2.380326e+04 
1.657426e-02 2.285422e+04 
1.778233e-02 2.185685e+04 
1.899039e-02 2.088421e+04 
2.019846e-02 1.991374e+04 
2.140652e-02 1.893806e+04 
2.261459e-02 1.798470e+04 
2.382266e-02 1.708223e+04 
2.503072e-02 1.624384e+04 
2.623879e-02 1.547302e+04 
2.744685e-02 1.477125e+04 
2.865492e-02 1.413791e+04 
2.986299e-02 1.356933e+04 
3.100100e-02 1.309062e+04 
3.220400e-02 1.263913e+04 
3.288100e-02 1.240867e+04 
3.424300e-02 1.198910e+04 
3.555100e-02 1.163264e+04 
3.686000e-02 1.131476e+04 
3.795000e-02 1.107321e+04 
3.929100e-02 1.079917e+04 
4.039800e-02 1.058586e+04 
4.164000e-02 1.035565e+04 
4.294400e-02 1.011577e+04 
4.415000e-02 9.895802e+03 
4.542900e-02 9.655175e+03 
4.660900e-02 9.430488e+03 
4.782300e-02 9.185996e+03 
4.892900e-02 8.958791e+03 
5.031200e-02 8.665296e+03 
5.155900e-02 8.391806e+03 
5.238100e-02 8.208862e+03 
5.378200e-02 7.894570e+03 
5.513400e-02 7.589890e+03 
5.627600e-02 7.334659e+03 
5.735300e-02 7.098619e+03 
5.870100e-02 6.812271e+03 
5.988700e-02 6.571396e+03 
6.113500e-02 6.330265e+03 
6.225900e-02 6.125194e+03 
6.340100e-02 5.929320e+03 
6.480200e-02 5.705591e+03 
6.601100e-02 5.528401e+03 
6.725500e-02 5.360947e+03 
6.829100e-02 5.234049e+03 
6.958600e-02 5.088387e+03 
7.071100e-02 4.974654e+03 
7.192300e-02 4.863907e+03 
7.307400e-02 4.769083e+03 
7.412300e-02 4.690476e+03 
7.550400e-02 4.597748e+03 
7.663100e-02 4.528619e+03 
7.791200e-02 4.457066e+03 
7.912700e-02 4.393592e+03 
8.027600e-02 4.335783e+03 
8.138400e-02 4.281098e+03 
8.272200e-02 4.215169e+03 
8.406100e-02 4.148041e+03 
8.534100e-02 4.080658e+03 
8.653800e-02 4.014083e+03 
8.759800e-02 3.953042e+03 
8.900300e-02 3.868451e+03 
9.009000e-02 3.799682e+03 
9.113300e-02 3.730795e+03 
9.239600e-02 3.645978e+03 
9.358000e-02 3.564481e+03 
9.496100e-02 3.467353e+03 
9.608400e-02 3.388701e+03 
9.727500e-02 3.306225e+03 
9.852600e-02 3.220154e+03 
9.973800e-02 3.139429e+03 
1.009000e-01 3.064437e+03 
1.020900e-01 2.991387e+03 
1.034000e-01 2.914895e+03 
1.046000e-01 2.848501e+03 
1.057200e-01 2.791487e+03 
1.069100e-01 2.733911e+03 
1.082500e-01 2.674922e+03 
1.093900e-01 2.628805e+03 
1.105400e-01 2.585014e+03 
1.116900e-01 2.545912e+03 
1.129600e-01 2.505038e+03 
1.142000e-01 2.469041e+03 
1.153300e-01 2.437980e+03 
1.166400e-01 2.404309e+03 
1.177800e-01 2.376473e+03 
1.190000e-01 2.347744e+03 
1.201200e-01 2.321827e+03 
1.213400e-01 2.294231e+03 
1.227100e-01 2.262681e+03 
1.238900e-01 2.235739e+03 
1.250700e-01 2.207889e+03 
1.263200e-01 2.178345e+03 
1.275500e-01 2.148330e+03 
1.287500e-01 2.118837e+03 
1.299900e-01 2.087658e+03 
1.311300e-01 2.058846e+03 
1.323500e-01 2.027506e+03 
1.335900e-01 1.995766e+03 
1.347100e-01 1.966905e+03 
1.359800e-01 1.934563e+03 
1.372100e-01 1.903257e+03 
1.384300e-01 1.872789e+03 
1.395700e-01 1.844617e+03 
1.407700e-01 1.815617e+03 
1.420300e-01 1.785866e+03 
1.432800e-01 1.757037e+03 
1.444500e-01 1.731046e+03 
1.456300e-01 1.705392e+03 
1.468900e-01 1.679221e+03 
1.480500e-01 1.655827e+03 
1.491700e-01 1.634088e+03 
1.503800e-01 1.611581e+03 
1.516400e-01 1.588825e+03 
1.528200e-01 1.568773e+03 
1.540200e-01 1.548783e+03 
1.551900e-01 1.530412e+03 
1.564300e-01 1.511500e+03 
1.576600e-01 1.493427e+03 
1.588700e-01 1.476372e+03 
1.600900e-01 1.459522e+03 
1.612700e-01 1.443902e+03 
1.625400e-01 1.427404e+03 
1.637600e-01 1.411881e+03 
1.649500e-01 1.397030e+03 
1.662200e-01 1.381431e+03 
1.674000e-01 1.366978e+03 
1.685000e-01 1.353732e+03 
1.697500e-01 1.338701e+03 
1.710300e-01 1.323356e+03 
1.722200e-01 1.309347e+03 
1.734400e-01 1.294670e+03 
1.746400e-01 1.280463e+03 
1.758700e-01 1.265993e+03 
1.770900e-01 1.251562e+03 
1.782700e-01 1.237844e+03 
1.794600e-01 1.224034e+03 
1.807000e-01 1.209752e+03 
1.819100e-01 1.196057e+03 
1.830100e-01 1.183688e+03 
1.842200e-01 1.170281e+03 
1.855000e-01 1.156348e+03 
1.867000e-01 1.143547e+03 
1.879200e-01 1.130750e+03 
1.890900e-01 1.118709e+03 
1.902800e-01 1.106818e+03 
1.915200e-01 1.094629e+03 
1.926900e-01 1.083381e+03 
1.939000e-01 1.072146e+03 
1.951700e-01 1.060546e+03 
1.963100e-01 1.050369e+03 
1.975100e-01 1.040011e+03 
1.987800e-01 1.029222e+03 
2.000100e-01 1.019012e+03 
2.012500e-01 1.009049e+03 
2.023400e-01 1.000419e+03 
2.036100e-01 9.905417e+02 
2.048900e-01 9.808620e+02 
2.060400e-01 9.722946e+02 
2.072200e-01 9.636332e+02 
2.084200e-01 9.550119e+02 
2.096900e-01 9.460229e+02 
2.109200e-01 9.374469e+02 
2.121100e-01 9.292371e+02 
2.132700e-01 9.213437e+02 
2.145200e-01 9.129583e+02 
2.157200e-01 9.049675e+02 
2.168800e-01 8.973234e+02 
2.180700e-01 8.895883e+02 
2.193400e-01 8.814031e+02 
2.206000e-01 8.733127e+02 
2.217500e-01 8.660304e+02 
2.229500e-01 8.585332e+02 
2.241400e-01 8.510609e+02 
2.253500e-01 8.435628e+02 
2.264900e-01 8.365919e+02 
2.277100e-01 8.291628e+02 
2.289900e-01 8.214022e+02 
2.301500e-01 8.144649e+02 
2.313600e-01 8.073227e+02 
2.325600e-01 8.002163e+02 
2.337700e-01 7.931460e+02 
2.350000e-01 7.860553e+02 
2.362000e-01 7.791933e+02 
2.374100e-01 7.723222e+02 
2.386500e-01 7.653745e+02 
2.399100e-01 7.584103e+02 
2.410400e-01 7.522108e+02 
2.422500e-01 7.456514e+02 
2.435000e-01 7.389643e+02 
2.447300e-01 7.324739e+02 
2.458700e-01 7.265452e+02 
2.470600e-01 7.204325e+02 
2.483300e-01 7.139929e+02 
2.495600e-01 7.078581e+02 
2.507600e-01 7.019766e+02 
2.519600e-01 6.961678e+02 
2.532200e-01 6.901455e+02 
2.543700e-01 6.847676e+02 
2.555500e-01 6.793492e+02 
2.568000e-01 6.736796e+02 
2.580100e-01 6.682591e+02 
2.592400e-01 6.628871e+02 
2.604100e-01 6.578690e+02 
2.616100e-01 6.527823e+02 
2.628400e-01 6.476304e+02 
2.640600e-01 6.426520e+02 
2.652200e-01 6.380008e+02 
2.664300e-01 6.332044e+02 
2.676500e-01 6.284244e+02 
2.688400e-01 6.238686e+02 
2.700700e-01 6.192465e+02 
2.712400e-01 6.148995e+02 
2.724800e-01 6.103442e+02 
2.736700e-01 6.060550e+02 
2.748800e-01 6.017760e+02 
2.761000e-01 5.975097e+02 
2.773200e-01 5.932911e+02 
2.785400e-01 5.891335e+02 
2.797000e-01 5.852527e+02 
2.808900e-01 5.813136e+02 
2.821400e-01 5.772212e+02 
2.833900e-01 5.731755e+02 
2.845500e-01 5.694826e+02 
2.857800e-01 5.656082e+02 
2.870300e-01 5.617139e+02 
2.882100e-01 5.580768e+02 
2.893900e-01 5.544859e+02 
2.906300e-01 5.507569e+02 
2.918900e-01 5.470087e+02 
2.930500e-01 5.435939e+02 
2.942500e-01 5.400983e+02 
2.954200e-01 5.367278e+02 
2.966500e-01 5.332207e+02 
2.978900e-01 5.297221e+02 
2.990400e-01 5.265102e+02 
3.002700e-01 5.231096e+02 
3.015100e-01 5.197169e+02 
3.026800e-01 5.165479e+02 
3.038500e-01 5.134098e+02 
3.050300e-01 5.102756e+02 
3.062600e-01 5.070416e+02 
3.075000e-01 5.038144e+02 
3.087000e-01 5.007224e+02 
3.099100e-01 4.976354e+02 
3.111200e-01 4.945803e+02 
3.123100e-01 4.916077e+02 
3.135300e-01 4.885897e+02 
3.147300e-01 4.856501e+02 
3.159900e-01 4.825938e+02 
3.171800e-01 4.797389e+02 
3.183700e-01 4.769132e+02 
3.196300e-01 4.739502e+02 
3.208400e-01 4.711324e+02 
3.220300e-01 4.683873e+02 
3.232000e-01 4.657187e+02 
3.244300e-01 4.629415e+02 
3.256700e-01 4.601686e+02 
3.269200e-01 4.574002e+02 
3.280800e-01 4.548549e+02 
3.292500e-01 4.523189e+02 
3.304800e-01 4.496800e+02 
3.317100e-01 4.470657e+02 
3.328900e-01 4.445806e+02 
3.340700e-01 4.421177e+02 
3.353600e-01 4.394599e+02 
3.365300e-01 4.370752e+02 
3.377100e-01 4.346912e+02 
3.389200e-01 4.322683e+02 
3.401600e-01 4.298079e+02 
3.413700e-01 4.274388e+02 
3.425300e-01 4.251943e+02 
3.437700e-01 4.228162e+02 
3.449800e-01 4.205163e+02 
3.461800e-01 4.182555e+02 
3.473600e-01 4.160559e+02 
3.485800e-01 4.138122e+02 
3.498100e-01 4.115701e+02 
3.510200e-01 4.093836e+02 
3.522000e-01 4.072696e+02 
3.533900e-01 4.051556e+02 
3.546400e-01 4.029697e+02 
3.558400e-01 4.008903e+02 
3.570600e-01 3.987942e+02 
3.582700e-01 3.967330e+02 
3.595000e-01 3.946556e+02 
3.607100e-01 3.926377e+02 
3.618900e-01 3.906928e+02 
3.631200e-01 3.886823e+02 
3.643200e-01 3.867373e+02 
3.655500e-01 3.847602e+02 
3.667300e-01 3.828791e+02 
3.679500e-01 3.809663e+02 
3.691900e-01 3.790383e+02 
3.703600e-01 3.772340e+02 
3.715700e-01 3.753829e+02 
3.727700e-01 3.735620e+02 
3.739900e-01 3.717311e+02 
3.752000e-01 3.699396e+02 
3.763900e-01 3.681917e+02 
3.775800e-01 3.664576e+02 
3.788200e-01 3.646651e+02 
3.800300e-01 3.629301e+02 
3.812100e-01 3.612581e+02 
3.824200e-01 3.595616e+02 
3.836100e-01 3.579062e+02 
3.848600e-01 3.561811e+02 
3.860400e-01 3.545653e+02 
3.872400e-01 3.529347e+02 
3.884600e-01 3.512988e+02 
3.896500e-01 3.497187e+02 
3.908700e-01 3.481112e+02 
3.920600e-01 3.465553e+02 
3.933100e-01 3.449335e+02 
3.945300e-01 3.433630e+02 
3.957200e-01 3.418516e+02 
3.969300e-01 3.403289e+02 
3.981700e-01 3.387804e+02 
3.993500e-01 3.373179e+02 
4.094840e-01 3.252111e+02 
4.272360e-01 3.059114e+02 
4.454600e-01 2.881755e+02 
4.630560e-01 2.727362e+02 
4.804610e-01 2.588606e+02 
4.980690e-01 2.460468e+02 
5.159230e-01 2.341586e+02 
5.317440e-01 2.244502e+02 
5.489640e-01 2.146831e+02 
5.671990e-01 2.051636e+02 
5.838690e-01 1.971231e+02 
6.018840e-01 1.890819e+02 
6.202330e-01 1.815244e+02 
6.379250e-01 1.747676e+02 
6.545410e-01 1.688797e+02 
6.714560e-01 1.632740e+02 
6.892080e-01 1.577871e+02 
7.066010e-01 1.527720e+02 
7.240540e-01 1.480556e+02 
7.420450e-01 1.435094e+02 
7.593780e-01 1.393979e+02 
7.764720e-01 1.355744e+02 
7.942840e-01 1.318185e+02 
8.116170e-01 1.283700e+02 
8.288310e-01 1.251298e+02 
8.462240e-01 1.220227e+02 
8.631980e-01 1.191405e+02 
8.810700e-01 1.162533e+02 
8.989410e-01 1.135069e+02 
9.166330e-01 1.109139e+02 
9.345640e-01 1.084056e+02 
9.515980e-01 1.061252e+02 
9.688720e-01 1.039073e+02 
9.865640e-01 1.017275e+02 
1.031870e+00 9.652599e+01 
1.063490e+00 9.318246e+01 
1.097920e+00 8.977957e+01 
1.134370e+00 8.641161e+01 
1.167730e+00 8.352354e+01 
1.203830e+00 8.057735e+01 
1.240470e+00 7.776764e+01 
1.275790e+00 7.520773e+01 
1.309140e+00 7.292220e+01 
1.342970e+00 7.070998e+01 
1.378420e+00 6.851176e+01 
1.413200e+00 6.645697e+01 
1.448110e+00 6.449020e+01 
1.484090e+00 6.256069e+01 
1.518820e+00 6.078147e+01 
1.552880e+00 5.910907e+01 
1.588630e+00 5.742903e+01 
1.623230e+00 5.587342e+01 
1.657720e+00 5.438580e+01 
1.692450e+00 5.294880e+01 
1.726400e+00 5.159577e+01 
1.762200e+00 5.022432e+01 
1.797880e+00 4.891189e+01 
1.833270e+00 4.766010e+01 
1.869070e+00 4.644145e+01 
1.903200e+00 4.532243e+01 
1.937740e+00 4.423016e+01 
1.973190e+00 4.314836e+01 
2.007440e+00 4.214015e+01 
2.042160e+00 4.115280e+01 
2.077900e+00 4.017075e+01 
2.112390e+00 3.925600e+01 
2.146220e+00 3.838638e+01 
2.181600e+00 3.750634e+01 
2.216930e+00 3.665677e+01 
2.250760e+00 3.586913e+01 
2.286500e+00 3.506329e+01 
2.321770e+00 3.429353e+01 
2.355950e+00 3.357022e+01 
2.391280e+00 3.284424e+01 
2.426240e+00 3.214778e+01 
2.460670e+00 3.148280e+01 
2.495640e+00 3.082797e+01 
2.531080e+00 3.018219e+01 
2.566220e+00 2.956077e+01 
2.600830e+00 2.896667e+01 
2.635080e+00 2.839563e+01 
2.670340e+00 2.782301e+01 
2.705970e+00 2.726113e+01 
2.740040e+00 2.673901e+01 
2.774520e+00 2.622396e+01 
2.809730e+00 2.571210e+01 
2.844390e+00 2.522225e+01 
2.879960e+00 2.473271e+01 
2.914860e+00 2.426498e+01 
2.949410e+00 2.381446e+01 
2.984440e+00 2.336880e+01 
3.019760e+00 2.293130e+01 
3.054730e+00 2.250983e+01 
3.089030e+00 2.210561e+01 
3.124060e+00 2.170358e+01 
3.159560e+00 2.130647e+01 
3.194710e+00 2.092282e+01 
3.229010e+00 2.055812e+01 
3.263320e+00 2.020112e+01 
3.297930e+00 1.985007e+01 
3.332830e+00 1.950439e+01 
3.368040e+00 1.916392e+01 
3.403300e+00 1.883127e+01 
3.438450e+00 1.850716e+01 
3.473060e+00 1.819599e+01 
3.508440e+00 1.788467e+01 
3.543110e+00 1.758714e+01 
3.577470e+00 1.729843e+01 
3.613040e+00 1.700670e+01 
3.648120e+00 1.672528e+01 
3.682910e+00 1.645265e+01 
3.718050e+00 1.618327e+01 
3.753320e+00 1.591912e+01 
3.787980e+00 1.566524e+01 
3.822290e+00 1.541943e+01 
3.857020e+00 1.517579e+01 
3.891920e+00 1.493633e+01 
3.926650e+00 1.470294e+01 
3.961970e+00 1.447088e+01 
3.997360e+00 1.424328e+01 
4.031670e+00 1.402749e+01 
4.066330e+00 1.381380e+01 
4.101420e+00 1.360226e+01 
4.136200e+00 1.339662e+01 
4.170810e+00 1.319645e+01 
4.206250e+00 1.299550e+01 
4.241580e+00 1.279949e+01 
4.276300e+00 1.261071e+01 
4.310970e+00 1.242603e+01 
4.346120e+00 1.224266e+01 
4.380600e+00 1.206637e+01 
4.414730e+00 1.189544e+01 
4.450350e+00 1.172039e+01 
4.485320e+00 1.155212e+01 
4.519810e+00 1.138932e+01 
4.555430e+00 1.122451e+01 
4.590870e+00 1.106386e+01 
4.625480e+00 1.091001e+01 
4.659910e+00 1.075999e+01 
4.695230e+00 1.060892e+01 
4.729960e+00 1.046328e+01 
4.764450e+00 1.032138e+01 
4.799530e+00 1.017973e+01 
4.834910e+00 1.003964e+01 
4.869700e+00 9.904489e+00 
4.904370e+00 9.772343e+00 
4.939450e+00 9.641153e+00 
4.973940e+00 9.514559e+00 
5.008430e+00 9.390305e+00 
5.043810e+00 9.265140e+00 
5.078840e+00 9.143478e+00 
5.113500e+00 9.025307e+00 
5.148890e+00 8.906870e+00 
5.184210e+00 8.790838e+00 
5.219060e+00 8.678426e+00 
5.253660e+00 8.568814e+00 
5.288570e+00 8.460182e+00 
5.323420e+00 8.353676e+00 
5.358440e+00 8.248561e+00 
5.393590e+00 8.144911e+00 
5.428310e+00 8.044354e+00 
5.462800e+00 7.946199e+00 
5.497640e+00 7.848740e+00 
5.532670e+00 7.752467e+00 
5.567280e+00 7.658973e+00 
5.602000e+00 7.566755e+00 
5.637270e+00 7.474750e+00 
5.672410e+00 7.384649e+00 
5.707020e+00 7.297379e+00 
5.742040e+00 7.210609e+00 
5.777430e+00 7.124391e+00 
5.812210e+00 7.041049e+00 
5.846820e+00 6.959533e+00 
5.881610e+00 6.878930e+00 
5.916510e+00 6.799368e+00 
5.951600e+00 6.720742e+00 
5.986560e+00 6.643696e+00 
6.021830e+00 6.567202e+00 
6.056490e+00 6.493300e+00 
6.091160e+00 6.420597e+00 
6.125830e+00 6.349015e+00 
6.161090e+00 6.277390e+00 
6.195760e+00 6.208150e+00 
6.230420e+00 6.139982e+00 
6.265690e+00 6.071676e+00 
6.300950e+00 6.004569e+00 
6.335620e+00 5.939579e+00 
6.370880e+00 5.874475e+00 
6.405550e+00 5.811535e+00 
6.440220e+00 5.749570e+00 
6.475480e+00 5.687481e+00 
6.510150e+00 5.627368e+00 
6.544810e+00 5.568230e+00 
6.580080e+00 5.508927e+00 
6.614750e+00 5.451478e+00 
6.649410e+00 5.395038e+00 
6.684080e+00 5.339418e+00 
6.719340e+00 5.283658e+00 
6.754010e+00 5.229651e+00 
6.788680e+00 5.176495e+00 
6.823940e+00 5.123194e+00 
6.859800e+00 5.069758e+00 
6.894470e+00 5.018940e+00 
6.929140e+00 4.968864e+00 
6.963800e+00 4.919486e+00 
6.999070e+00 4.869937e+00 
7.033730e+00 4.822033e+00 
7.068400e+00 4.774761e+00 
7.103660e+00 4.727335e+00 
7.138330e+00 4.681389e+00 
7.173600e+00 4.635396e+00 
7.208260e+00 4.590801e+00 
7.243530e+00 4.546024e+00 
7.277600e+00 4.503420e+00 
7.312860e+00 4.459978e+00 
7.348120e+00 4.417109e+00 
7.382790e+00 4.375506e+00 
7.417460e+00 4.334534e+00 
7.452720e+00 4.293453e+00 
7.487390e+00 4.253578e+00 
7.522650e+00 4.213542e+00 
7.557320e+00 4.174782e+00 
7.591990e+00 4.136547e+00 
7.627250e+00 4.098152e+00 
7.662510e+00 4.060243e+00 
7.697180e+00 4.023543e+00 
7.731850e+00 3.987337e+00 
7.766510e+00 3.951587e+00 
7.801180e+00 3.916264e+00 
7.836440e+00 3.880883e+00 
7.871110e+00 3.846581e+00 
7.906380e+00 3.812111e+00 
7.941040e+00 3.778648e+00 
7.976310e+00 3.745060e+00 
8.011570e+00 3.711950e+00 
8.046240e+00 3.679785e+00 
8.080900e+00 3.648009e+00 
8.115570e+00 3.616627e+00 
8.150830e+00 3.585199e+00 
8.185500e+00 3.554660e+00 
8.220770e+00 3.523957e+00 
8.255430e+00 3.494138e+00 
8.290100e+00 3.464766e+00 
8.324770e+00 3.435744e+00 
8.359430e+00 3.407062e+00 
8.394700e+00 3.378211e+00 
8.429960e+00 3.349769e+00 
8.464630e+00 3.322191e+00 
8.499890e+00 3.294462e+00 
8.534560e+00 3.267505e+00 
8.569200e+00 3.240871e+00 
