# Parameters:
# omega_b = 0.022618, omega_m = 0.123858, n_s = 0.856299, h = 84.291339, w = -1.000000, sigma_8 = 0.734646
# z = 1.100000
#
# k[1/Mpc] # P(k):
8.694000e-04 1.027515e+04 
2.077466e-03 1.958816e+04 
3.285532e-03 2.599543e+04 
4.493598e-03 3.035415e+04 
5.701664e-03 3.315419e+04 
6.909730e-03 3.476467e+04 
8.117797e-03 3.551989e+04 
9.325863e-03 3.558888e+04 
1.053393e-02 3.512310e+04 
1.174199e-02 3.425072e+04 
1.295006e-02 3.305439e+04 
1.415813e-02 3.163687e+04 
1.536619e-02 3.007921e+04 
1.657426e-02 2.843037e+04 
1.778233e-02 2.670145e+04 
1.899039e-02 2.493843e+04 
2.019846e-02 2.324333e+04 
2.140652e-02 2.168387e+04 
2.261459e-02 2.025238e+04 
2.382266e-02 1.894647e+04 
2.503072e-02 1.776800e+04 
2.623879e-02 1.671337e+04 
2.744685e-02 1.578006e+04 
2.865492e-02 1.495882e+04 
2.986299e-02 1.423936e+04 
3.100100e-02 1.364913e+04 
3.220400e-02 1.310590e+04 
3.288100e-02 1.283490e+04 
3.424300e-02 1.235165e+04 
3.555100e-02 1.195143e+04 
3.686000e-02 1.160273e+04 
3.795000e-02 1.134208e+04 
3.929100e-02 1.104984e+04 
4.039800e-02 1.082247e+04 
4.164000e-02 1.057560e+04 
4.294400e-02 1.031309e+04 
4.415000e-02 1.006788e+04 
4.542900e-02 9.791957e+03 
4.660900e-02 9.529566e+03 
4.782300e-02 9.236958e+03 
4.892900e-02 8.961814e+03 
5.031200e-02 8.602623e+03 
5.155900e-02 8.266020e+03 
5.238100e-02 8.040814e+03 
5.378200e-02 7.654920e+03 
5.513400e-02 7.283482e+03 
5.627600e-02 6.975126e+03 
5.735300e-02 6.692542e+03 
5.870100e-02 6.353459e+03 
5.988700e-02 6.071813e+03 
6.113500e-02 5.794065e+03 
6.225900e-02 5.562531e+03 
6.340100e-02 5.346713e+03 
6.480200e-02 5.107258e+03 
6.601100e-02 4.925767e+03 
6.725500e-02 4.761441e+03 
6.829100e-02 4.642892e+03 
6.958600e-02 4.511845e+03 
7.071100e-02 4.414305e+03 
7.192300e-02 4.322963e+03 
7.307400e-02 4.247472e+03 
7.412300e-02 4.186521e+03 
7.550400e-02 4.116170e+03 
7.663100e-02 4.064025e+03 
7.791200e-02 4.009277e+03 
7.912700e-02 3.958728e+03 
8.027600e-02 3.910546e+03 
8.138400e-02 3.862853e+03 
8.272200e-02 3.802205e+03 
8.406100e-02 3.737174e+03 
8.534100e-02 3.668579e+03 
8.653800e-02 3.598717e+03 
8.759800e-02 3.533737e+03 
8.900300e-02 3.442653e+03 
9.009000e-02 3.368173e+03 
9.113300e-02 3.293588e+03 
9.239600e-02 3.202019e+03 
9.358000e-02 3.114513e+03 
9.496100e-02 3.011193e+03 
9.608400e-02 2.928288e+03 
9.727500e-02 2.842034e+03 
9.852600e-02 2.753468e+03 
9.973800e-02 2.671322e+03 
1.009000e-01 2.595779e+03 
1.020900e-01 2.523945e+03 
1.034000e-01 2.449769e+03 
1.046000e-01 2.386441e+03 
1.057200e-01 2.333900e+03 
1.069100e-01 2.281598e+03 
1.082500e-01 2.230135e+03 
1.093900e-01 2.191295e+03 
1.105400e-01 2.155257e+03 
1.116900e-01 2.124958e+03 
1.129600e-01 2.093912e+03 
1.142000e-01 2.068060e+03 
1.153300e-01 2.046120e+03 
1.166400e-01 2.022927e+03 
1.177800e-01 2.003712e+03 
1.190000e-01 1.983867e+03 
1.201200e-01 1.965015e+03 
1.213400e-01 1.944778e+03 
1.227100e-01 1.919412e+03 
1.238900e-01 1.897227e+03 
1.250700e-01 1.872602e+03 
1.263200e-01 1.845843e+03 
1.275500e-01 1.817284e+03 
1.287500e-01 1.788653e+03 
1.299900e-01 1.757517e+03 
1.311300e-01 1.728462e+03 
1.323500e-01 1.696442e+03 
1.335900e-01 1.664005e+03 
1.347100e-01 1.634478e+03 
1.359800e-01 1.601573e+03 
1.372100e-01 1.570018e+03 
1.384300e-01 1.539572e+03 
1.395700e-01 1.511947e+03 
1.407700e-01 1.483644e+03 
1.420300e-01 1.455497e+03 
1.432800e-01 1.428267e+03 
1.444500e-01 1.404666e+03 
1.456300e-01 1.381396e+03 
1.468900e-01 1.358344e+03 
1.480500e-01 1.337955e+03 
1.491700e-01 1.319322e+03 
1.503800e-01 1.300433e+03 
1.516400e-01 1.281440e+03 
1.528200e-01 1.265150e+03 
1.540200e-01 1.248911e+03 
1.551900e-01 1.234251e+03 
1.564300e-01 1.219226e+03 
1.576600e-01 1.204917e+03 
1.588700e-01 1.191474e+03 
1.600900e-01 1.178186e+03 
1.612700e-01 1.165766e+03 
1.625400e-01 1.152648e+03 
1.637600e-01 1.140129e+03 
1.649500e-01 1.128049e+03 
1.662200e-01 1.115302e+03 
1.674000e-01 1.103159e+03 
1.685000e-01 1.092032e+03 
1.697500e-01 1.079203e+03 
1.710300e-01 1.065911e+03 
1.722200e-01 1.053779e+03 
1.734400e-01 1.040739e+03 
1.746400e-01 1.028110e+03 
1.758700e-01 1.015187e+03 
1.770900e-01 1.002171e+03 
1.782700e-01 9.898074e+02 
1.794600e-01 9.773257e+02 
1.807000e-01 9.643981e+02 
1.819100e-01 9.520130e+02 
1.830100e-01 9.408820e+02 
1.842200e-01 9.288353e+02 
1.855000e-01 9.163316e+02 
1.867000e-01 9.049955e+02 
1.879200e-01 8.936709e+02 
1.890900e-01 8.830537e+02 
1.902800e-01 8.727340e+02 
1.915200e-01 8.621628e+02 
1.926900e-01 8.524568e+02 
1.939000e-01 8.429138e+02 
1.951700e-01 8.330648e+02 
1.963100e-01 8.244680e+02 
1.975100e-01 8.158300e+02 
1.987800e-01 8.068353e+02 
2.000100e-01 7.983524e+02 
2.012500e-01 7.901388e+02 
2.023400e-01 7.830254e+02 
2.036100e-01 7.748905e+02 
2.048900e-01 7.669383e+02 
2.060400e-01 7.599013e+02 
2.072200e-01 7.527863e+02 
2.084200e-01 7.456796e+02 
2.096900e-01 7.382714e+02 
2.109200e-01 7.312050e+02 
2.121100e-01 7.243963e+02 
2.132700e-01 7.178492e+02 
2.145200e-01 7.108957e+02 
2.157200e-01 7.042460e+02 
2.168800e-01 6.978751e+02 
2.180700e-01 6.914301e+02 
2.193400e-01 6.846134e+02 
2.206000e-01 6.778802e+02 
2.217500e-01 6.718214e+02 
2.229500e-01 6.655855e+02 
2.241400e-01 6.594185e+02 
2.253500e-01 6.532329e+02 
2.264900e-01 6.474839e+02 
2.277100e-01 6.414064e+02 
2.289900e-01 6.351116e+02 
2.301500e-01 6.294858e+02 
2.313600e-01 6.236962e+02 
2.325600e-01 6.180622e+02 
2.337700e-01 6.124576e+02 
2.350000e-01 6.068374e+02 
2.362000e-01 6.014599e+02 
2.374100e-01 5.961471e+02 
2.386500e-01 5.907752e+02 
2.399100e-01 5.853905e+02 
2.410400e-01 5.806926e+02 
2.422500e-01 5.757336e+02 
2.435000e-01 5.706776e+02 
2.447300e-01 5.657845e+02 
2.458700e-01 5.613731e+02 
2.470600e-01 5.568241e+02 
2.483300e-01 5.520311e+02 
2.495600e-01 5.474767e+02 
2.507600e-01 5.431266e+02 
2.519600e-01 5.388296e+02 
2.532200e-01 5.343739e+02 
2.543700e-01 5.303839e+02 
2.555500e-01 5.263560e+02 
2.568000e-01 5.221409e+02 
2.580100e-01 5.181103e+02 
2.592400e-01 5.140797e+02 
2.604100e-01 5.102984e+02 
2.616100e-01 5.064650e+02 
2.628400e-01 5.025821e+02 
2.640600e-01 4.987778e+02 
2.652200e-01 4.952026e+02 
2.664300e-01 4.915156e+02 
2.676500e-01 4.878412e+02 
2.688400e-01 4.842927e+02 
2.700700e-01 4.806636e+02 
2.712400e-01 4.772505e+02 
2.724800e-01 4.736741e+02 
2.736700e-01 4.702737e+02 
2.748800e-01 4.668474e+02 
2.761000e-01 4.634317e+02 
2.773200e-01 4.600545e+02 
2.785400e-01 4.567096e+02 
2.797000e-01 4.535524e+02 
2.808900e-01 4.503484e+02 
2.821400e-01 4.470201e+02 
2.833900e-01 4.437287e+02 
2.845500e-01 4.406903e+02 
2.857800e-01 4.375032e+02 
2.870300e-01 4.343002e+02 
2.882100e-01 4.313094e+02 
2.893900e-01 4.283423e+02 
2.906300e-01 4.252537e+02 
2.918900e-01 4.221499e+02 
2.930500e-01 4.193228e+02 
2.942500e-01 4.164267e+02 
2.954200e-01 4.136266e+02 
2.966500e-01 4.107136e+02 
2.978900e-01 4.078084e+02 
2.990400e-01 4.051418e+02 
3.002700e-01 4.023164e+02 
3.015100e-01 3.994970e+02 
3.026800e-01 3.968641e+02 
3.038500e-01 3.942574e+02 
3.050300e-01 3.916546e+02 
3.062600e-01 3.889706e+02 
3.075000e-01 3.862929e+02 
3.087000e-01 3.837280e+02 
3.099100e-01 3.811678e+02 
3.111200e-01 3.786361e+02 
3.123100e-01 3.761758e+02 
3.135300e-01 3.736785e+02 
3.147300e-01 3.712466e+02 
3.159900e-01 3.687188e+02 
3.171800e-01 3.663616e+02 
3.183700e-01 3.640313e+02 
3.196300e-01 3.615884e+02 
3.208400e-01 3.592657e+02 
3.220300e-01 3.570034e+02 
3.232000e-01 3.548084e+02 
3.244300e-01 3.525262e+02 
3.256700e-01 3.502479e+02 
3.269200e-01 3.479739e+02 
3.280800e-01 3.458835e+02 
3.292500e-01 3.438049e+02 
3.304800e-01 3.416435e+02 
3.317100e-01 3.395028e+02 
3.328900e-01 3.374682e+02 
3.340700e-01 3.354521e+02 
3.353600e-01 3.332805e+02 
3.365300e-01 3.313338e+02 
3.377100e-01 3.293880e+02 
3.389200e-01 3.274109e+02 
3.401600e-01 3.254034e+02 
3.413700e-01 3.234726e+02 
3.425300e-01 3.216450e+02 
3.437700e-01 3.197088e+02 
3.449800e-01 3.178367e+02 
3.461800e-01 3.159967e+02 
3.473600e-01 3.142074e+02 
3.485800e-01 3.123841e+02 
3.498100e-01 3.105623e+02 
3.510200e-01 3.087861e+02 
3.522000e-01 3.070690e+02 
3.533900e-01 3.053522e+02 
3.546400e-01 3.035782e+02 
3.558400e-01 3.018909e+02 
3.570600e-01 3.001904e+02 
3.582700e-01 2.985185e+02 
3.595000e-01 2.968336e+02 
3.607100e-01 2.951975e+02 
3.618900e-01 2.936207e+02 
3.631200e-01 2.919910e+02 
3.643200e-01 2.904147e+02 
3.655500e-01 2.888126e+02 
3.667300e-01 2.872885e+02 
3.679500e-01 2.857383e+02 
3.691900e-01 2.841760e+02 
3.703600e-01 2.827142e+02 
3.715700e-01 2.812147e+02 
3.727700e-01 2.797398e+02 
3.739900e-01 2.782566e+02 
3.752000e-01 2.768047e+02 
3.763900e-01 2.753883e+02 
3.775800e-01 2.739833e+02 
3.788200e-01 2.725312e+02 
3.800300e-01 2.711259e+02 
3.812100e-01 2.697711e+02 
3.824200e-01 2.683960e+02 
3.836100e-01 2.670544e+02 
3.848600e-01 2.656566e+02 
3.860400e-01 2.643475e+02 
3.872400e-01 2.630267e+02 
3.884600e-01 2.617007e+02 
3.896500e-01 2.604198e+02 
3.908700e-01 2.591169e+02 
3.920600e-01 2.578559e+02 
3.933100e-01 2.565418e+02 
3.945300e-01 2.552694e+02 
3.957200e-01 2.540437e+02 
3.969300e-01 2.528086e+02 
3.981700e-01 2.515527e+02 
3.993500e-01 2.503667e+02 
4.094840e-01 2.405561e+02 
4.272360e-01 2.249237e+02 
4.454600e-01 2.106039e+02 
4.630560e-01 1.981952e+02 
4.804610e-01 1.871061e+02 
4.980690e-01 1.769282e+02 
5.159230e-01 1.675454e+02 
5.317440e-01 1.599249e+02 
5.489640e-01 1.522985e+02 
5.671990e-01 1.449015e+02 
5.838690e-01 1.386771e+02 
6.018840e-01 1.324746e+02 
6.202330e-01 1.266643e+02 
6.379250e-01 1.214812e+02 
6.545410e-01 1.169754e+02 
6.714560e-01 1.126952e+02 
6.892080e-01 1.085121e+02 
7.066010e-01 1.046975e+02 
7.240540e-01 1.011167e+02 
7.420450e-01 9.767376e+01 
7.593780e-01 9.456776e+01 
7.764720e-01 9.168632e+01 
7.942840e-01 8.886286e+01 
8.116170e-01 8.627909e+01 
8.288310e-01 8.385959e+01 
8.462240e-01 8.154711e+01 
8.631980e-01 7.941008e+01 
8.810700e-01 7.727678e+01 
8.989410e-01 7.525590e+01 
9.166330e-01 7.335555e+01 
9.345640e-01 7.152474e+01 
9.515980e-01 6.986823e+01 
9.688720e-01 6.826429e+01 
9.865640e-01 6.669567e+01 
1.031870e+00 6.298047e+01 
1.063490e+00 6.061712e+01 
1.097920e+00 5.823172e+01 
1.134370e+00 5.589141e+01 
1.167730e+00 5.390149e+01 
1.203830e+00 5.188991e+01 
1.240470e+00 4.998500e+01 
1.275790e+00 4.826486e+01 
1.309140e+00 4.673704e+01 
1.342970e+00 4.527070e+01 
1.378420e+00 4.382068e+01 
1.413200e+00 4.247388e+01 
1.448110e+00 4.119184e+01 
1.484090e+00 3.993994e+01 
1.518820e+00 3.879121e+01 
1.552880e+00 3.771646e+01 
1.588630e+00 3.664078e+01 
1.623230e+00 3.564848e+01 
1.657720e+00 3.470250e+01 
1.692450e+00 3.379138e+01 
1.726400e+00 3.293646e+01 
1.762200e+00 3.207230e+01 
1.797880e+00 3.124710e+01 
1.833270e+00 3.046189e+01 
1.869070e+00 2.969920e+01 
1.903200e+00 2.899976e+01 
1.937740e+00 2.831820e+01 
1.973190e+00 2.764435e+01 
2.007440e+00 2.701701e+01 
2.042160e+00 2.640331e+01 
2.077900e+00 2.579373e+01 
2.112390e+00 2.522619e+01 
2.146220e+00 2.468739e+01 
2.181600e+00 2.414230e+01 
2.216930e+00 2.361646e+01 
2.250760e+00 2.312918e+01 
2.286500e+00 2.263080e+01 
2.321770e+00 2.215491e+01 
2.355950e+00 2.170771e+01 
2.391280e+00 2.125907e+01 
2.426240e+00 2.082854e+01 
2.460670e+00 2.041741e+01 
2.495640e+00 2.001258e+01 
2.531080e+00 1.961334e+01 
2.566220e+00 1.922907e+01 
2.600830e+00 1.886153e+01 
2.635080e+00 1.850806e+01 
2.670340e+00 1.815344e+01 
2.705970e+00 1.780535e+01 
2.740040e+00 1.748180e+01 
2.774520e+00 1.716249e+01 
2.809730e+00 1.684489e+01 
2.844390e+00 1.654072e+01 
2.879960e+00 1.623649e+01 
2.914860e+00 1.594564e+01 
2.949410e+00 1.566531e+01 
2.984440e+00 1.538768e+01 
3.019760e+00 1.511500e+01 
3.054730e+00 1.485217e+01 
3.089030e+00 1.459967e+01 
3.124060e+00 1.434839e+01 
3.159560e+00 1.410001e+01 
3.194710e+00 1.385973e+01 
3.229010e+00 1.363114e+01 
3.263320e+00 1.340697e+01 
3.297930e+00 1.318644e+01 
3.332830e+00 1.296916e+01 
3.368040e+00 1.275482e+01 
3.403300e+00 1.254514e+01 
3.438450e+00 1.234055e+01 
3.473060e+00 1.214400e+01 
3.508440e+00 1.194706e+01 
3.543110e+00 1.175872e+01 
3.577470e+00 1.157559e+01 
3.613040e+00 1.139043e+01 
3.648120e+00 1.121161e+01 
3.682910e+00 1.103820e+01 
3.718050e+00 1.086656e+01 
3.753320e+00 1.069810e+01 
3.787980e+00 1.053598e+01 
3.822290e+00 1.037881e+01 
3.857020e+00 1.022279e+01 
3.891920e+00 1.006930e+01 
3.926650e+00 9.919492e+00 
3.961970e+00 9.770385e+00 
3.997360e+00 9.623862e+00 
4.031670e+00 9.484857e+00 
4.066330e+00 9.346993e+00 
4.101420e+00 9.210457e+00 
4.136200e+00 9.077408e+00 
4.170810e+00 8.947858e+00 
4.206250e+00 8.817554e+00 
4.241580e+00 8.690370e+00 
4.276300e+00 8.567678e+00 
4.310970e+00 8.447523e+00 
4.346120e+00 8.328091e+00 
4.380600e+00 8.213095e+00 
4.414730e+00 8.101558e+00 
4.450350e+00 7.987040e+00 
4.485320e+00 7.876923e+00 
4.519810e+00 7.770202e+00 
4.555430e+00 7.662071e+00 
4.590870e+00 7.556567e+00 
4.625480e+00 7.455373e+00 
4.659910e+00 7.356663e+00 
4.695230e+00 7.257044e+00 
4.729960e+00 7.160947e+00 
4.764450e+00 7.067218e+00 
4.799530e+00 6.973506e+00 
4.834910e+00 6.880809e+00 
4.869700e+00 6.791194e+00 
4.904370e+00 6.703527e+00 
4.939450e+00 6.616423e+00 
4.973940e+00 6.532226e+00 
5.008430e+00 6.449566e+00 
5.043810e+00 6.366167e+00 
5.078840e+00 6.285019e+00 
5.113500e+00 6.206182e+00 
5.148890e+00 6.127003e+00 
5.184210e+00 6.049410e+00 
5.219060e+00 5.974181e+00 
5.253660e+00 5.900698e+00 
5.288570e+00 5.827857e+00 
5.323420e+00 5.756365e+00 
5.358440e+00 5.685724e+00 
5.393590e+00 5.616053e+00 
5.428310e+00 5.548361e+00 
5.462800e+00 5.482228e+00 
5.497640e+00 5.416552e+00 
5.532670e+00 5.351571e+00 
5.567280e+00 5.288426e+00 
5.602000e+00 5.226133e+00 
5.637270e+00 5.163888e+00 
5.672410e+00 5.102902e+00 
5.707020e+00 5.043825e+00 
5.742040e+00 4.984985e+00 
5.777430e+00 4.926493e+00 
5.812210e+00 4.869944e+00 
5.846820e+00 4.814560e+00 
5.881610e+00 4.759772e+00 
5.916510e+00 4.705686e+00 
5.951600e+00 4.652165e+00 
5.986560e+00 4.599683e+00 
6.021830e+00 4.547573e+00 
6.056490e+00 4.497178e+00 
6.091160e+00 4.447558e+00 
6.125830e+00 4.398699e+00 
6.161090e+00 4.349786e+00 
6.195760e+00 4.302456e+00 
6.230420e+00 4.255855e+00 
6.265690e+00 4.209152e+00 
6.300950e+00 4.163196e+00 
6.335620e+00 4.118687e+00 
6.370880e+00 4.074096e+00 
6.405550e+00 4.030949e+00 
6.440220e+00 3.988453e+00 
6.475480e+00 3.945870e+00 
6.510150e+00 3.904620e+00 
6.544810e+00 3.863999e+00 
6.580080e+00 3.823261e+00 
6.614750e+00 3.783794e+00 
6.649410e+00 3.744988e+00 
6.684080e+00 3.706736e+00 
6.719340e+00 3.668386e+00 
6.754010e+00 3.631229e+00 
6.788680e+00 3.594631e+00 
6.823940e+00 3.557931e+00 
6.859800e+00 3.521135e+00 
6.894470e+00 3.486120e+00 
6.929140e+00 3.451606e+00 
6.963800e+00 3.417571e+00 
6.999070e+00 3.383415e+00 
7.033730e+00 3.350364e+00 
7.068400e+00 3.317746e+00 
7.103660e+00 3.285021e+00 
7.138330e+00 3.253310e+00 
7.173600e+00 3.221556e+00 
7.208260e+00 3.190765e+00 
7.243530e+00 3.159847e+00 
7.277600e+00 3.130422e+00 
7.312860e+00 3.100410e+00 
7.348120e+00 3.070792e+00 
7.382790e+00 3.042049e+00 
7.417460e+00 3.013729e+00 
7.452720e+00 2.985326e+00 
7.487390e+00 2.957756e+00 
7.522650e+00 2.930075e+00 
7.557320e+00 2.903271e+00 
7.591990e+00 2.876830e+00 
7.627250e+00 2.850277e+00 
7.662510e+00 2.824059e+00 
7.697180e+00 2.798671e+00 
7.731850e+00 2.773621e+00 
7.766510e+00 2.748885e+00 
7.801180e+00 2.724444e+00 
7.836440e+00 2.699962e+00 
7.871110e+00 2.676227e+00 
7.906380e+00 2.652375e+00 
7.941040e+00 2.629218e+00 
7.976310e+00 2.605976e+00 
8.011570e+00 2.583065e+00 
8.046240e+00 2.560806e+00 
8.080900e+00 2.538817e+00 
8.115570e+00 2.517100e+00 
8.150830e+00 2.495351e+00 
8.185500e+00 2.474216e+00 
8.220770e+00 2.452968e+00 
8.255430e+00 2.432330e+00 
8.290100e+00 2.412006e+00 
8.324770e+00 2.391925e+00 
8.359430e+00 2.372078e+00 
8.394700e+00 2.352113e+00 
8.429960e+00 2.332435e+00 
8.464630e+00 2.313357e+00 
8.499890e+00 2.294174e+00 
8.534560e+00 2.275524e+00 
8.569200e+00 2.257098e+00 
