# Parameters:
# omega_b = 0.022587, omega_m = 0.150866, n_s = 0.878346, h = 65.157480, w = -1.000000, sigma_8 = 0.707874
# z = 1.100000
#
# k[1/Mpc] # P(k):
8.694000e-04 5.116010e+03 
2.077466e-03 1.020402e+04 
3.285532e-03 1.398544e+04 
4.493598e-03 1.680988e+04 
5.701664e-03 1.886331e+04 
6.909730e-03 2.028882e+04 
8.117797e-03 2.123245e+04 
9.325863e-03 2.176978e+04 
1.053393e-02 2.197435e+04 
1.174199e-02 2.191216e+04 
1.295006e-02 2.162434e+04 
1.415813e-02 2.116407e+04 
1.536619e-02 2.057599e+04 
1.657426e-02 1.989050e+04 
1.778233e-02 1.913511e+04 
1.899039e-02 1.834915e+04 
2.019846e-02 1.754956e+04 
2.140652e-02 1.675580e+04 
2.261459e-02 1.597863e+04 
2.382266e-02 1.523205e+04 
2.503072e-02 1.452609e+04 
2.623879e-02 1.386473e+04 
2.744685e-02 1.324898e+04 
2.865492e-02 1.268199e+04 
2.986299e-02 1.216285e+04 
3.100100e-02 1.171644e+04 
3.220400e-02 1.128763e+04 
3.288100e-02 1.106537e+04 
3.424300e-02 1.065619e+04 
3.555100e-02 1.030531e+04 
3.686000e-02 9.991400e+03 
3.795000e-02 9.753829e+03 
3.929100e-02 9.488287e+03 
4.039800e-02 9.286124e+03 
4.164000e-02 9.073152e+03 
4.294400e-02 8.860090e+03 
4.415000e-02 8.669980e+03 
4.542900e-02 8.469182e+03 
4.660900e-02 8.285321e+03 
4.782300e-02 8.089299e+03 
4.892900e-02 7.908390e+03 
5.031200e-02 7.675413e+03 
5.155900e-02 7.457605e+03 
5.238100e-02 7.310971e+03 
5.378200e-02 7.056822e+03 
5.513400e-02 6.806559e+03 
5.627600e-02 6.593344e+03 
5.735300e-02 6.392917e+03 
5.870100e-02 6.145017e+03 
5.988700e-02 5.932234e+03 
6.113500e-02 5.715048e+03 
6.225900e-02 5.526807e+03 
6.340100e-02 5.344147e+03 
6.480200e-02 5.132882e+03 
6.601100e-02 4.963183e+03 
6.725500e-02 4.801178e+03 
6.829100e-02 4.677042e+03 
6.958600e-02 4.533542e+03 
7.071100e-02 4.420290e+03 
7.192300e-02 4.308994e+03 
7.307400e-02 4.212864e+03 
7.412300e-02 4.132630e+03 
7.550400e-02 4.037451e+03 
7.663100e-02 3.966467e+03 
7.791200e-02 3.893532e+03 
7.912700e-02 3.830094e+03 
8.027600e-02 3.773732e+03 
8.138400e-02 3.721868e+03 
8.272200e-02 3.661595e+03 
8.406100e-02 3.602724e+03 
8.534100e-02 3.546394e+03 
8.653800e-02 3.492711e+03 
8.759800e-02 3.444483e+03 
8.900300e-02 3.378908e+03 
9.009000e-02 3.326305e+03 
9.113300e-02 3.273824e+03 
9.239600e-02 3.209158e+03 
9.358000e-02 3.146711e+03 
9.496100e-02 3.071261e+03 
9.608400e-02 3.009306e+03 
9.727500e-02 2.943593e+03 
9.852600e-02 2.872821e+03 
9.973800e-02 2.805267e+03 
1.009000e-01 2.741537e+03 
1.020900e-01 2.676916e+03 
1.034000e-01 2.608027e+03 
1.046000e-01 2.546949e+03 
1.057200e-01 2.492409e+03 
1.069100e-01 2.436627e+03 
1.082500e-01 2.377434e+03 
1.093900e-01 2.330082e+03 
1.105400e-01 2.284484e+03 
1.116900e-01 2.242612e+03 
1.129600e-01 2.198588e+03 
1.142000e-01 2.159336e+03 
1.153300e-01 2.125620e+03 
1.166400e-01 2.089288e+03 
1.177800e-01 2.060066e+03 
1.190000e-01 2.030298e+03 
1.201200e-01 2.005087e+03 
1.213400e-01 1.978536e+03 
1.227100e-01 1.950854e+03 
1.238900e-01 1.927729e+03 
1.250700e-01 1.905443e+03 
1.263200e-01 1.882288e+03 
1.275500e-01 1.859816e+03 
1.287500e-01 1.838016e+03 
1.299900e-01 1.815400e+03 
1.311300e-01 1.794432e+03 
1.323500e-01 1.771526e+03 
1.335900e-01 1.747945e+03 
1.347100e-01 1.726018e+03 
1.359800e-01 1.700957e+03 
1.372100e-01 1.675754e+03 
1.384300e-01 1.650756e+03 
1.395700e-01 1.626561e+03 
1.407700e-01 1.601505e+03 
1.420300e-01 1.574323e+03 
1.432800e-01 1.547993e+03 
1.444500e-01 1.523008e+03 
1.456300e-01 1.498368e+03 
1.468900e-01 1.472624e+03 
1.480500e-01 1.449447e+03 
1.491700e-01 1.427784e+03 
1.503800e-01 1.405188e+03 
1.516400e-01 1.382390e+03 
1.528200e-01 1.362414e+03 
1.540200e-01 1.342520e+03 
1.551900e-01 1.324608e+03 
1.564300e-01 1.306271e+03 
1.576600e-01 1.289043e+03 
1.588700e-01 1.273141e+03 
1.600900e-01 1.257470e+03 
1.612700e-01 1.243590e+03 
1.625400e-01 1.228932e+03 
1.637600e-01 1.215482e+03 
1.649500e-01 1.202814e+03 
1.662200e-01 1.189561e+03 
1.674000e-01 1.177571e+03 
1.685000e-01 1.166581e+03 
1.697500e-01 1.154164e+03 
1.710300e-01 1.141539e+03 
1.722200e-01 1.130011e+03 
1.734400e-01 1.117847e+03 
1.746400e-01 1.106068e+03 
1.758700e-01 1.093999e+03 
1.770900e-01 1.081818e+03 
1.782700e-01 1.070239e+03 
1.794600e-01 1.058428e+03 
1.807000e-01 1.046110e+03 
1.819100e-01 1.034299e+03 
1.830100e-01 1.023430e+03 
1.842200e-01 1.011617e+03 
1.855000e-01 9.993316e+02 
1.867000e-01 9.878408e+02 
1.879200e-01 9.763560e+02 
1.890900e-01 9.655280e+02 
1.902800e-01 9.547118e+02 
1.915200e-01 9.436289e+02 
1.926900e-01 9.333833e+02 
1.939000e-01 9.230875e+02 
1.951700e-01 9.124606e+02 
1.963100e-01 9.031347e+02 
1.975100e-01 8.936299e+02 
1.987800e-01 8.837328e+02 
2.000100e-01 8.743788e+02 
2.012500e-01 8.652745e+02 
2.023400e-01 8.573901e+02 
2.036100e-01 8.483835e+02 
2.048900e-01 8.396170e+02 
2.060400e-01 8.318596e+02 
2.072200e-01 8.240257e+02 
2.084200e-01 8.163128e+02 
2.096900e-01 8.082723e+02 
2.109200e-01 8.006026e+02 
2.121100e-01 7.933558e+02 
2.132700e-01 7.863941e+02 
2.145200e-01 7.789992e+02 
2.157200e-01 7.720190e+02 
2.168800e-01 7.653723e+02 
2.180700e-01 7.586469e+02 
2.193400e-01 7.515661e+02 
2.206000e-01 7.446329e+02 
2.217500e-01 7.383925e+02 
2.229500e-01 7.319679e+02 
2.241400e-01 7.256546e+02 
2.253500e-01 7.193216e+02 
2.264900e-01 7.134337e+02 
2.277100e-01 7.072032e+02 
2.289900e-01 7.007433e+02 
2.301500e-01 6.949682e+02 
2.313600e-01 6.890228e+02 
2.325600e-01 6.831911e+02 
2.337700e-01 6.773881e+02 
2.350000e-01 6.715675e+02 
2.362000e-01 6.659668e+02 
2.374100e-01 6.603968e+02 
2.386500e-01 6.547635e+02 
2.399100e-01 6.491155e+02 
2.410400e-01 6.441278e+02 
2.422500e-01 6.388545e+02 
2.435000e-01 6.334771e+02 
2.447300e-01 6.282603e+02 
2.458700e-01 6.235094e+02 
2.470600e-01 6.186098e+02 
2.483300e-01 6.134468e+02 
2.495600e-01 6.085209e+02 
2.507600e-01 6.037890e+02 
2.519600e-01 5.991145e+02 
2.532200e-01 5.942670e+02 
2.543700e-01 5.899119e+02 
2.555500e-01 5.855059e+02 
2.568000e-01 5.808947e+02 
2.580100e-01 5.764851e+02 
2.592400e-01 5.720702e+02 
2.604100e-01 5.679260e+02 
2.616100e-01 5.637245e+02 
2.628400e-01 5.594685e+02 
2.640600e-01 5.553042e+02 
2.652200e-01 5.513929e+02 
2.664300e-01 5.473590e+02 
2.676500e-01 5.433386e+02 
2.688400e-01 5.394655e+02 
2.700700e-01 5.355100e+02 
2.712400e-01 5.317898e+02 
2.724800e-01 5.278913e+02 
2.736700e-01 5.241934e+02 
2.748800e-01 5.204763e+02 
2.761000e-01 5.167704e+02 
2.773200e-01 5.131058e+02 
2.785400e-01 5.094817e+02 
2.797000e-01 5.060722e+02 
2.808900e-01 5.026117e+02 
2.821400e-01 4.990166e+02 
2.833900e-01 4.954616e+02 
2.845500e-01 4.921920e+02 
2.857800e-01 4.887620e+02 
2.870300e-01 4.853145e+02 
2.882100e-01 4.820950e+02 
2.893900e-01 4.789060e+02 
2.906300e-01 4.755888e+02 
2.918900e-01 4.722549e+02 
2.930500e-01 4.692178e+02 
2.942500e-01 4.661068e+02 
2.954200e-01 4.631004e+02 
2.966500e-01 4.599724e+02 
2.978900e-01 4.568523e+02 
2.990400e-01 4.539881e+02 
3.002700e-01 4.509520e+02 
3.015100e-01 4.479214e+02 
3.026800e-01 4.450909e+02 
3.038500e-01 4.422881e+02 
3.050300e-01 4.394892e+02 
3.062600e-01 4.365975e+02 
3.075000e-01 4.337123e+02 
3.087000e-01 4.309482e+02 
3.099100e-01 4.281888e+02 
3.111200e-01 4.254573e+02 
3.123100e-01 4.227983e+02 
3.135300e-01 4.200989e+02 
3.147300e-01 4.174699e+02 
3.159900e-01 4.147369e+02 
3.171800e-01 4.121831e+02 
3.183700e-01 4.096548e+02 
3.196300e-01 4.070040e+02 
3.208400e-01 4.044835e+02 
3.220300e-01 4.020281e+02 
3.232000e-01 3.996407e+02 
3.244300e-01 3.971562e+02 
3.256700e-01 3.946757e+02 
3.269200e-01 3.921995e+02 
3.280800e-01 3.899232e+02 
3.292500e-01 3.876548e+02 
3.304800e-01 3.852943e+02 
3.317100e-01 3.829561e+02 
3.328900e-01 3.807338e+02 
3.340700e-01 3.785314e+02 
3.353600e-01 3.761552e+02 
3.365300e-01 3.740235e+02 
3.377100e-01 3.718927e+02 
3.389200e-01 3.697273e+02 
3.401600e-01 3.675286e+02 
3.413700e-01 3.654122e+02 
3.425300e-01 3.634077e+02 
3.437700e-01 3.612840e+02 
3.449800e-01 3.592304e+02 
3.461800e-01 3.572119e+02 
3.473600e-01 3.552486e+02 
3.485800e-01 3.532471e+02 
3.498100e-01 3.512472e+02 
3.510200e-01 3.492972e+02 
3.522000e-01 3.474119e+02 
3.533900e-01 3.455269e+02 
3.546400e-01 3.435798e+02 
3.558400e-01 3.417279e+02 
3.570600e-01 3.398612e+02 
3.582700e-01 3.380258e+02 
3.595000e-01 3.361761e+02 
3.607100e-01 3.343808e+02 
3.618900e-01 3.326515e+02 
3.631200e-01 3.308641e+02 
3.643200e-01 3.291349e+02 
3.655500e-01 3.273775e+02 
3.667300e-01 3.257055e+02 
3.679500e-01 3.240079e+02 
3.691900e-01 3.222971e+02 
3.703600e-01 3.206961e+02 
3.715700e-01 3.190537e+02 
3.727700e-01 3.174382e+02 
3.739900e-01 3.158148e+02 
3.752000e-01 3.142281e+02 
3.763900e-01 3.126801e+02 
3.775800e-01 3.111444e+02 
3.788200e-01 3.095571e+02 
3.800300e-01 3.080208e+02 
3.812100e-01 3.065419e+02 
3.824200e-01 3.050425e+02 
3.836100e-01 3.035794e+02 
3.848600e-01 3.020548e+02 
3.860400e-01 3.006270e+02 
3.872400e-01 2.991862e+02 
3.884600e-01 2.977425e+02 
3.896500e-01 2.963489e+02 
3.908700e-01 2.949311e+02 
3.920600e-01 2.935589e+02 
3.933100e-01 2.921288e+02 
3.945300e-01 2.907439e+02 
3.957200e-01 2.894129e+02 
3.969300e-01 2.880726e+02 
3.981700e-01 2.867096e+02 
3.993500e-01 2.854224e+02 
4.094840e-01 2.747793e+02 
4.272360e-01 2.578672e+02 
4.454600e-01 2.423686e+02 
4.630560e-01 2.289042e+02 
4.804610e-01 2.168201e+02 
4.980690e-01 2.056708e+02 
5.159230e-01 1.953353e+02 
5.317440e-01 1.869010e+02 
5.489640e-01 1.784234e+02 
5.671990e-01 1.701681e+02 
5.838690e-01 1.632030e+02 
6.018840e-01 1.562473e+02 
6.202330e-01 1.497211e+02 
6.379250e-01 1.438933e+02 
6.545410e-01 1.388251e+02 
6.714560e-01 1.340078e+02 
6.892080e-01 1.292993e+02 
7.066010e-01 1.250052e+02 
7.240540e-01 1.209723e+02 
7.420450e-01 1.170941e+02 
7.593780e-01 1.135936e+02 
7.764720e-01 1.103438e+02 
7.942840e-01 1.071566e+02 
8.116170e-01 1.042367e+02 
8.288310e-01 1.014990e+02 
8.462240e-01 9.887801e+01 
8.631980e-01 9.645202e+01 
8.810700e-01 9.402554e+01 
8.989410e-01 9.172189e+01 
9.166330e-01 8.955067e+01 
9.345640e-01 8.745372e+01 
9.515980e-01 8.555161e+01 
9.688720e-01 8.370481e+01 
9.865640e-01 8.189313e+01 
1.031870e+00 7.758144e+01 
1.063490e+00 7.481997e+01 
1.097920e+00 7.201706e+01 
1.134370e+00 6.925096e+01 
1.167730e+00 6.688563e+01 
1.203830e+00 6.447920e+01 
1.240470e+00 6.218940e+01 
1.275790e+00 6.010876e+01 
1.309140e+00 5.825372e+01 
1.342970e+00 5.646270e+01 
1.378420e+00 5.468588e+01 
1.413200e+00 5.302797e+01 
1.448110e+00 5.144325e+01 
1.484090e+00 4.989118e+01 
1.518820e+00 4.846179e+01 
1.552880e+00 4.711987e+01 
1.588630e+00 4.577310e+01 
1.623230e+00 4.452780e+01 
1.657720e+00 4.333806e+01 
1.692450e+00 4.218936e+01 
1.726400e+00 4.110905e+01 
1.762200e+00 4.001520e+01 
1.797880e+00 3.896868e+01 
1.833270e+00 3.797155e+01 
1.869070e+00 3.700154e+01 
1.903200e+00 3.611095e+01 
1.937740e+00 3.524213e+01 
1.973190e+00 3.438230e+01 
2.007440e+00 3.358112e+01 
2.042160e+00 3.279667e+01 
2.077900e+00 3.201703e+01 
2.112390e+00 3.129066e+01 
2.146220e+00 3.060077e+01 
2.181600e+00 2.990251e+01 
2.216930e+00 2.922862e+01 
2.250760e+00 2.860402e+01 
2.286500e+00 2.796515e+01 
2.321770e+00 2.735500e+01 
2.355950e+00 2.678153e+01 
2.391280e+00 2.620621e+01 
2.426240e+00 2.565419e+01 
2.460670e+00 2.512713e+01 
2.495640e+00 2.460821e+01 
2.531080e+00 2.409662e+01 
2.566220e+00 2.360429e+01 
2.600830e+00 2.313352e+01 
2.635080e+00 2.268094e+01 
2.670340e+00 2.222700e+01 
2.705970e+00 2.178166e+01 
2.740040e+00 2.136791e+01 
2.774520e+00 2.095985e+01 
2.809730e+00 2.055413e+01 
2.844390e+00 2.016575e+01 
2.879960e+00 1.977750e+01 
2.914860e+00 1.940666e+01 
2.949410e+00 1.904943e+01 
2.984440e+00 1.869587e+01 
3.019760e+00 1.834886e+01 
3.054730e+00 1.801460e+01 
3.089030e+00 1.769377e+01 
3.124060e+00 1.737470e+01 
3.159560e+00 1.705959e+01 
3.194710e+00 1.675502e+01 
3.229010e+00 1.646542e+01 
3.263320e+00 1.618177e+01 
3.297930e+00 1.590287e+01 
3.332830e+00 1.562830e+01 
3.368040e+00 1.535774e+01 
3.403300e+00 1.509332e+01 
3.438450e+00 1.483557e+01 
3.473060e+00 1.458808e+01 
3.508440e+00 1.434044e+01 
3.543110e+00 1.410374e+01 
3.577470e+00 1.387391e+01 
3.613040e+00 1.364167e+01 
3.648120e+00 1.341765e+01 
3.682910e+00 1.320057e+01 
3.718050e+00 1.298597e+01 
3.753320e+00 1.277550e+01 
3.787980e+00 1.257316e+01 
3.822290e+00 1.237720e+01 
3.857020e+00 1.218290e+01 
3.891920e+00 1.199190e+01 
3.926650e+00 1.180568e+01 
3.961970e+00 1.162048e+01 
3.997360e+00 1.143877e+01 
4.031670e+00 1.126647e+01 
4.066330e+00 1.109579e+01 
4.101420e+00 1.092683e+01 
4.136200e+00 1.076248e+01 
4.170810e+00 1.060252e+01 
4.206250e+00 1.044189e+01 
4.241580e+00 1.028520e+01 
4.276300e+00 1.013422e+01 
4.310970e+00 9.986466e+00 
4.346120e+00 9.839734e+00 
4.380600e+00 9.698637e+00 
4.414730e+00 9.561829e+00 
4.450350e+00 9.421638e+00 
4.485320e+00 9.286872e+00 
4.519810e+00 9.156434e+00 
4.555430e+00 9.024369e+00 
4.590870e+00 8.895611e+00 
4.625480e+00 8.772272e+00 
4.659910e+00 8.651993e+00 
4.695230e+00 8.530822e+00 
4.729960e+00 8.413993e+00 
4.764450e+00 8.300138e+00 
4.799530e+00 8.186440e+00 
4.834910e+00 8.074003e+00 
4.869700e+00 7.965482e+00 
4.904370e+00 7.859370e+00 
4.939450e+00 7.754011e+00 
4.973940e+00 7.652308e+00 
5.008430e+00 7.552483e+00 
5.043810e+00 7.451899e+00 
5.078840e+00 7.354114e+00 
5.113500e+00 7.259135e+00 
5.148890e+00 7.163893e+00 
5.184210e+00 7.070584e+00 
5.219060e+00 6.980177e+00 
5.253660e+00 6.891997e+00 
5.288570e+00 6.804605e+00 
5.323420e+00 6.718911e+00 
5.358440e+00 6.634323e+00 
5.393590e+00 6.550914e+00 
5.428310e+00 6.469970e+00 
5.462800e+00 6.390945e+00 
5.497640e+00 6.312482e+00 
5.532670e+00 6.234949e+00 
5.567280e+00 6.159646e+00 
5.602000e+00 6.085373e+00 
5.637270e+00 6.011257e+00 
5.672410e+00 5.938674e+00 
5.707020e+00 5.868372e+00 
5.742040e+00 5.798451e+00 
5.777430e+00 5.728970e+00 
5.812210e+00 5.661809e+00 
5.846820e+00 5.596109e+00 
5.881610e+00 5.531143e+00 
5.916510e+00 5.467018e+00 
5.951600e+00 5.403636e+00 
5.986560e+00 5.341523e+00 
6.021830e+00 5.279856e+00 
6.056490e+00 5.220272e+00 
6.091160e+00 5.161648e+00 
6.125830e+00 5.103931e+00 
6.161090e+00 5.046177e+00 
6.195760e+00 4.990343e+00 
6.230420e+00 4.935373e+00 
6.265690e+00 4.880294e+00 
6.300950e+00 4.826173e+00 
6.335620e+00 4.773761e+00 
6.370880e+00 4.721259e+00 
6.405550e+00 4.670500e+00 
6.440220e+00 4.620529e+00 
6.475480e+00 4.570459e+00 
6.510150e+00 4.521981e+00 
6.544810e+00 4.474288e+00 
6.580080e+00 4.426463e+00 
6.614750e+00 4.380133e+00 
6.649410e+00 4.334621e+00 
6.684080e+00 4.289770e+00 
6.719340e+00 4.244809e+00 
6.754010e+00 4.201261e+00 
6.788680e+00 4.158400e+00 
6.823940e+00 4.115423e+00 
6.859800e+00 4.072338e+00 
6.894470e+00 4.031369e+00 
6.929140e+00 3.991001e+00 
6.963800e+00 3.951197e+00 
6.999070e+00 3.911256e+00 
7.033730e+00 3.872646e+00 
7.068400e+00 3.834545e+00 
7.103660e+00 3.796322e+00 
7.138330e+00 3.759295e+00 
7.173600e+00 3.722238e+00 
7.208260e+00 3.686307e+00 
7.243530e+00 3.650231e+00 
7.277600e+00 3.615909e+00 
7.312860e+00 3.580916e+00 
7.348120e+00 3.546386e+00 
7.382790e+00 3.512876e+00 
7.417460e+00 3.479880e+00 
7.452720e+00 3.446798e+00 
7.487390e+00 3.414688e+00 
7.522650e+00 3.382450e+00 
7.557320e+00 3.351249e+00 
7.591990e+00 3.320474e+00 
7.627250e+00 3.289571e+00 
7.662510e+00 3.259061e+00 
7.697180e+00 3.229530e+00 
7.731850e+00 3.200400e+00 
7.766510e+00 3.171636e+00 
7.801180e+00 3.143217e+00 
7.836440e+00 3.114761e+00 
7.871110e+00 3.087179e+00 
7.906380e+00 3.059463e+00 
7.941040e+00 3.032556e+00 
7.976310e+00 3.005554e+00 
8.011570e+00 2.978943e+00 
8.046240e+00 2.953091e+00 
8.080900e+00 2.927552e+00 
8.115570e+00 2.902333e+00 
8.150830e+00 2.877089e+00 
8.185500e+00 2.852559e+00 
8.220770e+00 2.827898e+00 
8.255430e+00 2.803946e+00 
8.290100e+00 2.780364e+00 
8.324770e+00 2.757064e+00 
8.359430e+00 2.734037e+00 
8.394700e+00 2.710874e+00 
8.429960e+00 2.688047e+00 
8.464630e+00 2.665922e+00 
8.499890e+00 2.643675e+00 
8.534560e+00 2.622047e+00 
8.569200e+00 2.600680e+00 
