# Parameters:
# omega_b = 0.021626, omega_m = 0.126339, n_s = 1.021654, h = 55.000000, w = -1.000000, sigma_8 = 0.825984
# z = 1.100000
#
# k[1/Mpc] # P(k):
8.694000e-04 7.081021e+03 
2.077466e-03 1.569171e+04 
3.285532e-03 2.257427e+04 
4.493598e-03 2.789771e+04 
5.701664e-03 3.186163e+04 
6.909730e-03 3.465936e+04 
8.117797e-03 3.652902e+04 
9.325863e-03 3.759574e+04 
1.053393e-02 3.799386e+04 
1.174199e-02 3.785298e+04 
1.295006e-02 3.725274e+04 
1.415813e-02 3.630228e+04 
1.536619e-02 3.510066e+04 
1.657426e-02 3.373041e+04 
1.778233e-02 3.234390e+04 
1.899039e-02 3.109036e+04 
2.019846e-02 2.983480e+04 
2.140652e-02 2.849775e+04 
2.261459e-02 2.714918e+04 
2.382266e-02 2.585767e+04 
2.503072e-02 2.464987e+04 
2.623879e-02 2.353286e+04 
2.744685e-02 2.250951e+04 
2.865492e-02 2.158091e+04 
2.986299e-02 2.074270e+04 
3.100100e-02 2.003272e+04 
3.220400e-02 1.935907e+04 
3.288100e-02 1.901302e+04 
3.424300e-02 1.837923e+04 
3.555100e-02 1.783651e+04 
3.686000e-02 1.734843e+04 
3.795000e-02 1.697516e+04 
3.929100e-02 1.654884e+04 
4.039800e-02 1.621600e+04 
4.164000e-02 1.585659e+04 
4.294400e-02 1.548373e+04 
4.415000e-02 1.514380e+04 
4.542900e-02 1.477597e+04 
4.660900e-02 1.443548e+04 
4.782300e-02 1.407021e+04 
4.892900e-02 1.373381e+04 
5.031200e-02 1.330385e+04 
5.155900e-02 1.290714e+04 
5.238100e-02 1.264339e+04 
5.378200e-02 1.219267e+04 
5.513400e-02 1.175832e+04 
5.627600e-02 1.139603e+04 
5.735300e-02 1.106212e+04 
5.870100e-02 1.065844e+04 
5.988700e-02 1.031966e+04 
6.113500e-02 9.980454e+03 
6.225900e-02 9.690617e+03 
6.340100e-02 9.411078e+03 
6.480200e-02 9.087096e+03 
6.601100e-02 8.824033e+03 
6.725500e-02 8.569118e+03 
6.829100e-02 8.370281e+03 
6.958600e-02 8.137022e+03 
7.071100e-02 7.950021e+03 
7.192300e-02 7.764066e+03 
7.307400e-02 7.601858e+03 
7.412300e-02 7.465535e+03 
7.550400e-02 7.302783e+03 
7.663100e-02 7.180891e+03 
7.791200e-02 7.055185e+03 
7.912700e-02 6.945460e+03 
8.027600e-02 6.847557e+03 
8.138400e-02 6.757008e+03 
8.272200e-02 6.650982e+03 
8.406100e-02 6.546339e+03 
8.534100e-02 6.444626e+03 
8.653800e-02 6.346238e+03 
8.759800e-02 6.256954e+03 
8.900300e-02 6.134264e+03 
9.009000e-02 6.034952e+03 
9.113300e-02 5.935424e+03 
9.239600e-02 5.812681e+03 
9.358000e-02 5.694353e+03 
9.496100e-02 5.552548e+03 
9.608400e-02 5.437190e+03 
9.727500e-02 5.315766e+03 
9.852600e-02 5.188136e+03 
9.973800e-02 5.067921e+03 
1.009000e-01 4.955809e+03 
1.020900e-01 4.845630e+03 
1.034000e-01 4.729663e+03 
1.046000e-01 4.628399e+03 
1.057200e-01 4.540311e+03 
1.069100e-01 4.450858e+03 
1.082500e-01 4.357771e+03 
1.093900e-01 4.283990e+03 
1.105400e-01 4.213318e+03 
1.116900e-01 4.148730e+03 
1.129600e-01 4.080699e+03 
1.142000e-01 4.019488e+03 
1.153300e-01 3.966277e+03 
1.166400e-01 3.907968e+03 
1.177800e-01 3.859556e+03 
1.190000e-01 3.809489e+03 
1.201200e-01 3.764752e+03 
1.213400e-01 3.717193e+03 
1.227100e-01 3.664182e+03 
1.238900e-01 3.619281e+03 
1.250700e-01 3.574070e+03 
1.263200e-01 3.526627e+03 
1.275500e-01 3.479547e+03 
1.287500e-01 3.433858e+03 
1.299900e-01 3.386434e+03 
1.311300e-01 3.343051e+03 
1.323500e-01 3.296503e+03 
1.335900e-01 3.249663e+03 
1.347100e-01 3.207469e+03 
1.359800e-01 3.160307e+03 
1.372100e-01 3.114928e+03 
1.384300e-01 3.070750e+03 
1.395700e-01 3.029928e+03 
1.407700e-01 2.987849e+03 
1.420300e-01 2.944462e+03 
1.432800e-01 2.902379e+03 
1.444500e-01 2.863952e+03 
1.456300e-01 2.825992e+03 
1.468900e-01 2.786708e+03 
1.480500e-01 2.751410e+03 
1.491700e-01 2.718244e+03 
1.503800e-01 2.683439e+03 
1.516400e-01 2.648069e+03 
1.528200e-01 2.616166e+03 
1.540200e-01 2.584354e+03 
1.551900e-01 2.554468e+03 
1.564300e-01 2.523534e+03 
1.576600e-01 2.493699e+03 
1.588700e-01 2.465210e+03 
1.600900e-01 2.437049e+03 
1.612700e-01 2.410659e+03 
1.625400e-01 2.382789e+03 
1.637600e-01 2.356619e+03 
1.649500e-01 2.331613e+03 
1.662200e-01 2.305413e+03 
1.674000e-01 2.281490e+03 
1.685000e-01 2.259564e+03 
1.697500e-01 2.234995e+03 
1.710300e-01 2.210216e+03 
1.722200e-01 2.187591e+03 
1.734400e-01 2.164536e+03 
1.746400e-01 2.142240e+03 
1.758700e-01 2.119706e+03 
1.770900e-01 2.097587e+03 
1.782700e-01 2.076554e+03 
1.794600e-01 2.055592e+03 
1.807000e-01 2.034048e+03 
1.819100e-01 2.013381e+03 
1.830100e-01 1.994819e+03 
1.842200e-01 1.974709e+03 
1.855000e-01 1.953795e+03 
1.867000e-01 1.934536e+03 
1.879200e-01 1.915273e+03 
1.890900e-01 1.897108e+03 
1.902800e-01 1.879008e+03 
1.915200e-01 1.860448e+03 
1.926900e-01 1.843252e+03 
1.939000e-01 1.825884e+03 
1.951700e-01 1.807943e+03 
1.963100e-01 1.792129e+03 
1.975100e-01 1.775845e+03 
1.987800e-01 1.758877e+03 
2.000100e-01 1.742756e+03 
2.012500e-01 1.726882e+03 
2.023400e-01 1.713128e+03 
2.036100e-01 1.697357e+03 
2.048900e-01 1.681796e+03 
2.060400e-01 1.668020e+03 
2.072200e-01 1.654087e+03 
2.084200e-01 1.640174e+03 
2.096900e-01 1.625665e+03 
2.109200e-01 1.611819e+03 
2.121100e-01 1.598563e+03 
2.132700e-01 1.585816e+03 
2.145200e-01 1.572271e+03 
2.157200e-01 1.559371e+03 
2.168800e-01 1.547033e+03 
2.180700e-01 1.534545e+03 
2.193400e-01 1.521317e+03 
2.206000e-01 1.508217e+03 
2.217500e-01 1.496424e+03 
2.229500e-01 1.484279e+03 
2.241400e-01 1.472102e+03 
2.253500e-01 1.459877e+03 
2.264900e-01 1.448510e+03 
2.277100e-01 1.436317e+03 
2.289900e-01 1.423493e+03 
2.301500e-01 1.412028e+03 
2.313600e-01 1.400220e+03 
2.325600e-01 1.388273e+03 
2.337700e-01 1.376385e+03 
2.350000e-01 1.364461e+03 
2.362000e-01 1.352823e+03 
2.374100e-01 1.341054e+03 
2.386500e-01 1.329154e+03 
2.399100e-01 1.317224e+03 
2.410400e-01 1.306446e+03 
2.422500e-01 1.295023e+03 
2.435000e-01 1.283378e+03 
2.447300e-01 1.272052e+03 
2.458700e-01 1.261608e+03 
2.470600e-01 1.250842e+03 
2.483300e-01 1.239500e+03 
2.495600e-01 1.228679e+03 
2.507600e-01 1.218282e+03 
2.519600e-01 1.208015e+03 
2.532200e-01 1.197371e+03 
2.543700e-01 1.187892e+03 
2.555500e-01 1.178361e+03 
2.568000e-01 1.168389e+03 
2.580100e-01 1.158855e+03 
2.592400e-01 1.149486e+03 
2.604100e-01 1.140769e+03 
2.616100e-01 1.131932e+03 
2.628400e-01 1.122983e+03 
2.640600e-01 1.114444e+03 
2.652200e-01 1.106510e+03 
2.664300e-01 1.098328e+03 
2.676500e-01 1.090174e+03 
2.688400e-01 1.082501e+03 
2.700700e-01 1.074779e+03 
2.712400e-01 1.067516e+03 
2.724800e-01 1.059904e+03 
2.736700e-01 1.052808e+03 
2.748800e-01 1.045801e+03 
2.761000e-01 1.038814e+03 
2.773200e-01 1.031904e+03 
2.785400e-01 1.025130e+03 
2.797000e-01 1.018884e+03 
2.808900e-01 1.012543e+03 
2.821400e-01 1.005954e+03 
2.833900e-01 9.994425e+02 
2.845500e-01 9.935766e+02 
2.857800e-01 9.874212e+02 
2.870300e-01 9.812328e+02 
2.882100e-01 9.754520e+02 
2.893900e-01 9.697802e+02 
2.906300e-01 9.639087e+02 
2.918900e-01 9.580056e+02 
2.930500e-01 9.526265e+02 
2.942500e-01 9.471264e+02 
2.954200e-01 9.418462e+02 
2.966500e-01 9.363507e+02 
2.978900e-01 9.308673e+02 
2.990400e-01 9.258320e+02 
3.002700e-01 9.205123e+02 
3.015100e-01 9.152097e+02 
3.026800e-01 9.102557e+02 
3.038500e-01 9.053488e+02 
3.050300e-01 9.004472e+02 
3.062600e-01 8.953959e+02 
3.075000e-01 8.903540e+02 
3.087000e-01 8.855224e+02 
3.099100e-01 8.806972e+02 
3.111200e-01 8.759210e+02 
3.123100e-01 8.712728e+02 
3.135300e-01 8.665525e+02 
3.147300e-01 8.619537e+02 
3.159900e-01 8.571713e+02 
3.171800e-01 8.527011e+02 
3.183700e-01 8.482744e+02 
3.196300e-01 8.436316e+02 
3.208400e-01 8.392153e+02 
3.220300e-01 8.349120e+02 
3.232000e-01 8.307223e+02 
3.244300e-01 8.263591e+02 
3.256700e-01 8.220015e+02 
3.269200e-01 8.176501e+02 
3.280800e-01 8.136486e+02 
3.292500e-01 8.096561e+02 
3.304800e-01 8.054991e+02 
3.317100e-01 8.013801e+02 
3.328900e-01 7.974638e+02 
3.340700e-01 7.935816e+02 
3.353600e-01 7.893844e+02 
3.365300e-01 7.856151e+02 
3.377100e-01 7.818461e+02 
3.389200e-01 7.780149e+02 
3.401600e-01 7.741235e+02 
3.413700e-01 7.703703e+02 
3.425300e-01 7.668101e+02 
3.437700e-01 7.630371e+02 
3.449800e-01 7.593876e+02 
3.461800e-01 7.557992e+02 
3.473600e-01 7.523051e+02 
3.485800e-01 7.487345e+02 
3.498100e-01 7.451657e+02 
3.510200e-01 7.416849e+02 
3.522000e-01 7.383187e+02 
3.533900e-01 7.349521e+02 
3.546400e-01 7.314621e+02 
3.558400e-01 7.281410e+02 
3.570600e-01 7.247927e+02 
3.582700e-01 7.214995e+02 
3.595000e-01 7.181798e+02 
3.607100e-01 7.149510e+02 
3.618900e-01 7.118355e+02 
3.631200e-01 7.086144e+02 
3.643200e-01 7.054976e+02 
3.655500e-01 7.023290e+02 
3.667300e-01 6.993138e+02 
3.679500e-01 6.962409e+02 
3.691900e-01 6.931431e+02 
3.703600e-01 6.902435e+02 
3.715700e-01 6.872684e+02 
3.727700e-01 6.843414e+02 
3.739900e-01 6.813959e+02 
3.752000e-01 6.785103e+02 
3.763900e-01 6.756946e+02 
3.775800e-01 6.729006e+02 
3.788200e-01 6.700122e+02 
3.800300e-01 6.672159e+02 
3.812100e-01 6.645182e+02 
3.824200e-01 6.617788e+02 
3.836100e-01 6.591054e+02 
3.848600e-01 6.563190e+02 
3.860400e-01 6.537089e+02 
3.872400e-01 6.510746e+02 
3.884600e-01 6.484278e+02 
3.896500e-01 6.458697e+02 
3.908700e-01 6.432669e+02 
3.920600e-01 6.407473e+02 
3.933100e-01 6.381208e+02 
3.945300e-01 6.355769e+02 
3.957200e-01 6.331270e+02 
3.969300e-01 6.306581e+02 
3.981700e-01 6.281470e+02 
3.993500e-01 6.257751e+02 
4.094840e-01 6.061018e+02 
4.272360e-01 5.746304e+02 
4.454600e-01 5.455667e+02 
4.630560e-01 5.201353e+02 
4.804610e-01 4.971598e+02 
4.980690e-01 4.758376e+02 
5.159230e-01 4.559552e+02 
5.317440e-01 4.396504e+02 
5.489640e-01 4.231703e+02 
5.671990e-01 4.070483e+02 
5.838690e-01 3.933856e+02 
6.018840e-01 3.796637e+02 
6.202330e-01 3.667111e+02 
6.379250e-01 3.551062e+02 
6.545410e-01 3.449454e+02 
6.714560e-01 3.352314e+02 
6.892080e-01 3.256991e+02 
7.066010e-01 3.169332e+02 
7.240540e-01 3.086647e+02 
7.420450e-01 3.006365e+02 
7.593780e-01 2.933305e+02 
7.764720e-01 2.864993e+02 
7.942840e-01 2.797501e+02 
8.116170e-01 2.735014e+02 
8.288310e-01 2.675794e+02 
8.462240e-01 2.618602e+02 
8.631980e-01 2.565052e+02 
8.810700e-01 2.511024e+02 
8.989410e-01 2.459164e+02 
9.166330e-01 2.409776e+02 
9.345640e-01 2.361616e+02 
9.515980e-01 2.317353e+02 
9.688720e-01 2.273919e+02 
9.865640e-01 2.230802e+02 
1.031870e+00 2.126505e+02 
1.063490e+00 2.058159e+02 
1.097920e+00 1.987572e+02 
1.134370e+00 1.916683e+02 
1.167730e+00 1.855013e+02 
1.203830e+00 1.791234e+02 
1.240470e+00 1.729751e+02 
1.275790e+00 1.673006e+02 
1.309140e+00 1.621998e+02 
1.342970e+00 1.572073e+02 
1.378420e+00 1.522129e+02 
1.413200e+00 1.475086e+02 
1.448110e+00 1.429808e+02 
1.484090e+00 1.385114e+02 
1.518820e+00 1.343716e+02 
1.552880e+00 1.304634e+02 
1.588630e+00 1.265262e+02 
1.623230e+00 1.228658e+02 
1.657720e+00 1.193561e+02 
1.692450e+00 1.159629e+02 
1.726400e+00 1.127590e+02 
1.762200e+00 1.095041e+02 
1.797880e+00 1.063901e+02 
1.833270e+00 1.034137e+02 
1.869070e+00 1.005142e+02 
1.903200e+00 9.785462e+01 
1.937740e+00 9.525758e+01 
1.973190e+00 9.268387e+01 
2.007440e+00 9.028793e+01 
2.042160e+00 8.794443e+01 
2.077900e+00 8.561235e+01 
2.112390e+00 8.344506e+01 
2.146220e+00 8.138334e+01 
2.181600e+00 7.930175e+01 
2.216930e+00 7.729476e+01 
2.250760e+00 7.543631e+01 
2.286500e+00 7.353723e+01 
2.321770e+00 7.172589e+01 
2.355950e+00 7.002850e+01 
2.391280e+00 6.832682e+01 
2.426240e+00 6.669857e+01 
2.460670e+00 6.514705e+01 
2.495640e+00 6.362137e+01 
2.531080e+00 6.211935e+01 
2.566220e+00 6.067761e+01 
2.600830e+00 5.930274e+01 
2.635080e+00 5.798463e+01 
2.670340e+00 5.666751e+01 
2.705970e+00 5.537704e+01 
2.740040e+00 5.417971e+01 
2.774520e+00 5.300057e+01 
2.809730e+00 5.183322e+01 
2.844390e+00 5.071919e+01 
2.879960e+00 4.960940e+01 
2.914860e+00 4.855087e+01 
2.949410e+00 4.753338e+01 
2.984440e+00 4.653111e+01 
3.019760e+00 4.554857e+01 
3.054730e+00 4.460350e+01 
3.089030e+00 4.370201e+01 
3.124060e+00 4.280675e+01 
3.159560e+00 4.192399e+01 
3.194710e+00 4.107452e+01 
3.229010e+00 4.026884e+01 
3.263320e+00 3.948386e+01 
3.297930e+00 3.871302e+01 
3.332830e+00 3.795524e+01 
3.368040e+00 3.721152e+01 
3.403300e+00 3.648702e+01 
3.438450e+00 3.578391e+01 
3.473060e+00 3.511008e+01 
3.508440e+00 3.443812e+01 
3.543110e+00 3.379707e+01 
3.577470e+00 3.317807e+01 
3.613040e+00 3.255350e+01 
3.648120e+00 3.195234e+01 
3.682910e+00 3.137144e+01 
3.718050e+00 3.079966e+01 
3.753320e+00 3.024029e+01 
3.787980e+00 2.970429e+01 
3.822290e+00 2.918662e+01 
3.857020e+00 2.867526e+01 
3.891920e+00 2.817378e+01 
3.926650e+00 2.768660e+01 
3.961970e+00 2.720322e+01 
3.997360e+00 2.673092e+01 
4.031670e+00 2.628382e+01 
4.066330e+00 2.584264e+01 
4.101420e+00 2.540635e+01 
4.136200e+00 2.498411e+01 
4.170810e+00 2.457349e+01 
4.206250e+00 2.416266e+01 
4.241580e+00 2.376247e+01 
4.276300e+00 2.337850e+01 
4.310970e+00 2.300381e+01 
4.346120e+00 2.263254e+01 
4.380600e+00 2.227667e+01 
4.414730e+00 2.193195e+01 
4.450350e+00 2.158059e+01 
4.485320e+00 2.124311e+01 
4.519810e+00 2.091773e+01 
4.555430e+00 2.058900e+01 
4.590870e+00 2.026914e+01 
4.625480e+00 1.996378e+01 
4.659910e+00 1.966620e+01 
4.695230e+00 1.936788e+01 
4.729960e+00 1.908062e+01 
4.764450e+00 1.880135e+01 
4.799530e+00 1.852343e+01 
4.834910e+00 1.824877e+01 
4.869700e+00 1.798475e+01 
4.904370e+00 1.772691e+01 
4.939450e+00 1.747135e+01 
4.973940e+00 1.722558e+01 
5.008430e+00 1.698449e+01 
5.043810e+00 1.674234e+01 
5.078840e+00 1.650741e+01 
5.113500e+00 1.627935e+01 
5.148890e+00 1.605178e+01 
5.184210e+00 1.582899e+01 
5.219060e+00 1.561345e+01 
5.253660e+00 1.540395e+01 
5.288570e+00 1.519641e+01 
5.323420e+00 1.499336e+01 
5.358440e+00 1.479340e+01 
5.393590e+00 1.459633e+01 
5.428310e+00 1.440570e+01 
5.462800e+00 1.421997e+01 
5.497640e+00 1.403563e+01 
5.532670e+00 1.385411e+01 
5.567280e+00 1.367807e+01 
5.602000e+00 1.350450e+01 
5.637270e+00 1.333181e+01 
5.672410e+00 1.316287e+01 
5.707020e+00 1.299930e+01 
5.742040e+00 1.283721e+01 
5.777430e+00 1.267631e+01 
5.812210e+00 1.252083e+01 
5.846820e+00 1.236916e+01 
5.881610e+00 1.221933e+01 
5.916510e+00 1.207149e+01 
5.951600e+00 1.192576e+01 
5.986560e+00 1.178315e+01 
6.021830e+00 1.164160e+01 
6.056490e+00 1.150512e+01 
6.091160e+00 1.137107e+01 
6.125830e+00 1.123913e+01 
6.161090e+00 1.110725e+01 
6.195760e+00 1.098004e+01 
6.230420e+00 1.085482e+01 
6.265690e+00 1.072940e+01 
6.300950e+00 1.060656e+01 
6.335620e+00 1.048762e+01 
6.370880e+00 1.036850e+01 
6.405550e+00 1.025355e+01 
6.440220e+00 1.014049e+01 
6.475480e+00 1.002723e+01 
6.510150e+00 9.917683e+00 
6.544810e+00 9.810140e+00 
6.580080e+00 9.702320e+00 
6.614750e+00 9.597892e+00 
6.649410e+00 9.495490e+00 
6.684080e+00 9.394629e+00 
6.719340e+00 9.293535e+00 
6.754010e+00 9.195705e+00 
6.788680e+00 9.099591e+00 
6.823940e+00 9.003234e+00 
6.859800e+00 8.906649e+00 
6.894470e+00 8.814928e+00 
6.929140e+00 8.724603e+00 
6.963800e+00 8.635552e+00 
6.999070e+00 8.546218e+00 
7.033730e+00 8.460010e+00 
7.068400e+00 8.374953e+00 
7.103660e+00 8.289631e+00 
7.138330e+00 8.207024e+00 
7.173600e+00 8.124424e+00 
7.208260e+00 8.044347e+00 
7.243530e+00 7.963953e+00 
7.277600e+00 7.887533e+00 
7.312860e+00 7.809677e+00 
7.348120e+00 7.732859e+00 
7.382790e+00 7.658321e+00 
7.417460e+00 7.584991e+00 
7.452720e+00 7.511510e+00 
7.487390e+00 7.440197e+00 
7.522650e+00 7.368607e+00 
7.557320e+00 7.299345e+00 
7.591990e+00 7.231044e+00 
7.627250e+00 7.162466e+00 
7.662510e+00 7.094766e+00 
7.697180e+00 7.029283e+00 
7.731850e+00 6.964710e+00 
7.766510e+00 6.900957e+00 
7.801180e+00 6.837973e+00 
7.836440e+00 6.774906e+00 
7.871110e+00 6.713780e+00 
7.906380e+00 6.652360e+00 
7.941040e+00 6.592742e+00 
7.976310e+00 6.532926e+00 
8.011570e+00 6.473992e+00 
8.046240e+00 6.416744e+00 
8.080900e+00 6.360195e+00 
8.115570e+00 6.304358e+00 
8.150830e+00 6.248454e+00 
8.185500e+00 6.194139e+00 
8.220770e+00 6.139537e+00 
8.255430e+00 6.086513e+00 
8.290100e+00 6.034316e+00 
8.324770e+00 5.982750e+00 
8.359430e+00 5.931793e+00 
8.394700e+00 5.880541e+00 
8.429960e+00 5.830018e+00 
8.464630e+00 5.781030e+00 
8.499890e+00 5.731779e+00 
8.534560e+00 5.683904e+00 
8.569200e+00 5.636609e+00 
