# Parameters:
# omega_b = 0.022051, omega_m = 0.130748, n_s = 0.922441, h = 81.929134, w = -1.000000, sigma_8 = 0.854331
# z = 1.100000
#
# k[1/Mpc] # P(k):
8.694000e-04 8.389463e+03 
2.077466e-03 1.708956e+04 
3.285532e-03 2.353910e+04 
4.493598e-03 2.825401e+04 
5.701664e-03 3.155932e+04 
6.909730e-03 3.373168e+04 
8.117797e-03 3.505032e+04 
9.325863e-03 3.565856e+04 
1.053393e-02 3.569172e+04 
1.174199e-02 3.526935e+04 
1.295006e-02 3.446949e+04 
1.415813e-02 3.339295e+04 
1.536619e-02 3.212145e+04 
1.657426e-02 3.070402e+04 
1.778233e-02 2.914484e+04 
1.899039e-02 2.748618e+04 
2.019846e-02 2.585269e+04 
2.140652e-02 2.433245e+04 
2.261459e-02 2.291835e+04 
2.382266e-02 2.160938e+04 
2.503072e-02 2.041232e+04 
2.623879e-02 1.932786e+04 
2.744685e-02 1.835645e+04 
2.865492e-02 1.749292e+04 
2.986299e-02 1.672943e+04 
3.100100e-02 1.609764e+04 
3.220400e-02 1.551198e+04 
3.288100e-02 1.521813e+04 
3.424300e-02 1.469188e+04 
3.555100e-02 1.425419e+04 
3.686000e-02 1.387188e+04 
3.795000e-02 1.358597e+04 
3.929100e-02 1.326587e+04 
4.039800e-02 1.301755e+04 
4.164000e-02 1.274858e+04 
4.294400e-02 1.246365e+04 
4.415000e-02 1.219793e+04 
4.542900e-02 1.189910e+04 
4.660900e-02 1.161453e+04 
4.782300e-02 1.129631e+04 
4.892900e-02 1.099602e+04 
5.031200e-02 1.060210e+04 
5.155900e-02 1.023056e+04 
5.238100e-02 9.980632e+03 
5.378200e-02 9.549759e+03 
5.513400e-02 9.131366e+03 
5.627600e-02 8.781024e+03 
5.735300e-02 8.457388e+03 
5.870100e-02 8.065382e+03 
5.988700e-02 7.736496e+03 
6.113500e-02 7.408912e+03 
6.225900e-02 7.133025e+03 
6.340100e-02 6.873418e+03 
6.480200e-02 6.582738e+03 
6.601100e-02 6.359874e+03 
6.725500e-02 6.156157e+03 
6.829100e-02 6.007598e+03 
6.958600e-02 5.842052e+03 
7.071100e-02 5.717548e+03 
7.192300e-02 5.599941e+03 
7.307400e-02 5.501996e+03 
7.412300e-02 5.422514e+03 
7.550400e-02 5.330551e+03 
7.663100e-02 5.262532e+03 
7.791200e-02 5.191912e+03 
7.912700e-02 5.127931e+03 
8.027600e-02 5.068049e+03 
8.138400e-02 5.009748e+03 
8.272200e-02 4.936904e+03 
8.406100e-02 4.859955e+03 
8.534100e-02 4.779743e+03 
8.653800e-02 4.698444e+03 
8.759800e-02 4.622879e+03 
8.900300e-02 4.516840e+03 
9.009000e-02 4.429836e+03 
9.113300e-02 4.342259e+03 
9.239600e-02 4.234229e+03 
9.358000e-02 4.130325e+03 
9.496100e-02 4.006586e+03 
9.608400e-02 3.906603e+03 
9.727500e-02 3.801991e+03 
9.852600e-02 3.693393e+03 
9.973800e-02 3.592027e+03 
1.009000e-01 3.498272e+03 
1.020900e-01 3.408042e+03 
1.034000e-01 3.314294e+03 
1.046000e-01 3.233677e+03 
1.057200e-01 3.165915e+03 
1.069100e-01 3.098106e+03 
1.082500e-01 3.030451e+03 
1.093900e-01 2.978819e+03 
1.105400e-01 2.930553e+03 
1.116900e-01 2.889235e+03 
1.129600e-01 2.846656e+03 
1.142000e-01 2.810659e+03 
1.153300e-01 2.780018e+03 
1.166400e-01 2.747483e+03 
1.177800e-01 2.720708e+03 
1.190000e-01 2.693141e+03 
1.201200e-01 2.667580e+03 
1.213400e-01 2.640249e+03 
1.227100e-01 2.607155e+03 
1.238900e-01 2.578443e+03 
1.250700e-01 2.547281e+03 
1.263200e-01 2.513644e+03 
1.275500e-01 2.478214e+03 
1.287500e-01 2.442854e+03 
1.299900e-01 2.404638e+03 
1.311300e-01 2.369011e+03 
1.323500e-01 2.329800e+03 
1.335900e-01 2.290006e+03 
1.347100e-01 2.253708e+03 
1.359800e-01 2.213132e+03 
1.372100e-01 2.174022e+03 
1.384300e-01 2.136139e+03 
1.395700e-01 2.101490e+03 
1.407700e-01 2.065913e+03 
1.420300e-01 2.030114e+03 
1.432800e-01 1.995445e+03 
1.444500e-01 1.964965e+03 
1.456300e-01 1.934889e+03 
1.468900e-01 1.904779e+03 
1.480500e-01 1.878039e+03 
1.491700e-01 1.853456e+03 
1.503800e-01 1.828348e+03 
1.516400e-01 1.803048e+03 
1.528200e-01 1.781141e+03 
1.540200e-01 1.759298e+03 
1.551900e-01 1.739466e+03 
1.564300e-01 1.719108e+03 
1.576600e-01 1.699703e+03 
1.588700e-01 1.681453e+03 
1.600900e-01 1.663415e+03 
1.612700e-01 1.646623e+03 
1.625400e-01 1.628885e+03 
1.637600e-01 1.612048e+03 
1.649500e-01 1.595851e+03 
1.662200e-01 1.578788e+03 
1.674000e-01 1.562700e+03 
1.685000e-01 1.547954e+03 
1.697500e-01 1.531039e+03 
1.710300e-01 1.513594e+03 
1.722200e-01 1.497667e+03 
1.734400e-01 1.480680e+03 
1.746400e-01 1.464226e+03 
1.758700e-01 1.447403e+03 
1.770900e-01 1.430497e+03 
1.782700e-01 1.414428e+03 
1.794600e-01 1.398205e+03 
1.807000e-01 1.381396e+03 
1.819100e-01 1.365283e+03 
1.830100e-01 1.350752e+03 
1.842200e-01 1.335009e+03 
1.855000e-01 1.318655e+03 
1.867000e-01 1.303739e+03 
1.879200e-01 1.288830e+03 
1.890900e-01 1.274828e+03 
1.902800e-01 1.261124e+03 
1.915200e-01 1.247079e+03 
1.926900e-01 1.234154e+03 
1.939000e-01 1.221364e+03 
1.951700e-01 1.208159e+03 
1.963100e-01 1.196606e+03 
1.975100e-01 1.184934e+03 
1.987800e-01 1.172777e+03 
2.000100e-01 1.161294e+03 
2.012500e-01 1.150143e+03 
2.023400e-01 1.140482e+03 
2.036100e-01 1.129430e+03 
2.048900e-01 1.118617e+03 
2.060400e-01 1.109046e+03 
2.072200e-01 1.099368e+03 
2.084200e-01 1.089721e+03 
2.096900e-01 1.079661e+03 
2.109200e-01 1.070064e+03 
2.121100e-01 1.060851e+03 
2.132700e-01 1.051993e+03 
2.145200e-01 1.042581e+03 
2.157200e-01 1.033611e+03 
2.168800e-01 1.025030e+03 
2.180700e-01 1.016345e+03 
2.193400e-01 1.007170e+03 
2.206000e-01 9.981271e+02 
2.217500e-01 9.899869e+02 
2.229500e-01 9.816057e+02 
2.241400e-01 9.733452e+02 
2.253500e-01 9.650573e+02 
2.264900e-01 9.573514e+02 
2.277100e-01 9.492076e+02 
2.289900e-01 9.407756e+02 
2.301500e-01 9.332367e+02 
2.313600e-01 9.254751e+02 
2.325600e-01 9.179221e+02 
2.337700e-01 9.104054e+02 
2.350000e-01 9.028647e+02 
2.362000e-01 8.956444e+02 
2.374100e-01 8.885055e+02 
2.386500e-01 8.812842e+02 
2.399100e-01 8.740428e+02 
2.410400e-01 8.677112e+02 
2.422500e-01 8.610240e+02 
2.435000e-01 8.542033e+02 
2.447300e-01 8.475970e+02 
2.458700e-01 8.416273e+02 
2.470600e-01 8.354693e+02 
2.483300e-01 8.289789e+02 
2.495600e-01 8.228020e+02 
2.507600e-01 8.168902e+02 
2.519600e-01 8.110489e+02 
2.532200e-01 8.049898e+02 
2.543700e-01 7.995534e+02 
2.555500e-01 7.940577e+02 
2.568000e-01 7.883047e+02 
2.580100e-01 7.828020e+02 
2.592400e-01 7.772877e+02 
2.604100e-01 7.721085e+02 
2.616100e-01 7.668565e+02 
2.628400e-01 7.615352e+02 
2.640600e-01 7.563119e+02 
2.652200e-01 7.513984e+02 
2.664300e-01 7.463301e+02 
2.676500e-01 7.412776e+02 
2.688400e-01 7.363932e+02 
2.700700e-01 7.313939e+02 
2.712400e-01 7.266909e+02 
2.724800e-01 7.217616e+02 
2.736700e-01 7.170717e+02 
2.748800e-01 7.123429e+02 
2.761000e-01 7.076273e+02 
2.773200e-01 7.029636e+02 
2.785400e-01 6.983435e+02 
2.797000e-01 6.939818e+02 
2.808900e-01 6.895541e+02 
2.821400e-01 6.849534e+02 
2.833900e-01 6.804025e+02 
2.845500e-01 6.762034e+02 
2.857800e-01 6.717975e+02 
2.870300e-01 6.673683e+02 
2.882100e-01 6.632313e+02 
2.893900e-01 6.591286e+02 
2.906300e-01 6.548581e+02 
2.918900e-01 6.505652e+02 
2.930500e-01 6.466539e+02 
2.942500e-01 6.426466e+02 
2.954200e-01 6.387728e+02 
2.966500e-01 6.347417e+02 
2.978900e-01 6.307200e+02 
2.990400e-01 6.270276e+02 
3.002700e-01 6.231156e+02 
3.015100e-01 6.192115e+02 
3.026800e-01 6.155645e+02 
3.038500e-01 6.119527e+02 
3.050300e-01 6.083452e+02 
3.062600e-01 6.046250e+02 
3.075000e-01 6.009122e+02 
3.087000e-01 5.973548e+02 
3.099100e-01 5.938027e+02 
3.111200e-01 5.902888e+02 
3.123100e-01 5.868722e+02 
3.135300e-01 5.834032e+02 
3.147300e-01 5.800239e+02 
3.159900e-01 5.765103e+02 
3.171800e-01 5.732312e+02 
3.183700e-01 5.699876e+02 
3.196300e-01 5.665861e+02 
3.208400e-01 5.633511e+02 
3.220300e-01 5.601992e+02 
3.232000e-01 5.571376e+02 
3.244300e-01 5.539523e+02 
3.256700e-01 5.507715e+02 
3.269200e-01 5.475957e+02 
3.280800e-01 5.446755e+02 
3.292500e-01 5.417685e+02 
3.304800e-01 5.387441e+02 
3.317100e-01 5.357476e+02 
3.328900e-01 5.328989e+02 
3.340700e-01 5.300754e+02 
3.353600e-01 5.270292e+02 
3.365300e-01 5.242961e+02 
3.377100e-01 5.215637e+02 
3.389200e-01 5.187864e+02 
3.401600e-01 5.159658e+02 
3.413700e-01 5.132493e+02 
3.425300e-01 5.106753e+02 
3.437700e-01 5.079477e+02 
3.449800e-01 5.053097e+02 
3.461800e-01 5.027161e+02 
3.473600e-01 5.001920e+02 
3.485800e-01 4.976158e+02 
3.498100e-01 4.950411e+02 
3.510200e-01 4.925302e+02 
3.522000e-01 4.901022e+02 
3.533900e-01 4.876741e+02 
3.546400e-01 4.851596e+02 
3.558400e-01 4.827672e+02 
3.570600e-01 4.803554e+02 
3.582700e-01 4.779835e+02 
3.595000e-01 4.755928e+02 
3.607100e-01 4.732680e+02 
3.618900e-01 4.710253e+02 
3.631200e-01 4.687067e+02 
3.643200e-01 4.664634e+02 
3.655500e-01 4.641831e+02 
3.667300e-01 4.620133e+02 
3.679500e-01 4.598014e+02 
3.691900e-01 4.575718e+02 
3.703600e-01 4.554850e+02 
3.715700e-01 4.533441e+02 
3.727700e-01 4.512379e+02 
3.739900e-01 4.491180e+02 
3.752000e-01 4.470401e+02 
3.763900e-01 4.450127e+02 
3.775800e-01 4.430011e+02 
3.788200e-01 4.409217e+02 
3.800300e-01 4.389088e+02 
3.812100e-01 4.369657e+02 
3.824200e-01 4.349917e+02 
3.836100e-01 4.330654e+02 
3.848600e-01 4.310579e+02 
3.860400e-01 4.291775e+02 
3.872400e-01 4.272798e+02 
3.884600e-01 4.253718e+02 
3.896500e-01 4.235273e+02 
3.908700e-01 4.216508e+02 
3.920600e-01 4.198343e+02 
3.933100e-01 4.179409e+02 
3.945300e-01 4.161072e+02 
3.957200e-01 4.143386e+02 
3.969300e-01 4.125555e+02 
3.981700e-01 4.107421e+02 
3.993500e-01 4.090294e+02 
4.094840e-01 3.948286e+02 
4.272360e-01 3.720856e+02 
4.454600e-01 3.511192e+02 
4.630560e-01 3.328374e+02 
4.804610e-01 3.164016e+02 
4.980690e-01 3.012315e+02 
5.159230e-01 2.871676e+02 
5.317440e-01 2.756897e+02 
5.489640e-01 2.641454e+02 
5.671990e-01 2.528963e+02 
5.838690e-01 2.433909e+02 
6.018840e-01 2.338744e+02 
6.202330e-01 2.249162e+02 
6.379250e-01 2.168992e+02 
6.545410e-01 2.098959e+02 
6.714560e-01 2.032153e+02 
6.892080e-01 1.966651e+02 
7.066010e-01 1.906605e+02 
7.240540e-01 1.850050e+02 
7.420450e-01 1.795357e+02 
7.593780e-01 1.745767e+02 
7.764720e-01 1.699557e+02 
7.942840e-01 1.654068e+02 
8.116170e-01 1.612187e+02 
8.288310e-01 1.572730e+02 
8.462240e-01 1.534820e+02 
8.631980e-01 1.499560e+02 
8.810700e-01 1.464180e+02 
8.989410e-01 1.430451e+02 
9.166330e-01 1.398545e+02 
9.345640e-01 1.367630e+02 
9.515980e-01 1.339452e+02 
9.688720e-01 1.311998e+02 
9.865640e-01 1.284964e+02 
1.031870e+00 1.220296e+02 
1.063490e+00 1.178586e+02 
1.097920e+00 1.136036e+02 
1.134370e+00 1.093820e+02 
1.167730e+00 1.057531e+02 
1.203830e+00 1.020440e+02 
1.240470e+00 9.850053e+01 
1.275790e+00 9.526590e+01 
1.309140e+00 9.237564e+01 
1.342970e+00 8.957349e+01 
1.378420e+00 8.678565e+01 
1.413200e+00 8.417705e+01 
1.448110e+00 8.167897e+01 
1.484090e+00 7.922495e+01 
1.518820e+00 7.696114e+01 
1.552880e+00 7.483223e+01 
1.588630e+00 7.269304e+01 
1.623230e+00 7.071037e+01 
1.657720e+00 6.881348e+01 
1.692450e+00 6.698178e+01 
1.726400e+00 6.525604e+01 
1.762200e+00 6.350565e+01 
1.797880e+00 6.183146e+01 
1.833270e+00 6.023340e+01 
1.869070e+00 5.867734e+01 
1.903200e+00 5.724921e+01 
1.937740e+00 5.585504e+01 
1.973190e+00 5.447364e+01 
2.007440e+00 5.318664e+01 
2.042160e+00 5.192671e+01 
2.077900e+00 5.067287e+01 
2.112390e+00 4.950591e+01 
2.146220e+00 4.839567e+01 
2.181600e+00 4.727286e+01 
2.216930e+00 4.618908e+01 
2.250760e+00 4.518434e+01 
2.286500e+00 4.415638e+01 
2.321770e+00 4.317456e+01 
2.355950e+00 4.225267e+01 
2.391280e+00 4.132720e+01 
2.426240e+00 4.043980e+01 
2.460670e+00 3.959276e+01 
2.495640e+00 3.875865e+01 
2.531080e+00 3.793597e+01 
2.566220e+00 3.714470e+01 
2.600830e+00 3.638855e+01 
2.635080e+00 3.566208e+01 
2.670340e+00 3.493414e+01 
2.705970e+00 3.421975e+01 
2.740040e+00 3.355587e+01 
2.774520e+00 3.290086e+01 
2.809730e+00 3.225052e+01 
2.844390e+00 3.162848e+01 
2.879960e+00 3.100720e+01 
2.914860e+00 3.041343e+01 
2.949410e+00 2.984161e+01 
2.984440e+00 2.927653e+01 
3.019760e+00 2.872164e+01 
3.054730e+00 2.818706e+01 
3.089030e+00 2.767502e+01 
3.124060e+00 2.716571e+01 
3.159560e+00 2.666256e+01 
3.194710e+00 2.617685e+01 
3.229010e+00 2.571530e+01 
3.263320e+00 2.526389e+01 
3.297930e+00 2.481999e+01 
3.332830e+00 2.438279e+01 
3.368040e+00 2.395242e+01 
3.403300e+00 2.353214e+01 
3.438450e+00 2.312295e+01 
3.473060e+00 2.273018e+01 
3.508440e+00 2.233726e+01 
3.543110e+00 2.196184e+01 
3.577470e+00 2.159789e+01 
3.613040e+00 2.123014e+01 
3.648120e+00 2.087534e+01 
3.682910e+00 2.053178e+01 
3.718050e+00 2.019252e+01 
3.753320e+00 1.985994e+01 
3.787980e+00 1.954042e+01 
3.822290e+00 1.923115e+01 
3.857020e+00 1.892473e+01 
3.891920e+00 1.862366e+01 
3.926650e+00 1.833036e+01 
3.961970e+00 1.803880e+01 
3.997360e+00 1.775299e+01 
4.031670e+00 1.748204e+01 
4.066330e+00 1.721384e+01 
4.101420e+00 1.694837e+01 
4.136200e+00 1.669042e+01 
4.170810e+00 1.643937e+01 
4.206250e+00 1.618737e+01 
4.241580e+00 1.594159e+01 
4.276300e+00 1.570503e+01 
4.310970e+00 1.547371e+01 
4.346120e+00 1.524407e+01 
4.380600e+00 1.502335e+01 
4.414730e+00 1.480937e+01 
4.450350e+00 1.459036e+01 
4.485320e+00 1.437985e+01 
4.519810e+00 1.417626e+01 
4.555430e+00 1.397023e+01 
4.590870e+00 1.376941e+01 
4.625480e+00 1.357717e+01 
4.659910e+00 1.338970e+01 
4.695230e+00 1.320105e+01 
4.729960e+00 1.301919e+01 
4.764450e+00 1.284204e+01 
4.799530e+00 1.266527e+01 
4.834910e+00 1.249047e+01 
4.869700e+00 1.232188e+01 
4.904370e+00 1.215705e+01 
4.939450e+00 1.199345e+01 
4.973940e+00 1.183564e+01 
5.008430e+00 1.168074e+01 
5.043810e+00 1.152476e+01 
5.078840e+00 1.137316e+01 
5.113500e+00 1.122591e+01 
5.148890e+00 1.107843e+01 
5.184210e+00 1.093395e+01 
5.219060e+00 1.079398e+01 
5.253660e+00 1.065754e+01 
5.288570e+00 1.052232e+01 
5.323420e+00 1.038977e+01 
5.358440e+00 1.025896e+01 
5.393590e+00 1.012998e+01 
5.428310e+00 1.000490e+01 
5.462800e+00 9.882820e+00 
5.497640e+00 9.761611e+00 
5.532670e+00 9.641918e+00 
5.567280e+00 9.525695e+00 
5.602000e+00 9.411057e+00 
5.637270e+00 9.296701e+00 
5.672410e+00 9.184715e+00 
5.707020e+00 9.076248e+00 
5.742040e+00 8.968439e+00 
5.777430e+00 8.861323e+00 
5.812210e+00 8.757779e+00 
5.846820e+00 8.656521e+00 
5.881610e+00 8.556398e+00 
5.916510e+00 8.457569e+00 
5.951600e+00 8.359920e+00 
5.986560e+00 8.264240e+00 
6.021830e+00 8.169245e+00 
6.056490e+00 8.077479e+00 
6.091160e+00 7.987210e+00 
6.125830e+00 7.898333e+00 
6.161090e+00 7.809405e+00 
6.195760e+00 7.723447e+00 
6.230420e+00 7.638817e+00 
6.265690e+00 7.554017e+00 
6.300950e+00 7.470715e+00 
6.335620e+00 7.390042e+00 
6.370880e+00 7.309225e+00 
6.405550e+00 7.231095e+00 
6.440220e+00 7.154175e+00 
6.475480e+00 7.077101e+00 
6.510150e+00 7.002479e+00 
6.544810e+00 6.929073e+00 
6.580080e+00 6.855460e+00 
6.614750e+00 6.784147e+00 
6.649410e+00 6.714084e+00 
6.684080e+00 6.645036e+00 
6.719340e+00 6.575814e+00 
6.754010e+00 6.508767e+00 
6.788680e+00 6.442780e+00 
6.823940e+00 6.376613e+00 
6.859800e+00 6.310275e+00 
6.894470e+00 6.247180e+00 
6.929140e+00 6.185002e+00 
6.963800e+00 6.123689e+00 
6.999070e+00 6.062163e+00 
7.033730e+00 6.002669e+00 
7.068400e+00 5.943959e+00 
7.103660e+00 5.885057e+00 
7.138330e+00 5.827989e+00 
7.173600e+00 5.770853e+00 
7.208260e+00 5.715453e+00 
7.243530e+00 5.659826e+00 
7.277600e+00 5.606893e+00 
7.312860e+00 5.552916e+00 
7.348120e+00 5.499650e+00 
7.382790e+00 5.447956e+00 
7.417460e+00 5.397039e+00 
7.452720e+00 5.345980e+00 
7.487390e+00 5.296420e+00 
7.522650e+00 5.246660e+00 
7.557320e+00 5.198471e+00 
7.591990e+00 5.150929e+00 
7.627250e+00 5.103187e+00 
7.662510e+00 5.056051e+00 
7.697180e+00 5.010406e+00 
7.731850e+00 4.965372e+00 
7.766510e+00 4.920903e+00 
7.801180e+00 4.876967e+00 
7.836440e+00 4.832941e+00 
7.871110e+00 4.790250e+00 
7.906380e+00 4.747349e+00 
7.941040e+00 4.705700e+00 
7.976310e+00 4.663890e+00 
8.011570e+00 4.622668e+00 
8.046240e+00 4.582621e+00 
8.080900e+00 4.543059e+00 
8.115570e+00 4.503982e+00 
8.150830e+00 4.464829e+00 
8.185500e+00 4.426784e+00 
8.220770e+00 4.388534e+00 
8.255430e+00 4.351385e+00 
8.290100e+00 4.314782e+00 
8.324770e+00 4.278614e+00 
8.359430e+00 4.242870e+00 
8.394700e+00 4.206915e+00 
8.429960e+00 4.171459e+00 
8.464630e+00 4.137067e+00 
8.499890e+00 4.102487e+00 
8.534560e+00 4.068870e+00 
8.569200e+00 4.035657e+00 
