# Parameters:
# omega_b = 0.021610, omega_m = 0.137638, n_s = 0.906693, h = 66.102362, w = -1.000000, sigma_8 = 0.851181
# z = 1.100000
#
# k[1/Mpc] # P(k):
8.694000e-04 8.440133e+03 
2.077466e-03 1.710498e+04 
3.285532e-03 2.352915e+04 
4.493598e-03 2.826384e+04 
5.701664e-03 3.163886e+04 
6.909730e-03 3.391228e+04 
8.117797e-03 3.534611e+04 
9.325863e-03 3.607639e+04 
1.053393e-02 3.623501e+04 
1.174199e-02 3.594050e+04 
1.295006e-02 3.526674e+04 
1.415813e-02 3.430947e+04 
1.536619e-02 3.314958e+04 
1.657426e-02 3.184337e+04 
1.778233e-02 3.044872e+04 
1.899039e-02 2.904031e+04 
2.019846e-02 2.763291e+04 
2.140652e-02 2.624894e+04 
2.261459e-02 2.491171e+04 
2.382266e-02 2.364692e+04 
2.503072e-02 2.246967e+04 
2.623879e-02 2.138414e+04 
2.744685e-02 2.039150e+04 
2.865492e-02 1.949191e+04 
2.986299e-02 1.868058e+04 
3.100100e-02 1.799378e+04 
3.220400e-02 1.734273e+04 
3.288100e-02 1.700881e+04 
3.424300e-02 1.639863e+04 
3.555100e-02 1.587846e+04 
3.686000e-02 1.541355e+04 
3.795000e-02 1.506044e+04 
3.929100e-02 1.466114e+04 
4.039800e-02 1.435223e+04 
4.164000e-02 1.402126e+04 
4.294400e-02 1.368101e+04 
4.415000e-02 1.337205e+04 
4.542900e-02 1.303867e+04 
4.660900e-02 1.273010e+04 
4.782300e-02 1.239819e+04 
4.892900e-02 1.209163e+04 
5.031200e-02 1.169812e+04 
5.155900e-02 1.133327e+04 
5.238100e-02 1.108982e+04 
5.378200e-02 1.067223e+04 
5.513400e-02 1.026754e+04 
5.627600e-02 9.927984e+03 
5.735300e-02 9.613026e+03 
5.870100e-02 9.229077e+03 
5.988700e-02 8.904063e+03 
6.113500e-02 8.576498e+03 
6.225900e-02 8.295940e+03 
6.340100e-02 8.026344e+03 
6.480200e-02 7.716890e+03 
6.601100e-02 7.470358e+03 
6.725500e-02 7.236357e+03 
6.829100e-02 7.057981e+03 
6.958600e-02 6.852336e+03 
7.071100e-02 6.690625e+03 
7.192300e-02 6.532065e+03 
7.307400e-02 6.395314e+03 
7.412300e-02 6.281242e+03 
7.550400e-02 6.145814e+03 
7.663100e-02 6.044546e+03 
7.791200e-02 5.939831e+03 
7.912700e-02 5.847742e+03 
8.027600e-02 5.764880e+03 
8.138400e-02 5.687592e+03 
8.272200e-02 5.596167e+03 
8.406100e-02 5.505049e+03 
8.534100e-02 5.415725e+03 
8.653800e-02 5.328992e+03 
8.759800e-02 5.250218e+03 
8.900300e-02 5.141995e+03 
9.009000e-02 5.054545e+03 
9.113300e-02 4.967118e+03 
9.239600e-02 4.859488e+03 
9.358000e-02 4.755949e+03 
9.496100e-02 4.632067e+03 
9.608400e-02 4.531352e+03 
9.727500e-02 4.425392e+03 
9.852600e-02 4.313862e+03 
9.973800e-02 4.208749e+03 
1.009000e-01 4.110680e+03 
1.020900e-01 4.014077e+03 
1.034000e-01 3.912386e+03 
1.046000e-01 3.823559e+03 
1.057200e-01 3.746335e+03 
1.069100e-01 3.668006e+03 
1.082500e-01 3.586744e+03 
1.093900e-01 3.522628e+03 
1.105400e-01 3.461396e+03 
1.116900e-01 3.405982e+03 
1.129600e-01 3.347847e+03 
1.142000e-01 3.296173e+03 
1.153300e-01 3.251534e+03 
1.166400e-01 3.203058e+03 
1.177800e-01 3.163186e+03 
1.190000e-01 3.122132e+03 
1.201200e-01 3.085736e+03 
1.213400e-01 3.047097e+03 
1.227100e-01 3.004132e+03 
1.238900e-01 2.967705e+03 
1.250700e-01 2.930896e+03 
1.263200e-01 2.892149e+03 
1.275500e-01 2.853438e+03 
1.287500e-01 2.815664e+03 
1.299900e-01 2.776135e+03 
1.311300e-01 2.739737e+03 
1.323500e-01 2.700332e+03 
1.335900e-01 2.660426e+03 
1.347100e-01 2.624149e+03 
1.359800e-01 2.583411e+03 
1.372100e-01 2.543832e+03 
1.384300e-01 2.505187e+03 
1.395700e-01 2.469188e+03 
1.407700e-01 2.432074e+03 
1.420300e-01 2.393550e+03 
1.432800e-01 2.356210e+03 
1.444500e-01 2.322063e+03 
1.456300e-01 2.288353e+03 
1.468900e-01 2.253622e+03 
1.480500e-01 2.222472e+03 
1.491700e-01 2.193370e+03 
1.503800e-01 2.163040e+03 
1.516400e-01 2.132326e+03 
1.528200e-01 2.105047e+03 
1.540200e-01 2.077854e+03 
1.551900e-01 2.052748e+03 
1.564300e-01 2.026875e+03 
1.576600e-01 2.002143e+03 
1.588700e-01 1.978792e+03 
1.600900e-01 1.955728e+03 
1.612700e-01 1.934442e+03 
1.625400e-01 1.911962e+03 
1.637600e-01 1.890936e+03 
1.649500e-01 1.870893e+03 
1.662200e-01 1.849883e+03 
1.674000e-01 1.830638e+03 
1.685000e-01 1.813001e+03 
1.697500e-01 1.793121e+03 
1.710300e-01 1.772957e+03 
1.722200e-01 1.754547e+03 
1.734400e-01 1.735482e+03 
1.746400e-01 1.717034e+03 
1.758700e-01 1.698290e+03 
1.770900e-01 1.679690e+03 
1.782700e-01 1.662007e+03 
1.794600e-01 1.644241e+03 
1.807000e-01 1.625890e+03 
1.819100e-01 1.608289e+03 
1.830100e-01 1.592374e+03 
1.842200e-01 1.575117e+03 
1.855000e-01 1.557175e+03 
1.867000e-01 1.540615e+03 
1.879200e-01 1.524057e+03 
1.890900e-01 1.508455e+03 
1.902800e-01 1.492949e+03 
1.915200e-01 1.477053e+03 
1.926900e-01 1.462352e+03 
1.939000e-01 1.447577e+03 
1.951700e-01 1.432319e+03 
1.963100e-01 1.418903e+03 
1.975100e-01 1.405170e+03 
1.987800e-01 1.390866e+03 
2.000100e-01 1.377307e+03 
2.012500e-01 1.364029e+03 
2.023400e-01 1.352526e+03 
2.036100e-01 1.339356e+03 
2.048900e-01 1.326430e+03 
2.060400e-01 1.314989e+03 
2.072200e-01 1.303423e+03 
2.084200e-01 1.291929e+03 
2.096900e-01 1.279945e+03 
2.109200e-01 1.268510e+03 
2.121100e-01 1.257614e+03 
2.132700e-01 1.247139e+03 
2.145200e-01 1.236011e+03 
2.157200e-01 1.225457e+03 
2.168800e-01 1.215384e+03 
2.180700e-01 1.205190e+03 
2.193400e-01 1.194429e+03 
2.206000e-01 1.183844e+03 
2.217500e-01 1.174315e+03 
2.229500e-01 1.164503e+03 
2.241400e-01 1.154800e+03 
2.253500e-01 1.145064e+03 
2.264900e-01 1.136011e+03 
2.277100e-01 1.126391e+03 
2.289900e-01 1.116372e+03 
2.301500e-01 1.107414e+03 
2.313600e-01 1.098191e+03 
2.325600e-01 1.089058e+03 
2.337700e-01 1.079971e+03 
2.350000e-01 1.070854e+03 
2.362000e-01 1.062044e+03 
2.374100e-01 1.053237e+03 
2.386500e-01 1.044330e+03 
2.399100e-01 1.035399e+03 
2.410400e-01 1.027455e+03 
2.422500e-01 1.019050e+03 
2.435000e-01 1.010479e+03 
2.447300e-01 1.002157e+03 
2.458700e-01 9.945500e+02 
2.470600e-01 9.867054e+02 
2.483300e-01 9.784392e+02 
2.495600e-01 9.705558e+02 
2.507600e-01 9.629872e+02 
2.519600e-01 9.555104e+02 
2.532200e-01 9.477570e+02 
2.543700e-01 9.408180e+02 
2.555500e-01 9.338158e+02 
2.568000e-01 9.264875e+02 
2.580100e-01 9.194795e+02 
2.592400e-01 9.125154e+02 
2.604100e-01 9.060009e+02 
2.616100e-01 8.993960e+02 
2.628400e-01 8.927052e+02 
2.640600e-01 8.862206e+02 
2.652200e-01 8.801539e+02 
2.664300e-01 8.738966e+02 
2.676500e-01 8.676599e+02 
2.688400e-01 8.617035e+02 
2.700700e-01 8.556526e+02 
2.712400e-01 8.499608e+02 
2.724800e-01 8.439956e+02 
2.736700e-01 8.383716e+02 
2.748800e-01 8.327536e+02 
2.761000e-01 8.271516e+02 
2.773200e-01 8.216114e+02 
2.785400e-01 8.161486e+02 
2.797000e-01 8.110445e+02 
2.808900e-01 8.058632e+02 
2.821400e-01 8.004796e+02 
2.833900e-01 7.951565e+02 
2.845500e-01 7.902961e+02 
2.857800e-01 7.851963e+02 
2.870300e-01 7.800695e+02 
2.882100e-01 7.752808e+02 
2.893900e-01 7.705538e+02 
2.906300e-01 7.656450e+02 
2.918900e-01 7.607103e+02 
2.930500e-01 7.562141e+02 
2.942500e-01 7.516114e+02 
2.954200e-01 7.471748e+02 
2.966500e-01 7.425578e+02 
2.978900e-01 7.379514e+02 
2.990400e-01 7.337220e+02 
3.002700e-01 7.292455e+02 
3.015100e-01 7.247800e+02 
3.026800e-01 7.206083e+02 
3.038500e-01 7.164768e+02 
3.050300e-01 7.123500e+02 
3.062600e-01 7.080933e+02 
3.075000e-01 7.038449e+02 
3.087000e-01 6.997742e+02 
3.099100e-01 6.957092e+02 
3.111200e-01 6.916861e+02 
3.123100e-01 6.877714e+02 
3.135300e-01 6.837964e+02 
3.147300e-01 6.799241e+02 
3.159900e-01 6.758976e+02 
3.171800e-01 6.721360e+02 
3.183700e-01 6.684125e+02 
3.196300e-01 6.645075e+02 
3.208400e-01 6.607936e+02 
3.220300e-01 6.571749e+02 
3.232000e-01 6.536549e+02 
3.244300e-01 6.499908e+02 
3.256700e-01 6.463317e+02 
3.269200e-01 6.426781e+02 
3.280800e-01 6.393186e+02 
3.292500e-01 6.359698e+02 
3.304800e-01 6.324841e+02 
3.317100e-01 6.290306e+02 
3.328900e-01 6.257473e+02 
3.340700e-01 6.224930e+02 
3.353600e-01 6.189784e+02 
3.365300e-01 6.158237e+02 
3.377100e-01 6.126695e+02 
3.389200e-01 6.094636e+02 
3.401600e-01 6.062076e+02 
3.413700e-01 6.030698e+02 
3.425300e-01 6.000953e+02 
3.437700e-01 5.969432e+02 
3.449800e-01 5.938945e+02 
3.461800e-01 5.908972e+02 
3.473600e-01 5.879798e+02 
3.485800e-01 5.850013e+02 
3.498100e-01 5.820245e+02 
3.510200e-01 5.791213e+02 
3.522000e-01 5.763140e+02 
3.533900e-01 5.735064e+02 
3.546400e-01 5.705994e+02 
3.558400e-01 5.678333e+02 
3.570600e-01 5.650448e+02 
3.582700e-01 5.623025e+02 
3.595000e-01 5.595382e+02 
3.607100e-01 5.568512e+02 
3.618900e-01 5.542597e+02 
3.631200e-01 5.515805e+02 
3.643200e-01 5.489884e+02 
3.655500e-01 5.463532e+02 
3.667300e-01 5.438458e+02 
3.679500e-01 5.412926e+02 
3.691900e-01 5.387190e+02 
3.703600e-01 5.363101e+02 
3.715700e-01 5.338387e+02 
3.727700e-01 5.314073e+02 
3.739900e-01 5.289613e+02 
3.752000e-01 5.265660e+02 
3.763900e-01 5.242289e+02 
3.775800e-01 5.219099e+02 
3.788200e-01 5.195127e+02 
3.800300e-01 5.171921e+02 
3.812100e-01 5.149542e+02 
3.824200e-01 5.126824e+02 
3.836100e-01 5.104654e+02 
3.848600e-01 5.081548e+02 
3.860400e-01 5.059906e+02 
3.872400e-01 5.038063e+02 
3.884600e-01 5.016128e+02 
3.896500e-01 4.994933e+02 
3.908700e-01 4.973369e+02 
3.920600e-01 4.952494e+02 
3.933100e-01 4.930735e+02 
3.945300e-01 4.909662e+02 
3.957200e-01 4.889371e+02 
3.969300e-01 4.868924e+02 
3.981700e-01 4.848128e+02 
3.993500e-01 4.828487e+02 
4.094840e-01 4.665712e+02 
4.272360e-01 4.405686e+02 
4.454600e-01 4.166132e+02 
4.630560e-01 3.957095e+02 
4.804610e-01 3.768807e+02 
4.980690e-01 3.594585e+02 
5.159230e-01 3.432626e+02 
5.317440e-01 3.300146e+02 
5.489640e-01 3.166604e+02 
5.671990e-01 3.036259e+02 
5.838690e-01 2.926002e+02 
6.018840e-01 2.815510e+02 
6.202330e-01 2.711437e+02 
6.379250e-01 2.618291e+02 
6.545410e-01 2.536909e+02 
6.714560e-01 2.459248e+02 
6.892080e-01 2.383119e+02 
7.066010e-01 2.313289e+02 
7.240540e-01 2.247505e+02 
7.420450e-01 2.183825e+02 
7.593780e-01 2.126025e+02 
7.764720e-01 2.072105e+02 
7.942840e-01 2.018963e+02 
8.116170e-01 1.969938e+02 
8.288310e-01 1.923647e+02 
8.462240e-01 1.879082e+02 
8.631980e-01 1.837523e+02 
8.810700e-01 1.795728e+02 
8.989410e-01 1.755771e+02 
9.166330e-01 1.717865e+02 
9.345640e-01 1.681037e+02 
9.515980e-01 1.647352e+02 
9.688720e-01 1.614431e+02 
9.865640e-01 1.581899e+02 
1.031870e+00 1.503706e+02 
1.063490e+00 1.452921e+02 
1.097920e+00 1.400826e+02 
1.134370e+00 1.348872e+02 
1.167730e+00 1.303977e+02 
1.203830e+00 1.257854e+02 
1.240470e+00 1.213623e+02 
1.275790e+00 1.173055e+02 
1.309140e+00 1.136715e+02 
1.342970e+00 1.101344e+02 
1.378420e+00 1.066077e+02 
1.413200e+00 1.032989e+02 
1.448110e+00 1.001242e+02 
1.484090e+00 9.700007e+01 
1.518820e+00 9.411391e+01 
1.552880e+00 9.139606e+01 
1.588630e+00 8.866314e+01 
1.623230e+00 8.612792e+01 
1.657720e+00 8.370099e+01 
1.692450e+00 8.135716e+01 
1.726400e+00 7.914798e+01 
1.762200e+00 7.690683e+01 
1.797880e+00 7.476393e+01 
1.833270e+00 7.271831e+01 
1.869070e+00 7.072726e+01 
1.903200e+00 6.890116e+01 
1.937740e+00 6.711911e+01 
1.973190e+00 6.535433e+01 
2.007440e+00 6.371154e+01 
2.042160e+00 6.210476e+01 
2.077900e+00 6.050673e+01 
2.112390e+00 5.902097e+01 
2.146220e+00 5.760848e+01 
2.181600e+00 5.618172e+01 
2.216930e+00 5.480602e+01 
2.250760e+00 5.353197e+01 
2.286500e+00 5.222985e+01 
2.321770e+00 5.098761e+01 
2.355950e+00 4.982276e+01 
2.391280e+00 4.865488e+01 
2.426240e+00 4.753663e+01 
2.460670e+00 4.647055e+01 
2.495640e+00 4.542192e+01 
2.531080e+00 4.438920e+01 
2.566220e+00 4.339730e+01 
2.600830e+00 4.245073e+01 
2.635080e+00 4.154257e+01 
2.670340e+00 4.063426e+01 
2.705970e+00 3.974396e+01 
2.740040e+00 3.891758e+01 
2.774520e+00 3.810338e+01 
2.809730e+00 3.729642e+01 
2.844390e+00 3.652567e+01 
2.879960e+00 3.575712e+01 
2.914860e+00 3.502371e+01 
2.949410e+00 3.431828e+01 
2.984440e+00 3.362250e+01 
3.019760e+00 3.294014e+01 
3.054730e+00 3.228347e+01 
3.089030e+00 3.165604e+01 
3.124060e+00 3.103264e+01 
3.159560e+00 3.041760e+01 
3.194710e+00 2.982502e+01 
3.229010e+00 2.926255e+01 
3.263320e+00 2.871371e+01 
3.297930e+00 2.817451e+01 
3.332830e+00 2.764420e+01 
3.368040e+00 2.712310e+01 
3.403300e+00 2.661494e+01 
3.438450e+00 2.612117e+01 
3.473060e+00 2.564766e+01 
3.508440e+00 2.517497e+01 
3.543110e+00 2.472375e+01 
3.577470e+00 2.428734e+01 
3.613040e+00 2.384677e+01 
3.648120e+00 2.342241e+01 
3.682910e+00 2.301199e+01 
3.718050e+00 2.260748e+01 
3.753320e+00 2.221144e+01 
3.787980e+00 2.183156e+01 
3.822290e+00 2.146435e+01 
3.857020e+00 2.110119e+01 
3.891920e+00 2.074477e+01 
3.926650e+00 2.039814e+01 
3.961970e+00 2.005395e+01 
3.997360e+00 1.971720e+01 
4.031670e+00 1.939825e+01 
4.066330e+00 1.908315e+01 
4.101420e+00 1.877143e+01 
4.136200e+00 1.846927e+01 
4.170810e+00 1.817532e+01 
4.206250e+00 1.788087e+01 
4.241580e+00 1.759390e+01 
4.276300e+00 1.731821e+01 
4.310970e+00 1.704895e+01 
4.346120e+00 1.678195e+01 
4.380600e+00 1.652575e+01 
4.414730e+00 1.627750e+01 
4.450350e+00 1.602403e+01 
4.485320e+00 1.578050e+01 
4.519810e+00 1.554542e+01 
4.555430e+00 1.530776e+01 
4.590870e+00 1.507635e+01 
4.625480e+00 1.485520e+01 
4.659910e+00 1.463963e+01 
4.695230e+00 1.442317e+01 
4.729960e+00 1.421466e+01 
4.764450e+00 1.401178e+01 
4.799530e+00 1.380966e+01 
4.834910e+00 1.360987e+01 
4.869700e+00 1.341756e+01 
4.904370e+00 1.322967e+01 
4.939450e+00 1.304334e+01 
4.973940e+00 1.286392e+01 
5.008430e+00 1.268789e+01 
5.043810e+00 1.251089e+01 
5.078840e+00 1.233906e+01 
5.113500e+00 1.217222e+01 
5.148890e+00 1.200547e+01 
5.184210e+00 1.184219e+01 
5.219060e+00 1.168415e+01 
5.253660e+00 1.153035e+01 
5.288570e+00 1.137797e+01 
5.323420e+00 1.122878e+01 
5.358440e+00 1.108174e+01 
5.393590e+00 1.093679e+01 
5.428310e+00 1.079644e+01 
5.462800e+00 1.065961e+01 
5.497640e+00 1.052378e+01 
5.532670e+00 1.038988e+01 
5.567280e+00 1.025995e+01 
5.602000e+00 1.013184e+01 
5.637270e+00 1.000424e+01 
5.672410e+00 9.879375e+00 
5.707020e+00 9.758461e+00 
5.742040e+00 9.638497e+00 
5.777430e+00 9.519373e+00 
5.812210e+00 9.404251e+00 
5.846820e+00 9.291847e+00 
5.881610e+00 9.180768e+00 
5.916510e+00 9.071151e+00 
5.951600e+00 8.963002e+00 
5.986560e+00 8.857116e+00 
6.021830e+00 8.752013e+00 
6.056490e+00 8.650597e+00 
6.091160e+00 8.550932e+00 
6.125830e+00 8.452826e+00 
6.161090e+00 8.354734e+00 
6.195760e+00 8.260040e+00 
6.230420e+00 8.166830e+00 
6.265690e+00 8.073457e+00 
6.300950e+00 7.981899e+00 
6.335620e+00 7.893248e+00 
6.370880e+00 7.804458e+00 
6.405550e+00 7.718724e+00 
6.440220e+00 7.634369e+00 
6.475480e+00 7.549862e+00 
6.510150e+00 7.468098e+00 
6.544810e+00 7.387772e+00 
6.580080e+00 7.307235e+00 
6.614750e+00 7.229226e+00 
6.649410e+00 7.152686e+00 
6.684080e+00 7.077285e+00 
6.719340e+00 7.001706e+00 
6.754010e+00 6.928547e+00 
6.788680e+00 6.856632e+00 
6.823940e+00 6.784531e+00 
6.859800e+00 6.712257e+00 
6.894470e+00 6.643592e+00 
6.929140e+00 6.575958e+00 
6.963800e+00 6.509277e+00 
6.999070e+00 6.442378e+00 
7.033730e+00 6.377782e+00 
7.068400e+00 6.314045e+00 
7.103660e+00 6.250109e+00 
7.138330e+00 6.188197e+00 
7.173600e+00 6.126272e+00 
7.208260e+00 6.066237e+00 
7.243530e+00 6.005963e+00 
7.277600e+00 5.948654e+00 
7.312860e+00 5.890256e+00 
7.348120e+00 5.832635e+00 
7.382790e+00 5.776722e+00 
7.417460e+00 5.721699e+00 
7.452720e+00 5.666554e+00 
7.487390e+00 5.613033e+00 
7.522650e+00 5.559304e+00 
7.557320e+00 5.507316e+00 
7.591990e+00 5.456048e+00 
7.627250e+00 5.404571e+00 
7.662510e+00 5.353751e+00 
7.697180e+00 5.304585e+00 
7.731850e+00 5.256099e+00 
7.766510e+00 5.208226e+00 
7.801180e+00 5.160930e+00 
7.836440e+00 5.113572e+00 
7.871110e+00 5.067672e+00 
7.906380e+00 5.021550e+00 
7.941040e+00 4.976780e+00 
7.976310e+00 4.931860e+00 
8.011570e+00 4.887601e+00 
8.046240e+00 4.844607e+00 
8.080900e+00 4.802137e+00 
8.115570e+00 4.760201e+00 
8.150830e+00 4.718218e+00 
8.185500e+00 4.677427e+00 
8.220770e+00 4.636420e+00 
8.255430e+00 4.596596e+00 
8.290100e+00 4.557396e+00 
8.324770e+00 4.518669e+00 
8.359430e+00 4.480398e+00 
8.394700e+00 4.441904e+00 
8.429960e+00 4.403963e+00 
8.464630e+00 4.367179e+00 
8.499890e+00 4.330197e+00 
8.534560e+00 4.294247e+00 
8.569200e+00 4.258731e+00 
