# Parameters:
# omega_b = 0.022492, omega_m = 0.129921, n_s = 0.936614, h = 81.220472, w = -1.000000, sigma_8 = 0.759843
# z = 1.100000
#
# k[1/Mpc] # P(k):
8.694000e-04 6.451568e+03 
2.077466e-03 1.330948e+04 
3.285532e-03 1.844012e+04 
4.493598e-03 2.221526e+04 
5.701664e-03 2.487609e+04 
6.909730e-03 2.663603e+04 
8.117797e-03 2.771454e+04 
9.325863e-03 2.822418e+04 
1.053393e-02 2.827188e+04 
1.174199e-02 2.795243e+04 
1.295006e-02 2.732809e+04 
1.415813e-02 2.647960e+04 
1.536619e-02 2.547262e+04 
1.657426e-02 2.434764e+04 
1.778233e-02 2.311307e+04 
1.899039e-02 2.180757e+04 
2.019846e-02 2.052254e+04 
2.140652e-02 1.932178e+04 
2.261459e-02 1.820160e+04 
2.382266e-02 1.716350e+04 
2.503072e-02 1.621343e+04 
2.623879e-02 1.535220e+04 
2.744685e-02 1.458027e+04 
2.865492e-02 1.389373e+04 
2.986299e-02 1.328653e+04 
3.100100e-02 1.278400e+04 
3.220400e-02 1.231826e+04 
3.288100e-02 1.208472e+04 
3.424300e-02 1.166692e+04 
3.555100e-02 1.132010e+04 
3.686000e-02 1.101808e+04 
3.795000e-02 1.079292e+04 
3.929100e-02 1.054200e+04 
4.039800e-02 1.034808e+04 
4.164000e-02 1.013861e+04 
4.294400e-02 9.917148e+03 
4.415000e-02 9.710556e+03 
4.542900e-02 9.477707e+03 
4.660900e-02 9.255397e+03 
4.782300e-02 9.005542e+03 
4.892900e-02 8.768878e+03 
5.031200e-02 8.456950e+03 
5.155900e-02 8.161276e+03 
5.238100e-02 7.961692e+03 
5.378200e-02 7.616519e+03 
5.513400e-02 7.280116e+03 
5.627600e-02 6.997724e+03 
5.735300e-02 6.736493e+03 
5.870100e-02 6.419840e+03 
5.988700e-02 6.154201e+03 
6.113500e-02 5.889791e+03 
6.225900e-02 5.667372e+03 
6.340100e-02 5.458379e+03 
6.480200e-02 5.224774e+03 
6.601100e-02 5.046140e+03 
6.725500e-02 4.883264e+03 
6.829100e-02 4.764922e+03 
6.958600e-02 4.633463e+03 
7.071100e-02 4.535070e+03 
7.192300e-02 4.442577e+03 
7.307400e-02 4.365954e+03 
7.412300e-02 4.304070e+03 
7.550400e-02 4.232848e+03 
7.663100e-02 4.180340e+03 
7.791200e-02 4.125894e+03 
7.912700e-02 4.076422e+03 
8.027600e-02 4.029911e+03 
8.138400e-02 3.984400e+03 
8.272200e-02 3.927170e+03 
8.406100e-02 3.866331e+03 
8.534100e-02 3.802539e+03 
8.653800e-02 3.737651e+03 
8.759800e-02 3.677238e+03 
8.900300e-02 3.592346e+03 
9.009000e-02 3.522635e+03 
9.113300e-02 3.452441e+03 
9.239600e-02 3.365838e+03 
9.358000e-02 3.282514e+03 
9.496100e-02 3.183222e+03 
9.608400e-02 3.102940e+03 
9.727500e-02 3.018902e+03 
9.852600e-02 2.931485e+03 
9.973800e-02 2.849812e+03 
1.009000e-01 2.774211e+03 
1.020900e-01 2.701269e+03 
1.034000e-01 2.625426e+03 
1.046000e-01 2.560144e+03 
1.057200e-01 2.505192e+03 
1.069100e-01 2.450199e+03 
1.082500e-01 2.395321e+03 
1.093900e-01 2.353479e+03 
1.105400e-01 2.314389e+03 
1.116900e-01 2.281050e+03 
1.129600e-01 2.246753e+03 
1.142000e-01 2.217945e+03 
1.153300e-01 2.193522e+03 
1.166400e-01 2.167749e+03 
1.177800e-01 2.146699e+03 
1.190000e-01 2.125103e+03 
1.201200e-01 2.105214e+03 
1.213400e-01 2.083971e+03 
1.227100e-01 2.058310e+03 
1.238900e-01 2.036032e+03 
1.250700e-01 2.011799e+03 
1.263200e-01 1.985589e+03 
1.275500e-01 1.957871e+03 
1.287500e-01 1.930116e+03 
1.299900e-01 1.899983e+03 
1.311300e-01 1.871784e+03 
1.323500e-01 1.840598e+03 
1.335900e-01 1.808831e+03 
1.347100e-01 1.779705e+03 
1.359800e-01 1.747055e+03 
1.372100e-01 1.715400e+03 
1.384300e-01 1.684678e+03 
1.395700e-01 1.656424e+03 
1.407700e-01 1.627406e+03 
1.420300e-01 1.598039e+03 
1.432800e-01 1.569612e+03 
1.444500e-01 1.544530e+03 
1.456300e-01 1.519790e+03 
1.468900e-01 1.495033e+03 
1.480500e-01 1.473054e+03 
1.491700e-01 1.452894e+03 
1.503800e-01 1.432359e+03 
1.516400e-01 1.411705e+03 
1.528200e-01 1.393964e+03 
1.540200e-01 1.376277e+03 
1.551900e-01 1.360385e+03 
1.564300e-01 1.344113e+03 
1.576600e-01 1.328692e+03 
1.588700e-01 1.314297e+03 
1.600900e-01 1.300077e+03 
1.612700e-01 1.286974e+03 
1.625400e-01 1.273134e+03 
1.637600e-01 1.260025e+03 
1.649500e-01 1.247433e+03 
1.662200e-01 1.234160e+03 
1.674000e-01 1.221606e+03 
1.685000e-01 1.210099e+03 
1.697500e-01 1.196842e+03 
1.710300e-01 1.183112e+03 
1.722200e-01 1.170578e+03 
1.734400e-01 1.157066e+03 
1.746400e-01 1.143975e+03 
1.758700e-01 1.130546e+03 
1.770900e-01 1.116962e+03 
1.782700e-01 1.104053e+03 
1.794600e-01 1.090960e+03 
1.807000e-01 1.077356e+03 
1.819100e-01 1.064317e+03 
1.830100e-01 1.052513e+03 
1.842200e-01 1.039720e+03 
1.855000e-01 1.026433e+03 
1.867000e-01 1.014297e+03 
1.879200e-01 1.002170e+03 
1.890900e-01 9.907846e+02 
1.902800e-01 9.796574e+02 
1.915200e-01 9.682561e+02 
1.926900e-01 9.577744e+02 
1.939000e-01 9.474311e+02 
1.951700e-01 9.367538e+02 
1.963100e-01 9.274269e+02 
1.975100e-01 9.180390e+02 
1.987800e-01 9.082618e+02 
2.000100e-01 8.990414e+02 
2.012500e-01 8.901173e+02 
2.023400e-01 8.823874e+02 
2.036100e-01 8.735516e+02 
2.048900e-01 8.649341e+02 
2.060400e-01 8.573071e+02 
2.072200e-01 8.495971e+02 
2.084200e-01 8.419284e+02 
2.096900e-01 8.339330e+02 
2.109200e-01 8.263050e+02 
2.121100e-01 8.189893e+02 
2.132700e-01 8.119550e+02 
2.145200e-01 8.044826e+02 
2.157200e-01 7.973587e+02 
2.168800e-01 7.905425e+02 
2.180700e-01 7.836456e+02 
2.193400e-01 7.763582e+02 
2.206000e-01 7.691753e+02 
2.217500e-01 7.627101e+02 
2.229500e-01 7.560542e+02 
2.241400e-01 7.494916e+02 
2.253500e-01 7.429079e+02 
2.264900e-01 7.367872e+02 
2.277100e-01 7.303227e+02 
2.289900e-01 7.236339e+02 
2.301500e-01 7.176542e+02 
2.313600e-01 7.114986e+02 
2.325600e-01 7.055202e+02 
2.337700e-01 6.995712e+02 
2.350000e-01 6.936038e+02 
2.362000e-01 6.878973e+02 
2.374100e-01 6.822635e+02 
2.386500e-01 6.765652e+02 
2.399100e-01 6.708516e+02 
2.410400e-01 6.658692e+02 
2.422500e-01 6.606089e+02 
2.435000e-01 6.552441e+02 
2.447300e-01 6.500505e+02 
2.458700e-01 6.453663e+02 
2.470600e-01 6.405346e+02 
2.483300e-01 6.354425e+02 
2.495600e-01 6.305982e+02 
2.507600e-01 6.259642e+02 
2.519600e-01 6.213857e+02 
2.532200e-01 6.166369e+02 
2.543700e-01 6.123740e+02 
2.555500e-01 6.080634e+02 
2.568000e-01 6.035512e+02 
2.580100e-01 5.992355e+02 
2.592400e-01 5.949036e+02 
2.604100e-01 5.908321e+02 
2.616100e-01 5.867036e+02 
2.628400e-01 5.825208e+02 
2.640600e-01 5.784055e+02 
2.652200e-01 5.745306e+02 
2.664300e-01 5.705339e+02 
2.676500e-01 5.665500e+02 
2.688400e-01 5.626894e+02 
2.700700e-01 5.587325e+02 
2.712400e-01 5.550104e+02 
2.724800e-01 5.511095e+02 
2.736700e-01 5.473918e+02 
2.748800e-01 5.436369e+02 
2.761000e-01 5.398929e+02 
2.773200e-01 5.361903e+02 
2.785400e-01 5.325192e+02 
2.797000e-01 5.290464e+02 
2.808900e-01 5.255214e+02 
2.821400e-01 5.218590e+02 
2.833900e-01 5.182364e+02 
2.845500e-01 5.148859e+02 
2.857800e-01 5.113708e+02 
2.870300e-01 5.078376e+02 
2.882100e-01 5.045379e+02 
2.893900e-01 5.012616e+02 
2.906300e-01 4.978494e+02 
2.918900e-01 4.944198e+02 
2.930500e-01 4.912955e+02 
2.942500e-01 4.880938e+02 
2.954200e-01 4.849960e+02 
2.966500e-01 4.817728e+02 
2.978900e-01 4.785576e+02 
2.990400e-01 4.756059e+02 
3.002700e-01 4.724771e+02 
3.015100e-01 4.693538e+02 
3.026800e-01 4.664366e+02 
3.038500e-01 4.635479e+02 
3.050300e-01 4.606630e+02 
3.062600e-01 4.576863e+02 
3.075000e-01 4.547160e+02 
3.087000e-01 4.518703e+02 
3.099100e-01 4.490293e+02 
3.111200e-01 4.462188e+02 
3.123100e-01 4.434860e+02 
3.135300e-01 4.407117e+02 
3.147300e-01 4.380095e+02 
3.159900e-01 4.352002e+02 
3.171800e-01 4.325786e+02 
3.183700e-01 4.299854e+02 
3.196300e-01 4.272665e+02 
3.208400e-01 4.246809e+02 
3.220300e-01 4.221621e+02 
3.232000e-01 4.197163e+02 
3.244300e-01 4.171723e+02 
3.256700e-01 4.146323e+02 
3.269200e-01 4.120966e+02 
3.280800e-01 4.097653e+02 
3.292500e-01 4.074453e+02 
3.304800e-01 4.050319e+02 
3.317100e-01 4.026412e+02 
3.328900e-01 4.003687e+02 
3.340700e-01 3.981166e+02 
3.353600e-01 3.956884e+02 
3.365300e-01 3.935106e+02 
3.377100e-01 3.913335e+02 
3.389200e-01 3.891210e+02 
3.401600e-01 3.868742e+02 
3.413700e-01 3.847119e+02 
3.425300e-01 3.826640e+02 
3.437700e-01 3.804942e+02 
3.449800e-01 3.783959e+02 
3.461800e-01 3.763332e+02 
3.473600e-01 3.743266e+02 
3.485800e-01 3.722803e+02 
3.498100e-01 3.702354e+02 
3.510200e-01 3.682414e+02 
3.522000e-01 3.663134e+02 
3.533900e-01 3.643856e+02 
3.546400e-01 3.623918e+02 
3.558400e-01 3.604951e+02 
3.570600e-01 3.585833e+02 
3.582700e-01 3.567033e+02 
3.595000e-01 3.548086e+02 
3.607100e-01 3.529676e+02 
3.618900e-01 3.511926e+02 
3.631200e-01 3.493579e+02 
3.643200e-01 3.475830e+02 
3.655500e-01 3.457788e+02 
3.667300e-01 3.440623e+02 
3.679500e-01 3.423150e+02 
3.691900e-01 3.405539e+02 
3.703600e-01 3.389058e+02 
3.715700e-01 3.372151e+02 
3.727700e-01 3.355519e+02 
3.739900e-01 3.338788e+02 
3.752000e-01 3.322403e+02 
3.763900e-01 3.306419e+02 
3.775800e-01 3.290560e+02 
3.788200e-01 3.274168e+02 
3.800300e-01 3.258301e+02 
3.812100e-01 3.242998e+02 
3.824200e-01 3.227461e+02 
3.836100e-01 3.212300e+02 
3.848600e-01 3.196501e+02 
3.860400e-01 3.181705e+02 
3.872400e-01 3.166773e+02 
3.884600e-01 3.151776e+02 
3.896500e-01 3.137285e+02 
3.908700e-01 3.122543e+02 
3.920600e-01 3.108275e+02 
3.933100e-01 3.093403e+02 
3.945300e-01 3.079002e+02 
3.957200e-01 3.065122e+02 
3.969300e-01 3.051134e+02 
3.981700e-01 3.036909e+02 
3.993500e-01 3.023474e+02 
4.094840e-01 2.912219e+02 
4.272360e-01 2.734507e+02 
4.454600e-01 2.571148e+02 
4.630560e-01 2.429076e+02 
4.804610e-01 2.301642e+02 
4.980690e-01 2.184253e+02 
5.159230e-01 2.075633e+02 
5.317440e-01 1.987131e+02 
5.489640e-01 1.898283e+02 
5.671990e-01 1.811842e+02 
5.838690e-01 1.738915e+02 
6.018840e-01 1.666052e+02 
6.202330e-01 1.597617e+02 
6.379250e-01 1.536451e+02 
6.545410e-01 1.483156e+02 
6.714560e-01 1.432432e+02 
6.892080e-01 1.382776e+02 
7.066010e-01 1.337402e+02 
7.240540e-01 1.294739e+02 
7.420450e-01 1.253631e+02 
7.593780e-01 1.216475e+02 
7.764720e-01 1.181944e+02 
7.942840e-01 1.148048e+02 
8.116170e-01 1.116962e+02 
8.288310e-01 1.087789e+02 
8.462240e-01 1.059851e+02 
8.631980e-01 1.033975e+02 
8.810700e-01 1.008093e+02 
8.989410e-01 9.835168e+01 
9.166330e-01 9.603554e+01 
9.345640e-01 9.379925e+01 
9.515980e-01 9.177061e+01 
9.688720e-01 8.980163e+01 
9.865640e-01 8.787108e+01 
1.031870e+00 8.328000e+01 
1.063490e+00 8.034338e+01 
1.097920e+00 7.736651e+01 
1.134370e+00 7.443173e+01 
1.167730e+00 7.192502e+01 
1.203830e+00 6.937828e+01 
1.240470e+00 6.695695e+01 
1.275790e+00 6.475946e+01 
1.309140e+00 6.280185e+01 
1.342970e+00 6.091356e+01 
1.378420e+00 5.904083e+01 
1.413200e+00 5.729469e+01 
1.448110e+00 5.562673e+01 
1.484090e+00 5.399309e+01 
1.518820e+00 5.248923e+01 
1.552880e+00 5.107788e+01 
1.588630e+00 4.966160e+01 
1.623230e+00 4.835166e+01 
1.657720e+00 4.710007e+01 
1.692450e+00 4.589190e+01 
1.726400e+00 4.475529e+01 
1.762200e+00 4.360386e+01 
1.797880e+00 4.250235e+01 
1.833270e+00 4.145218e+01 
1.869070e+00 4.043003e+01 
1.903200e+00 3.949141e+01 
1.937740e+00 3.857537e+01 
1.973190e+00 3.766811e+01 
2.007440e+00 3.682240e+01 
2.042160e+00 3.599400e+01 
2.077900e+00 3.516995e+01 
2.112390e+00 3.440212e+01 
2.146220e+00 3.367199e+01 
2.181600e+00 3.293274e+01 
2.216930e+00 3.221880e+01 
2.250760e+00 3.155661e+01 
2.286500e+00 3.087878e+01 
2.321770e+00 3.023095e+01 
2.355950e+00 2.962183e+01 
2.391280e+00 2.901008e+01 
2.426240e+00 2.842275e+01 
2.460670e+00 2.786161e+01 
2.495640e+00 2.730872e+01 
2.531080e+00 2.676300e+01 
2.566220e+00 2.623749e+01 
2.600830e+00 2.573470e+01 
2.635080e+00 2.525103e+01 
2.670340e+00 2.476553e+01 
2.705970e+00 2.428877e+01 
2.740040e+00 2.384545e+01 
2.774520e+00 2.340775e+01 
2.809730e+00 2.297231e+01 
2.844390e+00 2.255525e+01 
2.879960e+00 2.213805e+01 
2.914860e+00 2.173904e+01 
2.949410e+00 2.135442e+01 
2.984440e+00 2.097351e+01 
3.019760e+00 2.059926e+01 
3.054730e+00 2.023849e+01 
3.089030e+00 1.989194e+01 
3.124060e+00 1.954702e+01 
3.159560e+00 1.920602e+01 
3.194710e+00 1.887618e+01 
3.229010e+00 1.856241e+01 
3.263320e+00 1.825480e+01 
3.297930e+00 1.795212e+01 
3.332830e+00 1.765381e+01 
3.368040e+00 1.735964e+01 
3.403300e+00 1.707196e+01 
3.438450e+00 1.679129e+01 
3.473060e+00 1.652167e+01 
3.508440e+00 1.625153e+01 
3.543110e+00 1.599320e+01 
3.577470e+00 1.574213e+01 
3.613040e+00 1.548829e+01 
3.648120e+00 1.524313e+01 
3.682910e+00 1.500545e+01 
3.718050e+00 1.477028e+01 
3.753320e+00 1.453949e+01 
3.787980e+00 1.431744e+01 
3.822290e+00 1.410224e+01 
3.857020e+00 1.388868e+01 
3.891920e+00 1.367861e+01 
3.926650e+00 1.347364e+01 
3.961970e+00 1.326968e+01 
3.997360e+00 1.306936e+01 
4.031670e+00 1.287933e+01 
4.066330e+00 1.269089e+01 
4.101420e+00 1.250427e+01 
4.136200e+00 1.232255e+01 
4.170810e+00 1.214562e+01 
4.206250e+00 1.196772e+01 
4.241580e+00 1.179411e+01 
4.276300e+00 1.162670e+01 
4.310970e+00 1.146279e+01 
4.346120e+00 1.129990e+01 
4.380600e+00 1.114312e+01 
4.414730e+00 1.099107e+01 
4.450350e+00 1.083507e+01 
4.485320e+00 1.068506e+01 
4.519810e+00 1.053974e+01 
4.555430e+00 1.039254e+01 
4.590870e+00 1.024893e+01 
4.625480e+00 1.011125e+01 
4.659910e+00 9.976953e+00 
4.695230e+00 9.841506e+00 
4.729960e+00 9.710863e+00 
4.764450e+00 9.583473e+00 
4.799530e+00 9.456157e+00 
4.834910e+00 9.330224e+00 
4.869700e+00 9.208542e+00 
4.904370e+00 9.089517e+00 
4.939450e+00 8.971279e+00 
4.973940e+00 8.857038e+00 
5.008430e+00 8.744884e+00 
5.043810e+00 8.631778e+00 
5.078840e+00 8.521753e+00 
5.113500e+00 8.414862e+00 
5.148890e+00 8.307564e+00 
5.184210e+00 8.202415e+00 
5.219060e+00 8.100489e+00 
5.253660e+00 8.000976e+00 
5.288570e+00 7.902331e+00 
5.323420e+00 7.805538e+00 
5.358440e+00 7.709920e+00 
5.393590e+00 7.615616e+00 
5.428310e+00 7.524026e+00 
5.462800e+00 7.434562e+00 
5.497640e+00 7.345717e+00 
5.532670e+00 7.257847e+00 
5.567280e+00 7.172471e+00 
5.602000e+00 7.088245e+00 
5.637270e+00 7.004112e+00 
5.672410e+00 6.921686e+00 
5.707020e+00 6.841836e+00 
5.742040e+00 6.762342e+00 
5.777430e+00 6.683322e+00 
5.812210e+00 6.606926e+00 
5.846820e+00 6.532121e+00 
5.881610e+00 6.458122e+00 
5.916510e+00 6.385069e+00 
5.951600e+00 6.312801e+00 
5.986560e+00 6.241945e+00 
6.021830e+00 6.171587e+00 
6.056490e+00 6.103558e+00 
6.091160e+00 6.036586e+00 
6.125830e+00 5.970639e+00 
6.161090e+00 5.904620e+00 
6.195760e+00 5.840741e+00 
6.230420e+00 5.777844e+00 
6.265690e+00 5.714808e+00 
6.300950e+00 5.652797e+00 
6.335620e+00 5.592737e+00 
6.370880e+00 5.532563e+00 
6.405550e+00 5.474340e+00 
6.440220e+00 5.416994e+00 
6.475480e+00 5.359528e+00 
6.510150e+00 5.303863e+00 
6.544810e+00 5.249052e+00 
6.580080e+00 5.194081e+00 
6.614750e+00 5.140823e+00 
6.649410e+00 5.088453e+00 
6.684080e+00 5.036830e+00 
6.719340e+00 4.985072e+00 
6.754010e+00 4.934920e+00 
6.788680e+00 4.885518e+00 
6.823940e+00 4.835978e+00 
6.859800e+00 4.786306e+00 
6.894470e+00 4.739031e+00 
6.929140e+00 4.692431e+00 
6.963800e+00 4.646476e+00 
6.999070e+00 4.600355e+00 
7.033730e+00 4.555720e+00 
7.068400e+00 4.511671e+00 
7.103660e+00 4.467473e+00 
7.138330e+00 4.424641e+00 
7.173600e+00 4.381736e+00 
7.208260e+00 4.340133e+00 
7.243530e+00 4.298355e+00 
7.277600e+00 4.258585e+00 
7.312860e+00 4.218014e+00 
7.348120e+00 4.177974e+00 
7.382790e+00 4.139115e+00 
7.417460e+00 4.100821e+00 
7.452720e+00 4.062410e+00 
7.487390e+00 4.025124e+00 
7.522650e+00 3.987686e+00 
7.557320e+00 3.951419e+00 
7.591990e+00 3.915634e+00 
7.627250e+00 3.879697e+00 
7.662510e+00 3.844212e+00 
7.697180e+00 3.809838e+00 
7.731850e+00 3.775918e+00 
7.766510e+00 3.742422e+00 
7.801180e+00 3.709324e+00 
7.836440e+00 3.676156e+00 
7.871110e+00 3.643990e+00 
7.906380e+00 3.611664e+00 
7.941040e+00 3.580281e+00 
7.976310e+00 3.548769e+00 
8.011570e+00 3.517695e+00 
8.046240e+00 3.487505e+00 
8.080900e+00 3.457679e+00 
8.115570e+00 3.428217e+00 
8.150830e+00 3.398695e+00 
8.185500e+00 3.370008e+00 
8.220770e+00 3.341164e+00 
8.255430e+00 3.313149e+00 
8.290100e+00 3.285539e+00 
8.324770e+00 3.258255e+00 
8.359430e+00 3.231289e+00 
8.394700e+00 3.204163e+00 
8.429960e+00 3.177413e+00 
8.464630e+00 3.151468e+00 
8.499890e+00 3.125379e+00 
8.534560e+00 3.100016e+00 
8.569200e+00 3.074956e+00 
