# Parameters:
# omega_b = 0.023028, omega_m = 0.134055, n_s = 1.038976, h = 83.346457, w = -1.000000, sigma_8 = 0.866929
# z = 1.100000
#
# k[1/Mpc] # P(k):
8.694000e-04 4.520999e+03 
2.077466e-03 1.021936e+04 
3.285532e-03 1.487593e+04 
4.493598e-03 1.856471e+04 
5.701664e-03 2.136540e+04 
6.909730e-03 2.339883e+04 
8.117797e-03 2.482178e+04 
9.325863e-03 2.571316e+04 
1.053393e-02 2.615398e+04 
1.174199e-02 2.622029e+04 
1.295006e-02 2.596379e+04 
1.415813e-02 2.545684e+04 
1.536619e-02 2.475962e+04 
1.657426e-02 2.390815e+04 
1.778233e-02 2.289693e+04 
1.899039e-02 2.175820e+04 
2.019846e-02 2.061163e+04 
2.140652e-02 1.953848e+04 
2.261459e-02 1.853010e+04 
2.382266e-02 1.758541e+04 
2.503072e-02 1.671269e+04 
2.623879e-02 1.591555e+04 
2.744685e-02 1.519688e+04 
2.865492e-02 1.455528e+04 
2.986299e-02 1.398667e+04 
3.100100e-02 1.351613e+04 
3.220400e-02 1.308088e+04 
3.288100e-02 1.286338e+04 
3.424300e-02 1.247609e+04 
3.555100e-02 1.215676e+04 
3.686000e-02 1.188096e+04 
3.795000e-02 1.167671e+04 
3.929100e-02 1.145039e+04 
4.039800e-02 1.127559e+04 
4.164000e-02 1.108593e+04 
4.294400e-02 1.088269e+04 
4.415000e-02 1.069074e+04 
4.542900e-02 1.046989e+04 
4.660900e-02 1.025587e+04 
4.782300e-02 1.001042e+04 
4.892900e-02 9.774982e+03 
5.031200e-02 9.460386e+03 
5.155900e-02 9.158212e+03 
5.238100e-02 8.952493e+03 
5.378200e-02 8.593819e+03 
5.513400e-02 8.240833e+03 
5.627600e-02 7.942118e+03 
5.735300e-02 7.663970e+03 
5.870100e-02 7.324430e+03 
5.988700e-02 7.037666e+03 
6.113500e-02 6.750572e+03 
6.225900e-02 6.507933e+03 
6.340100e-02 6.279257e+03 
6.480200e-02 6.023202e+03 
6.601100e-02 5.827347e+03 
6.725500e-02 5.649057e+03 
6.829100e-02 5.519928e+03 
6.958600e-02 5.376948e+03 
7.071100e-02 5.270546e+03 
7.192300e-02 5.171158e+03 
7.307400e-02 5.089468e+03 
7.412300e-02 5.024059e+03 
7.550400e-02 4.949683e+03 
7.663100e-02 4.895410e+03 
7.791200e-02 4.839862e+03 
7.912700e-02 4.789763e+03 
8.027600e-02 4.742717e+03 
8.138400e-02 4.696568e+03 
8.272200e-02 4.638146e+03 
8.406100e-02 4.575384e+03 
8.534100e-02 4.508600e+03 
8.653800e-02 4.439713e+03 
8.759800e-02 4.374960e+03 
8.900300e-02 4.282984e+03 
9.009000e-02 4.206627e+03 
9.113300e-02 4.129024e+03 
9.239600e-02 4.032668e+03 
9.358000e-02 3.939271e+03 
9.496100e-02 3.827116e+03 
9.608400e-02 3.735987e+03 
9.727500e-02 3.640240e+03 
9.852600e-02 3.540085e+03 
9.973800e-02 3.446277e+03 
1.009000e-01 3.359249e+03 
1.020900e-01 3.275060e+03 
1.034000e-01 3.187428e+03 
1.046000e-01 3.111919e+03 
1.057200e-01 3.048366e+03 
1.069100e-01 2.984758e+03 
1.082500e-01 2.921377e+03 
1.093900e-01 2.873143e+03 
1.105400e-01 2.828140e+03 
1.116900e-01 2.789952e+03 
1.129600e-01 2.750745e+03 
1.142000e-01 2.718037e+03 
1.153300e-01 2.690402e+03 
1.166400e-01 2.661397e+03 
1.177800e-01 2.637819e+03 
1.190000e-01 2.613695e+03 
1.201200e-01 2.591480e+03 
1.213400e-01 2.567766e+03 
1.227100e-01 2.538982e+03 
1.238900e-01 2.513953e+03 
1.250700e-01 2.486563e+03 
1.263200e-01 2.456859e+03 
1.275500e-01 2.425271e+03 
1.287500e-01 2.393545e+03 
1.299900e-01 2.358956e+03 
1.311300e-01 2.326494e+03 
1.323500e-01 2.290457e+03 
1.335900e-01 2.253663e+03 
1.347100e-01 2.219824e+03 
1.359800e-01 2.181828e+03 
1.372100e-01 2.144891e+03 
1.384300e-01 2.108992e+03 
1.395700e-01 2.075898e+03 
1.407700e-01 2.041881e+03 
1.420300e-01 2.007386e+03 
1.432800e-01 1.973970e+03 
1.444500e-01 1.944452e+03 
1.456300e-01 1.915319e+03 
1.468900e-01 1.886148e+03 
1.480500e-01 1.860238e+03 
1.491700e-01 1.836471e+03 
1.503800e-01 1.812265e+03 
1.516400e-01 1.787913e+03 
1.528200e-01 1.767010e+03 
1.540200e-01 1.746164e+03 
1.551900e-01 1.727456e+03 
1.564300e-01 1.708305e+03 
1.576600e-01 1.690164e+03 
1.588700e-01 1.673243e+03 
1.600900e-01 1.656525e+03 
1.612700e-01 1.641127e+03 
1.625400e-01 1.624861e+03 
1.637600e-01 1.609439e+03 
1.649500e-01 1.594614e+03 
1.662200e-01 1.578980e+03 
1.674000e-01 1.564164e+03 
1.685000e-01 1.550581e+03 
1.697500e-01 1.534899e+03 
1.710300e-01 1.518624e+03 
1.722200e-01 1.503762e+03 
1.734400e-01 1.487679e+03 
1.746400e-01 1.472089e+03 
1.758700e-01 1.456075e+03 
1.770900e-01 1.439833e+03 
1.782700e-01 1.424392e+03 
1.794600e-01 1.408703e+03 
1.807000e-01 1.392380e+03 
1.819100e-01 1.376728e+03 
1.830100e-01 1.362532e+03 
1.842200e-01 1.347135e+03 
1.855000e-01 1.331135e+03 
1.867000e-01 1.316506e+03 
1.879200e-01 1.301881e+03 
1.890900e-01 1.288146e+03 
1.902800e-01 1.274716e+03 
1.915200e-01 1.260949e+03 
1.926900e-01 1.248289e+03 
1.939000e-01 1.235798e+03 
1.951700e-01 1.222899e+03 
1.963100e-01 1.211628e+03 
1.975100e-01 1.200286e+03 
1.987800e-01 1.188469e+03 
2.000100e-01 1.177324e+03 
2.012500e-01 1.166542e+03 
2.023400e-01 1.157199e+03 
2.036100e-01 1.146518e+03 
2.048900e-01 1.136099e+03 
2.060400e-01 1.126874e+03 
2.072200e-01 1.117547e+03 
2.084200e-01 1.108262e+03 
2.096900e-01 1.098578e+03 
2.109200e-01 1.089337e+03 
2.121100e-01 1.080457e+03 
2.132700e-01 1.071915e+03 
2.145200e-01 1.062840e+03 
2.157200e-01 1.054173e+03 
2.168800e-01 1.045873e+03 
2.180700e-01 1.037473e+03 
2.193400e-01 1.028584e+03 
2.206000e-01 1.019801e+03 
2.217500e-01 1.011893e+03 
2.229500e-01 1.003750e+03 
2.241400e-01 9.956946e+02 
2.253500e-01 9.876112e+02 
2.264900e-01 9.800942e+02 
2.277100e-01 9.721386e+02 
2.289900e-01 9.638888e+02 
2.301500e-01 9.565117e+02 
2.313600e-01 9.489155e+02 
2.325600e-01 9.415099e+02 
2.337700e-01 9.341389e+02 
2.350000e-01 9.267434e+02 
2.362000e-01 9.196590e+02 
2.374100e-01 9.126509e+02 
2.386500e-01 9.055611e+02 
2.399100e-01 8.984505e+02 
2.410400e-01 8.922321e+02 
2.422500e-01 8.856635e+02 
2.435000e-01 8.789631e+02 
2.447300e-01 8.724727e+02 
2.458700e-01 8.666079e+02 
2.470600e-01 8.605576e+02 
2.483300e-01 8.541798e+02 
2.495600e-01 8.481084e+02 
2.507600e-01 8.422956e+02 
2.519600e-01 8.365513e+02 
2.532200e-01 8.305924e+02 
2.543700e-01 8.252432e+02 
2.555500e-01 8.198339e+02 
2.568000e-01 8.141706e+02 
2.580100e-01 8.087533e+02 
2.592400e-01 8.033185e+02 
2.604100e-01 7.982112e+02 
2.616100e-01 7.930316e+02 
2.628400e-01 7.877832e+02 
2.640600e-01 7.826254e+02 
2.652200e-01 7.777712e+02 
2.664300e-01 7.727634e+02 
2.676500e-01 7.677709e+02 
2.688400e-01 7.629393e+02 
2.700700e-01 7.579909e+02 
2.712400e-01 7.533354e+02 
2.724800e-01 7.484553e+02 
2.736700e-01 7.438089e+02 
2.748800e-01 7.391203e+02 
2.761000e-01 7.344446e+02 
2.773200e-01 7.298198e+02 
2.785400e-01 7.252366e+02 
2.797000e-01 7.209070e+02 
2.808900e-01 7.165114e+02 
2.821400e-01 7.119437e+02 
2.833900e-01 7.074250e+02 
2.845500e-01 7.032532e+02 
2.857800e-01 6.988756e+02 
2.870300e-01 6.944745e+02 
2.882100e-01 6.903633e+02 
2.893900e-01 6.862850e+02 
2.906300e-01 6.820390e+02 
2.918900e-01 6.777703e+02 
2.930500e-01 6.738807e+02 
2.942500e-01 6.698950e+02 
2.954200e-01 6.660408e+02 
2.966500e-01 6.620296e+02 
2.978900e-01 6.580275e+02 
2.990400e-01 6.543526e+02 
3.002700e-01 6.504583e+02 
3.015100e-01 6.465711e+02 
3.026800e-01 6.429396e+02 
3.038500e-01 6.393428e+02 
3.050300e-01 6.357499e+02 
3.062600e-01 6.320438e+02 
3.075000e-01 6.283447e+02 
3.087000e-01 6.248001e+02 
3.099100e-01 6.212604e+02 
3.111200e-01 6.177581e+02 
3.123100e-01 6.143521e+02 
3.135300e-01 6.108934e+02 
3.147300e-01 6.075239e+02 
3.159900e-01 6.040201e+02 
3.171800e-01 6.007487e+02 
3.183700e-01 5.975115e+02 
3.196300e-01 5.941165e+02 
3.208400e-01 5.908873e+02 
3.220300e-01 5.877409e+02 
3.232000e-01 5.846836e+02 
3.244300e-01 5.815022e+02 
3.256700e-01 5.783251e+02 
3.269200e-01 5.751526e+02 
3.280800e-01 5.722354e+02 
3.292500e-01 5.693300e+02 
3.304800e-01 5.663067e+02 
3.317100e-01 5.633111e+02 
3.328900e-01 5.604631e+02 
3.340700e-01 5.576400e+02 
3.353600e-01 5.545923e+02 
3.365300e-01 5.518571e+02 
3.377100e-01 5.491222e+02 
3.389200e-01 5.463423e+02 
3.401600e-01 5.435189e+02 
3.413700e-01 5.407986e+02 
3.425300e-01 5.382202e+02 
3.437700e-01 5.354879e+02 
3.449800e-01 5.328450e+02 
3.461800e-01 5.302465e+02 
3.473600e-01 5.277169e+02 
3.485800e-01 5.251334e+02 
3.498100e-01 5.225512e+02 
3.510200e-01 5.200328e+02 
3.522000e-01 5.175974e+02 
3.533900e-01 5.151617e+02 
3.546400e-01 5.126375e+02 
3.558400e-01 5.102355e+02 
3.570600e-01 5.078138e+02 
3.582700e-01 5.054322e+02 
3.595000e-01 5.030314e+02 
3.607100e-01 5.006955e+02 
3.618900e-01 4.984409e+02 
3.631200e-01 4.961101e+02 
3.643200e-01 4.938547e+02 
3.655500e-01 4.915620e+02 
3.667300e-01 4.893802e+02 
3.679500e-01 4.871539e+02 
3.691900e-01 4.849097e+02 
3.703600e-01 4.828092e+02 
3.715700e-01 4.806540e+02 
3.727700e-01 4.785336e+02 
3.739900e-01 4.763987e+02 
3.752000e-01 4.743049e+02 
3.763900e-01 4.722618e+02 
3.775800e-01 4.702345e+02 
3.788200e-01 4.681388e+02 
3.800300e-01 4.661100e+02 
3.812100e-01 4.641501e+02 
3.824200e-01 4.621581e+02 
3.836100e-01 4.602141e+02 
3.848600e-01 4.581880e+02 
3.860400e-01 4.562902e+02 
3.872400e-01 4.543748e+02 
3.884600e-01 4.524475e+02 
3.896500e-01 4.505838e+02 
3.908700e-01 4.486876e+02 
3.920600e-01 4.468521e+02 
3.933100e-01 4.449386e+02 
3.945300e-01 4.430855e+02 
3.957200e-01 4.412964e+02 
3.969300e-01 4.394921e+02 
3.981700e-01 4.376571e+02 
3.993500e-01 4.359239e+02 
4.094840e-01 4.215389e+02 
4.272360e-01 3.984379e+02 
4.454600e-01 3.770742e+02 
4.630560e-01 3.583915e+02 
4.804610e-01 3.415496e+02 
4.980690e-01 3.259652e+02 
5.159230e-01 3.114800e+02 
5.317440e-01 2.996322e+02 
5.489640e-01 2.876903e+02 
5.671990e-01 2.760270e+02 
5.838690e-01 2.661527e+02 
6.018840e-01 2.562480e+02 
6.202330e-01 2.469059e+02 
6.379250e-01 2.385327e+02 
6.545410e-01 2.312062e+02 
6.714560e-01 2.242084e+02 
6.892080e-01 2.173388e+02 
7.066010e-01 2.110345e+02 
7.240540e-01 2.050906e+02 
7.420450e-01 1.993369e+02 
7.593780e-01 1.941156e+02 
7.764720e-01 1.892466e+02 
7.942840e-01 1.844502e+02 
8.116170e-01 1.800311e+02 
8.288310e-01 1.758651e+02 
8.462240e-01 1.718598e+02 
8.631980e-01 1.681326e+02 
8.810700e-01 1.643903e+02 
8.989410e-01 1.608203e+02 
9.166330e-01 1.574411e+02 
9.345640e-01 1.541648e+02 
9.515980e-01 1.511766e+02 
9.688720e-01 1.482629e+02 
9.865640e-01 1.453917e+02 
1.031870e+00 1.385126e+02 
1.063490e+00 1.340671e+02 
1.097920e+00 1.295248e+02 
1.134370e+00 1.250078e+02 
1.167730e+00 1.211178e+02 
1.203830e+00 1.171314e+02 
1.240470e+00 1.133151e+02 
1.275790e+00 1.098218e+02 
1.309140e+00 1.066949e+02 
1.342970e+00 1.036536e+02 
1.378420e+00 1.006225e+02 
1.413200e+00 9.777889e+01 
1.448110e+00 9.504843e+01 
1.484090e+00 9.236071e+01 
1.518820e+00 8.987470e+01 
1.552880e+00 8.753093e+01 
1.588630e+00 8.517024e+01 
1.623230e+00 8.297761e+01 
1.657720e+00 8.087570e+01 
1.692450e+00 7.884116e+01 
1.726400e+00 7.691962e+01 
1.762200e+00 7.496658e+01 
1.797880e+00 7.309442e+01 
1.833270e+00 7.130415e+01 
1.869070e+00 6.955680e+01 
1.903200e+00 6.795007e+01 
1.937740e+00 6.637878e+01 
1.973190e+00 6.481872e+01 
2.007440e+00 6.336256e+01 
2.042160e+00 6.193426e+01 
2.077900e+00 6.051038e+01 
2.112390e+00 5.918303e+01 
2.146220e+00 5.791782e+01 
2.181600e+00 5.663614e+01 
2.216930e+00 5.539679e+01 
2.250760e+00 5.424611e+01 
2.286500e+00 5.306713e+01 
2.321770e+00 5.193930e+01 
2.355950e+00 5.087870e+01 
2.391280e+00 4.981205e+01 
2.426240e+00 4.878791e+01 
2.460670e+00 4.780908e+01 
2.495640e+00 4.684399e+01 
2.531080e+00 4.589052e+01 
2.566220e+00 4.497220e+01 
2.600830e+00 4.409358e+01 
2.635080e+00 4.324847e+01 
2.670340e+00 4.240016e+01 
2.705970e+00 4.156671e+01 
2.740040e+00 4.079143e+01 
2.774520e+00 4.002560e+01 
2.809730e+00 3.926415e+01 
2.844390e+00 3.853510e+01 
2.879960e+00 3.780604e+01 
2.914860e+00 3.710847e+01 
2.949410e+00 3.643611e+01 
2.984440e+00 3.577078e+01 
3.019760e+00 3.511683e+01 
3.054730e+00 3.448636e+01 
3.089030e+00 3.388150e+01 
3.124060e+00 3.327945e+01 
3.159560e+00 3.268412e+01 
3.194710e+00 3.210878e+01 
3.229010e+00 3.156171e+01 
3.263320e+00 3.102597e+01 
3.297930e+00 3.049878e+01 
3.332830e+00 2.997898e+01 
3.368040e+00 2.946693e+01 
3.403300e+00 2.896656e+01 
3.438450e+00 2.847881e+01 
3.473060e+00 2.801041e+01 
3.508440e+00 2.754124e+01 
3.543110e+00 2.709278e+01 
3.577470e+00 2.665751e+01 
3.613040e+00 2.621749e+01 
3.648120e+00 2.579261e+01 
3.682910e+00 2.538092e+01 
3.718050e+00 2.497403e+01 
3.753320e+00 2.457492e+01 
3.787980e+00 2.419117e+01 
3.822290e+00 2.381950e+01 
3.857020e+00 2.345100e+01 
3.891920e+00 2.308873e+01 
3.926650e+00 2.273552e+01 
3.961970e+00 2.238425e+01 
3.997360e+00 2.203965e+01 
4.031670e+00 2.171284e+01 
4.066330e+00 2.138898e+01 
4.101420e+00 2.106834e+01 
4.136200e+00 2.075654e+01 
4.170810e+00 2.045300e+01 
4.206250e+00 2.014809e+01 
4.241580e+00 1.985059e+01 
4.276300e+00 1.956403e+01 
4.310970e+00 1.928366e+01 
4.346120e+00 1.900519e+01 
4.380600e+00 1.873738e+01 
4.414730e+00 1.847768e+01 
4.450350e+00 1.821166e+01 
4.485320e+00 1.795590e+01 
4.519810e+00 1.770838e+01 
4.555430e+00 1.745776e+01 
4.590870e+00 1.721340e+01 
4.625480e+00 1.697932e+01 
4.659910e+00 1.675101e+01 
4.695230e+00 1.652108e+01 
4.729960e+00 1.629936e+01 
4.764450e+00 1.608330e+01 
4.799530e+00 1.586756e+01 
4.834910e+00 1.565419e+01 
4.869700e+00 1.544825e+01 
4.904370e+00 1.524685e+01 
4.939450e+00 1.504688e+01 
4.973940e+00 1.485386e+01 
5.008430e+00 1.466438e+01 
5.043810e+00 1.447346e+01 
5.078840e+00 1.428784e+01 
5.113500e+00 1.410752e+01 
5.148890e+00 1.392675e+01 
5.184210e+00 1.374961e+01 
5.219060e+00 1.357797e+01 
5.253660e+00 1.341055e+01 
5.288570e+00 1.324459e+01 
5.323420e+00 1.308184e+01 
5.358440e+00 1.292115e+01 
5.393590e+00 1.276268e+01 
5.428310e+00 1.260891e+01 
5.462800e+00 1.245877e+01 
5.497640e+00 1.230968e+01 
5.532670e+00 1.216236e+01 
5.567280e+00 1.201926e+01 
5.602000e+00 1.187810e+01 
5.637270e+00 1.173719e+01 
5.672410e+00 1.159916e+01 
5.707020e+00 1.146544e+01 
5.742040e+00 1.133245e+01 
5.777430e+00 1.120027e+01 
5.812210e+00 1.107248e+01 
5.846820e+00 1.094743e+01 
5.881610e+00 1.082374e+01 
5.916510e+00 1.070162e+01 
5.951600e+00 1.058090e+01 
5.986560e+00 1.046257e+01 
6.021830e+00 1.034507e+01 
6.056490e+00 1.023151e+01 
6.091160e+00 1.011975e+01 
6.125830e+00 1.000970e+01 
6.161090e+00 9.899550e+00 
6.195760e+00 9.792998e+00 
6.230420e+00 9.688078e+00 
6.265690e+00 9.582928e+00 
6.300950e+00 9.479556e+00 
6.335620e+00 9.379430e+00 
6.370880e+00 9.279112e+00 
6.405550e+00 9.182064e+00 
6.440220e+00 9.086484e+00 
6.475480e+00 8.990699e+00 
6.510150e+00 8.897928e+00 
6.544810e+00 8.806609e+00 
6.580080e+00 8.715020e+00 
6.614750e+00 8.626281e+00 
6.649410e+00 8.539025e+00 
6.684080e+00 8.453012e+00 
6.719340e+00 8.366771e+00 
6.754010e+00 8.283205e+00 
6.788680e+00 8.200895e+00 
6.823940e+00 8.118350e+00 
6.859800e+00 8.035582e+00 
6.894470e+00 7.956801e+00 
6.929140e+00 7.879137e+00 
6.963800e+00 7.802547e+00 
6.999070e+00 7.725676e+00 
7.033730e+00 7.651280e+00 
7.068400e+00 7.577854e+00 
7.103660e+00 7.504180e+00 
7.138330e+00 7.432767e+00 
7.173600e+00 7.361211e+00 
7.208260e+00 7.291822e+00 
7.243530e+00 7.222140e+00 
7.277600e+00 7.155789e+00 
7.312860e+00 7.088085e+00 
7.348120e+00 7.021267e+00 
7.382790e+00 6.956415e+00 
7.417460e+00 6.892491e+00 
7.452720e+00 6.828364e+00 
7.487390e+00 6.766112e+00 
7.522650e+00 6.703605e+00 
7.557320e+00 6.643011e+00 
7.591990e+00 6.583206e+00 
7.627250e+00 6.523146e+00 
7.662510e+00 6.463840e+00 
7.697180e+00 6.406363e+00 
7.731850e+00 6.349634e+00 
7.766510e+00 6.293612e+00 
7.801180e+00 6.238256e+00 
7.836440e+00 6.182743e+00 
7.871110e+00 6.128883e+00 
7.906380e+00 6.074754e+00 
7.941040e+00 6.022202e+00 
7.976310e+00 5.969411e+00 
8.011570e+00 5.917322e+00 
8.046240e+00 5.866715e+00 
8.080900e+00 5.816716e+00 
8.115570e+00 5.767317e+00 
8.150830e+00 5.717771e+00 
8.185500e+00 5.669625e+00 
8.220770e+00 5.621216e+00 
8.255430e+00 5.574198e+00 
8.290100e+00 5.527809e+00 
8.324770e+00 5.481962e+00 
8.359430e+00 5.436649e+00 
8.394700e+00 5.391066e+00 
8.429960e+00 5.346085e+00 
8.464630e+00 5.302424e+00 
8.499890e+00 5.258522e+00 
8.534560e+00 5.215840e+00 
8.569200e+00 5.173669e+00 
