# Parameters:
# omega_b = 0.023185, omega_m = 0.120276, n_s = 1.046850, h = 60.433071, w = -1.000000, sigma_8 = 0.835433
# z = 1.100000
#
# k[1/Mpc] # P(k):
8.694000e-04 7.440225e+03 
2.077466e-03 1.677279e+04 
3.285532e-03 2.425452e+04 
4.493598e-03 3.002927e+04 
5.701664e-03 3.427870e+04 
6.909730e-03 3.722743e+04 
8.117797e-03 3.915267e+04 
9.325863e-03 4.019693e+04 
1.053393e-02 4.050777e+04 
1.174199e-02 4.022454e+04 
1.295006e-02 3.943799e+04 
1.415813e-02 3.827222e+04 
1.536619e-02 3.683710e+04 
1.657426e-02 3.522103e+04 
1.778233e-02 3.356340e+04 
1.899039e-02 3.201993e+04 
2.019846e-02 3.050565e+04 
2.140652e-02 2.896198e+04 
2.261459e-02 2.744562e+04 
2.382266e-02 2.601630e+04 
2.503072e-02 2.469756e+04 
2.623879e-02 2.349433e+04 
2.744685e-02 2.240913e+04 
2.865492e-02 2.143857e+04 
2.986299e-02 2.057527e+04 
3.100100e-02 1.985595e+04 
3.220400e-02 1.918408e+04 
3.288100e-02 1.884396e+04 
3.424300e-02 1.822909e+04 
3.555100e-02 1.771030e+04 
3.686000e-02 1.724948e+04 
3.795000e-02 1.689947e+04 
3.929100e-02 1.650043e+04 
4.039800e-02 1.618710e+04 
4.164000e-02 1.584553e+04 
4.294400e-02 1.548372e+04 
4.415000e-02 1.514834e+04 
4.542900e-02 1.477646e+04 
4.660900e-02 1.442668e+04 
4.782300e-02 1.404344e+04 
4.892900e-02 1.368656e+04 
5.031200e-02 1.322542e+04 
5.155900e-02 1.279654e+04 
5.238100e-02 1.251052e+04 
5.378200e-02 1.202113e+04 
5.513400e-02 1.155006e+04 
5.627600e-02 1.115845e+04 
5.735300e-02 1.079911e+04 
5.870100e-02 1.036738e+04 
5.988700e-02 1.000799e+04 
6.113500e-02 9.651775e+03 
6.225900e-02 9.351501e+03 
6.340100e-02 9.066453e+03 
6.480200e-02 8.741817e+03 
6.601100e-02 8.484673e+03 
6.725500e-02 8.240946e+03 
6.829100e-02 8.055346e+03 
6.958600e-02 7.841241e+03 
7.071100e-02 7.673176e+03 
7.192300e-02 7.508809e+03 
7.307400e-02 7.367551e+03 
7.412300e-02 7.250159e+03 
7.550400e-02 7.111383e+03 
7.663100e-02 7.007781e+03 
7.791200e-02 6.900489e+03 
7.912700e-02 6.805264e+03 
8.027600e-02 6.718430e+03 
8.138400e-02 6.636149e+03 
8.272200e-02 6.536667e+03 
8.406100e-02 6.434935e+03 
8.534100e-02 6.332089e+03 
8.653800e-02 6.229746e+03 
8.759800e-02 6.135428e+03 
8.900300e-02 6.003973e+03 
9.009000e-02 5.896509e+03 
9.113300e-02 5.788416e+03 
9.239600e-02 5.655051e+03 
9.358000e-02 5.526693e+03 
9.496100e-02 5.373749e+03 
9.608400e-02 5.250116e+03 
9.727500e-02 5.120688e+03 
9.852600e-02 4.986572e+03 
9.973800e-02 4.861375e+03 
1.009000e-01 4.745554e+03 
1.020900e-01 4.634177e+03 
1.034000e-01 4.518262e+03 
1.046000e-01 4.418405e+03 
1.057200e-01 4.333934e+03 
1.069100e-01 4.249051e+03 
1.082500e-01 4.163322e+03 
1.093900e-01 4.096941e+03 
1.105400e-01 4.034293e+03 
1.116900e-01 3.978981e+03 
1.129600e-01 3.921298e+03 
1.142000e-01 3.870668e+03 
1.153300e-01 3.826823e+03 
1.166400e-01 3.779052e+03 
1.177800e-01 3.738921e+03 
1.190000e-01 3.697199e+03 
1.201200e-01 3.658394e+03 
1.213400e-01 3.616870e+03 
1.227100e-01 3.567614e+03 
1.238900e-01 3.525237e+03 
1.250700e-01 3.480453e+03 
1.263200e-01 3.432703e+03 
1.275500e-01 3.383665e+03 
1.287500e-01 3.335444e+03 
1.299900e-01 3.284409e+03 
1.311300e-01 3.237475e+03 
1.323500e-01 3.186745e+03 
1.335900e-01 3.135818e+03 
1.347100e-01 3.090086e+03 
1.359800e-01 3.039314e+03 
1.372100e-01 2.991103e+03 
1.384300e-01 2.944579e+03 
1.395700e-01 2.902515e+03 
1.407700e-01 2.859314e+03 
1.420300e-01 2.816203e+03 
1.432800e-01 2.774400e+03 
1.444500e-01 2.737611e+03 
1.456300e-01 2.701270e+03 
1.468900e-01 2.664501e+03 
1.480500e-01 2.631709e+03 
1.491700e-01 2.601195e+03 
1.503800e-01 2.569557e+03 
1.516400e-01 2.537453e+03 
1.528200e-01 2.508736e+03 
1.540200e-01 2.480094e+03 
1.551900e-01 2.453141e+03 
1.564300e-01 2.425230e+03 
1.576600e-01 2.398163e+03 
1.588700e-01 2.372142e+03 
1.600900e-01 2.346390e+03 
1.612700e-01 2.321791e+03 
1.625400e-01 2.295809e+03 
1.637600e-01 2.271072e+03 
1.649500e-01 2.247236e+03 
1.662200e-01 2.222182e+03 
1.674000e-01 2.198873e+03 
1.685000e-01 2.177510e+03 
1.697500e-01 2.153368e+03 
1.710300e-01 2.128819e+03 
1.722200e-01 2.106407e+03 
1.734400e-01 2.083318e+03 
1.746400e-01 2.060983e+03 
1.758700e-01 2.038385e+03 
1.770900e-01 2.016152e+03 
1.782700e-01 1.995014e+03 
1.794600e-01 1.973982e+03 
1.807000e-01 1.952393e+03 
1.819100e-01 1.931685e+03 
1.830100e-01 1.913223e+03 
1.842200e-01 1.893249e+03 
1.855000e-01 1.872488e+03 
1.867000e-01 1.853594e+03 
1.879200e-01 1.834698e+03 
1.890900e-01 1.816920e+03 
1.902800e-01 1.799404e+03 
1.915200e-01 1.781444e+03 
1.926900e-01 1.764853e+03 
1.939000e-01 1.748253e+03 
1.951700e-01 1.731106e+03 
1.963100e-01 1.716029e+03 
1.975100e-01 1.700602e+03 
1.987800e-01 1.684527e+03 
2.000100e-01 1.669272e+03 
2.012500e-01 1.654292e+03 
2.023400e-01 1.641312e+03 
2.036100e-01 1.626424e+03 
2.048900e-01 1.611718e+03 
2.060400e-01 1.598699e+03 
2.072200e-01 1.585525e+03 
2.084200e-01 1.572301e+03 
2.096900e-01 1.558510e+03 
2.109200e-01 1.545350e+03 
2.121100e-01 1.532652e+03 
2.132700e-01 1.520436e+03 
2.145200e-01 1.507457e+03 
2.157200e-01 1.495027e+03 
2.168800e-01 1.483107e+03 
2.180700e-01 1.471043e+03 
2.193400e-01 1.458234e+03 
2.206000e-01 1.445499e+03 
2.217500e-01 1.434034e+03 
2.229500e-01 1.422229e+03 
2.241400e-01 1.410346e+03 
2.253500e-01 1.398418e+03 
2.264900e-01 1.387327e+03 
2.277100e-01 1.375427e+03 
2.289900e-01 1.362908e+03 
2.301500e-01 1.351716e+03 
2.313600e-01 1.340190e+03 
2.325600e-01 1.328548e+03 
2.337700e-01 1.316964e+03 
2.350000e-01 1.305347e+03 
2.362000e-01 1.294024e+03 
2.374100e-01 1.282594e+03 
2.386500e-01 1.271036e+03 
2.399100e-01 1.259451e+03 
2.410400e-01 1.249019e+03 
2.422500e-01 1.237968e+03 
2.435000e-01 1.226703e+03 
2.447300e-01 1.215752e+03 
2.458700e-01 1.205685e+03 
2.470600e-01 1.195306e+03 
2.483300e-01 1.184373e+03 
2.495600e-01 1.173955e+03 
2.507600e-01 1.163962e+03 
2.519600e-01 1.154093e+03 
2.532200e-01 1.143863e+03 
2.543700e-01 1.134764e+03 
2.555500e-01 1.125622e+03 
2.568000e-01 1.116057e+03 
2.580100e-01 1.106913e+03 
2.592400e-01 1.097934e+03 
2.604100e-01 1.089582e+03 
2.616100e-01 1.081117e+03 
2.628400e-01 1.072543e+03 
2.640600e-01 1.064364e+03 
2.652200e-01 1.056765e+03 
2.664300e-01 1.048928e+03 
2.676500e-01 1.041118e+03 
2.688400e-01 1.033767e+03 
2.700700e-01 1.026367e+03 
2.712400e-01 1.019407e+03 
2.724800e-01 1.012113e+03 
2.736700e-01 1.005310e+03 
2.748800e-01 9.985892e+02 
2.761000e-01 9.918876e+02 
2.773200e-01 9.852598e+02 
2.785400e-01 9.787602e+02 
2.797000e-01 9.727616e+02 
2.808900e-01 9.666721e+02 
2.821400e-01 9.603444e+02 
2.833900e-01 9.540908e+02 
2.845500e-01 9.484512e+02 
2.857800e-01 9.425332e+02 
2.870300e-01 9.365836e+02 
2.882100e-01 9.310259e+02 
2.893900e-01 9.255701e+02 
2.906300e-01 9.199205e+02 
2.918900e-01 9.142407e+02 
2.930500e-01 9.090652e+02 
2.942500e-01 9.037728e+02 
2.954200e-01 8.986908e+02 
2.966500e-01 8.934016e+02 
2.978900e-01 8.881242e+02 
2.990400e-01 8.832782e+02 
3.002700e-01 8.781587e+02 
3.015100e-01 8.730561e+02 
3.026800e-01 8.682889e+02 
3.038500e-01 8.635671e+02 
3.050300e-01 8.588505e+02 
3.062600e-01 8.539927e+02 
3.075000e-01 8.491440e+02 
3.087000e-01 8.444976e+02 
3.099100e-01 8.398574e+02 
3.111200e-01 8.352658e+02 
3.123100e-01 8.307998e+02 
3.135300e-01 8.262646e+02 
3.147300e-01 8.218462e+02 
3.159900e-01 8.172514e+02 
3.171800e-01 8.129594e+02 
3.183700e-01 8.087109e+02 
3.196300e-01 8.042551e+02 
3.208400e-01 8.000168e+02 
3.220300e-01 7.958868e+02 
3.232000e-01 7.918690e+02 
3.244300e-01 7.876860e+02 
3.256700e-01 7.835086e+02 
3.269200e-01 7.793370e+02 
3.280800e-01 7.755008e+02 
3.292500e-01 7.716761e+02 
3.304800e-01 7.676948e+02 
3.317100e-01 7.637498e+02 
3.328900e-01 7.599990e+02 
3.340700e-01 7.562808e+02 
3.353600e-01 7.522631e+02 
3.365300e-01 7.486557e+02 
3.377100e-01 7.450487e+02 
3.389200e-01 7.413822e+02 
3.401600e-01 7.376581e+02 
3.413700e-01 7.340671e+02 
3.425300e-01 7.306615e+02 
3.437700e-01 7.270523e+02 
3.449800e-01 7.235612e+02 
3.461800e-01 7.201287e+02 
3.473600e-01 7.167864e+02 
3.485800e-01 7.133712e+02 
3.498100e-01 7.099577e+02 
3.510200e-01 7.066285e+02 
3.522000e-01 7.034089e+02 
3.533900e-01 7.001888e+02 
3.546400e-01 6.968500e+02 
3.558400e-01 6.936728e+02 
3.570600e-01 6.904696e+02 
3.582700e-01 6.873191e+02 
3.595000e-01 6.841433e+02 
3.607100e-01 6.810536e+02 
3.618900e-01 6.780716e+02 
3.631200e-01 6.749885e+02 
3.643200e-01 6.720053e+02 
3.655500e-01 6.689725e+02 
3.667300e-01 6.660865e+02 
3.679500e-01 6.631430e+02 
3.691900e-01 6.601756e+02 
3.703600e-01 6.573982e+02 
3.715700e-01 6.545484e+02 
3.727700e-01 6.517446e+02 
3.739900e-01 6.489223e+02 
3.752000e-01 6.461556e+02 
3.763900e-01 6.434558e+02 
3.775800e-01 6.407770e+02 
3.788200e-01 6.380076e+02 
3.800300e-01 6.353265e+02 
3.812100e-01 6.327384e+02 
3.824200e-01 6.301090e+02 
3.836100e-01 6.275429e+02 
3.848600e-01 6.248684e+02 
3.860400e-01 6.223631e+02 
3.872400e-01 6.198346e+02 
3.884600e-01 6.172921e+02 
3.896500e-01 6.148341e+02 
3.908700e-01 6.123332e+02 
3.920600e-01 6.099121e+02 
3.933100e-01 6.073883e+02 
3.945300e-01 6.049441e+02 
3.957200e-01 6.025876e+02 
3.969300e-01 6.002121e+02 
3.981700e-01 5.977961e+02 
3.993500e-01 5.955140e+02 
4.094840e-01 5.765781e+02 
4.272360e-01 5.462348e+02 
4.454600e-01 5.181943e+02 
4.630560e-01 4.936626e+02 
4.804610e-01 4.715195e+02 
4.980690e-01 4.509957e+02 
5.159230e-01 4.318848e+02 
5.317440e-01 4.162309e+02 
5.489640e-01 4.004264e+02 
5.671990e-01 3.849785e+02 
5.838690e-01 3.718931e+02 
6.018840e-01 3.587556e+02 
6.202330e-01 3.463561e+02 
6.379250e-01 3.352457e+02 
6.545410e-01 3.255159e+02 
6.714560e-01 3.162132e+02 
6.892080e-01 3.070815e+02 
7.066010e-01 2.986831e+02 
7.240540e-01 2.907603e+02 
7.420450e-01 2.830680e+02 
7.593780e-01 2.760687e+02 
7.764720e-01 2.695258e+02 
7.942840e-01 2.630633e+02 
8.116170e-01 2.570834e+02 
8.288310e-01 2.514200e+02 
8.462240e-01 2.459545e+02 
8.631980e-01 2.408414e+02 
8.810700e-01 2.356872e+02 
8.989410e-01 2.307449e+02 
9.166330e-01 2.260433e+02 
9.345640e-01 2.214635e+02 
9.515980e-01 2.172597e+02 
9.688720e-01 2.131397e+02 
9.865640e-01 2.090555e+02 
1.031870e+00 1.991952e+02 
1.063490e+00 1.927519e+02 
1.097920e+00 1.861118e+02 
1.134370e+00 1.794574e+02 
1.167730e+00 1.736804e+02 
1.203830e+00 1.677181e+02 
1.240470e+00 1.619792e+02 
1.275790e+00 1.566924e+02 
1.309140e+00 1.519451e+02 
1.342970e+00 1.473057e+02 
1.378420e+00 1.426683e+02 
1.413200e+00 1.383049e+02 
1.448110e+00 1.341086e+02 
1.484090e+00 1.299690e+02 
1.518820e+00 1.261369e+02 
1.552880e+00 1.225212e+02 
1.588630e+00 1.188799e+02 
1.623230e+00 1.154955e+02 
1.657720e+00 1.122512e+02 
1.692450e+00 1.091150e+02 
1.726400e+00 1.061541e+02 
1.762200e+00 1.031462e+02 
1.797880e+00 1.002684e+02 
1.833270e+00 9.751774e+01 
1.869070e+00 9.483769e+01 
1.903200e+00 9.237890e+01 
1.937740e+00 8.997764e+01 
1.973190e+00 8.759739e+01 
2.007440e+00 8.538095e+01 
2.042160e+00 8.321238e+01 
2.077900e+00 8.105376e+01 
2.112390e+00 7.904706e+01 
2.146220e+00 7.713742e+01 
2.181600e+00 7.520864e+01 
2.216930e+00 7.334827e+01 
2.250760e+00 7.162491e+01 
2.286500e+00 6.986315e+01 
2.321770e+00 6.818207e+01 
2.355950e+00 6.660609e+01 
2.391280e+00 6.502532e+01 
2.426240e+00 6.351203e+01 
2.460670e+00 6.206941e+01 
2.495640e+00 6.065020e+01 
2.531080e+00 5.925218e+01 
2.566220e+00 5.790964e+01 
2.600830e+00 5.662874e+01 
2.635080e+00 5.540013e+01 
2.670340e+00 5.417170e+01 
2.705970e+00 5.296751e+01 
2.740040e+00 5.184971e+01 
2.774520e+00 5.074828e+01 
2.809730e+00 4.965724e+01 
2.844390e+00 4.861554e+01 
2.879960e+00 4.757722e+01 
2.914860e+00 4.658625e+01 
2.949410e+00 4.563326e+01 
2.984440e+00 4.469395e+01 
3.019760e+00 4.377264e+01 
3.054730e+00 4.288607e+01 
3.089030e+00 4.203975e+01 
3.124060e+00 4.119890e+01 
3.159560e+00 4.036933e+01 
3.194710e+00 3.957054e+01 
3.229010e+00 3.881262e+01 
3.263320e+00 3.807362e+01 
3.297930e+00 3.734763e+01 
3.332830e+00 3.663355e+01 
3.368040e+00 3.593229e+01 
3.403300e+00 3.524880e+01 
3.438450e+00 3.458506e+01 
3.473060e+00 3.394873e+01 
3.508440e+00 3.331367e+01 
3.543110e+00 3.270761e+01 
3.577470e+00 3.212195e+01 
3.613040e+00 3.153080e+01 
3.648120e+00 3.096145e+01 
3.682910e+00 3.041105e+01 
3.718050e+00 2.986894e+01 
3.753320e+00 2.933835e+01 
3.787980e+00 2.882964e+01 
3.822290e+00 2.833809e+01 
3.857020e+00 2.785222e+01 
3.891920e+00 2.737554e+01 
3.926650e+00 2.691219e+01 
3.961970e+00 2.645225e+01 
3.997360e+00 2.600255e+01 
4.031670e+00 2.557671e+01 
4.066330e+00 2.515620e+01 
4.101420e+00 2.474027e+01 
4.136200e+00 2.433740e+01 
4.170810e+00 2.394554e+01 
4.206250e+00 2.355317e+01 
4.241580e+00 2.317086e+01 
4.276300e+00 2.280381e+01 
4.310970e+00 2.244549e+01 
4.346120e+00 2.209029e+01 
4.380600e+00 2.174961e+01 
4.414730e+00 2.141954e+01 
4.450350e+00 2.108283e+01 
4.485320e+00 2.075935e+01 
4.519810e+00 2.044727e+01 
4.555430e+00 2.013187e+01 
4.590870e+00 1.982486e+01 
4.625480e+00 1.953159e+01 
4.659910e+00 1.924575e+01 
4.695230e+00 1.895896e+01 
4.729960e+00 1.868275e+01 
4.764450e+00 1.841410e+01 
4.799530e+00 1.814659e+01 
4.834910e+00 1.788219e+01 
4.869700e+00 1.762784e+01 
4.904370e+00 1.737938e+01 
4.939450e+00 1.713305e+01 
4.973940e+00 1.689599e+01 
5.008430e+00 1.666342e+01 
5.043810e+00 1.642968e+01 
5.078840e+00 1.620284e+01 
5.113500e+00 1.598259e+01 
5.148890e+00 1.576265e+01 
5.184210e+00 1.554729e+01 
5.219060e+00 1.533888e+01 
5.253660e+00 1.513617e+01 
5.288570e+00 1.493534e+01 
5.323420e+00 1.473877e+01 
5.358440e+00 1.454510e+01 
5.393590e+00 1.435420e+01 
5.428310e+00 1.416944e+01 
5.462800e+00 1.398936e+01 
5.497640e+00 1.381062e+01 
5.532670e+00 1.363450e+01 
5.567280e+00 1.346364e+01 
5.602000e+00 1.329517e+01 
5.637270e+00 1.312745e+01 
5.672410e+00 1.296333e+01 
5.707020e+00 1.280441e+01 
5.742040e+00 1.264683e+01 
5.777430e+00 1.249037e+01 
5.812210e+00 1.233917e+01 
5.846820e+00 1.219158e+01 
5.881610e+00 1.204576e+01 
5.916510e+00 1.190185e+01 
5.951600e+00 1.175992e+01 
5.986560e+00 1.162099e+01 
6.021830e+00 1.148308e+01 
6.056490e+00 1.135005e+01 
6.091160e+00 1.121934e+01 
6.125830e+00 1.109068e+01 
6.161090e+00 1.096205e+01 
6.195760e+00 1.083791e+01 
6.230420e+00 1.071570e+01 
6.265690e+00 1.059329e+01 
6.300950e+00 1.047330e+01 
6.335620e+00 1.035712e+01 
6.370880e+00 1.024076e+01 
6.405550e+00 1.012842e+01 
6.440220e+00 1.001789e+01 
6.475480e+00 9.907160e+00 
6.510150e+00 9.800037e+00 
6.544810e+00 9.694820e+00 
6.580080e+00 9.589325e+00 
6.614750e+00 9.487141e+00 
6.649410e+00 9.386889e+00 
6.684080e+00 9.288130e+00 
6.719340e+00 9.189136e+00 
6.754010e+00 9.093316e+00 
6.788680e+00 8.999135e+00 
6.823940e+00 8.904709e+00 
6.859800e+00 8.810055e+00 
6.894470e+00 8.720127e+00 
6.929140e+00 8.631549e+00 
6.963800e+00 8.544217e+00 
6.999070e+00 8.456599e+00 
7.033730e+00 8.371999e+00 
7.068400e+00 8.288524e+00 
7.103660e+00 8.204785e+00 
7.138330e+00 8.123693e+00 
7.173600e+00 8.042576e+00 
7.208260e+00 7.963932e+00 
7.243530e+00 7.884975e+00 
7.277600e+00 7.809897e+00 
7.312860e+00 7.733386e+00 
7.348120e+00 7.657892e+00 
7.382790e+00 7.584635e+00 
7.417460e+00 7.512539e+00 
7.452720e+00 7.440279e+00 
7.487390e+00 7.370148e+00 
7.522650e+00 7.299741e+00 
7.557320e+00 7.231598e+00 
7.591990e+00 7.164390e+00 
7.627250e+00 7.096907e+00 
7.662510e+00 7.030285e+00 
7.697180e+00 6.965821e+00 
7.731850e+00 6.902241e+00 
7.766510e+00 6.839465e+00 
7.801180e+00 6.777446e+00 
7.836440e+00 6.715325e+00 
7.871110e+00 6.655104e+00 
7.906380e+00 6.594592e+00 
7.941040e+00 6.535853e+00 
7.976310e+00 6.476905e+00 
8.011570e+00 6.418812e+00 
8.046240e+00 6.362379e+00 
8.080900e+00 6.306634e+00 
8.115570e+00 6.251583e+00 
8.150830e+00 6.196446e+00 
8.185500e+00 6.142875e+00 
8.220770e+00 6.089020e+00 
8.255430e+00 6.036718e+00 
8.290100e+00 5.985213e+00 
8.324770e+00 5.934327e+00 
8.359430e+00 5.884041e+00 
8.394700e+00 5.833462e+00 
8.429960e+00 5.783591e+00 
8.464630e+00 5.735226e+00 
8.499890e+00 5.686599e+00 
8.534560e+00 5.639330e+00 
8.569200e+00 5.592633e+00 
