# Parameters:
# omega_b = 0.022571, omega_m = 0.152244, n_s = 0.916142, h = 60.905512, w = -1.000000, sigma_8 = 0.737795
# z = 1.100000
#
# k[1/Mpc] # P(k):
8.694000e-04 4.709865e+03 
2.077466e-03 9.727733e+03 
3.285532e-03 1.358345e+04 
4.493598e-03 1.654198e+04 
5.701664e-03 1.875269e+04 
6.909730e-03 2.033865e+04 
8.117797e-03 2.143512e+04 
9.325863e-03 2.211217e+04 
1.053393e-02 2.244063e+04 
1.174199e-02 2.248596e+04 
1.295006e-02 2.228859e+04 
1.415813e-02 2.190239e+04 
1.536619e-02 2.137396e+04 
1.657426e-02 2.073690e+04 
1.778233e-02 2.003244e+04 
1.899039e-02 1.931143e+04 
2.019846e-02 1.856883e+04 
2.140652e-02 1.780919e+04 
2.261459e-02 1.705016e+04 
2.382266e-02 1.631269e+04 
2.503072e-02 1.560945e+04 
2.623879e-02 1.494559e+04 
2.744685e-02 1.432259e+04 
2.865492e-02 1.374499e+04 
2.986299e-02 1.321271e+04 
3.100100e-02 1.275194e+04 
3.220400e-02 1.230661e+04 
3.288100e-02 1.207447e+04 
3.424300e-02 1.164491e+04 
3.555100e-02 1.127419e+04 
3.686000e-02 1.094050e+04 
3.795000e-02 1.068673e+04 
3.929100e-02 1.040174e+04 
4.039800e-02 1.018420e+04 
4.164000e-02 9.954776e+03 
4.294400e-02 9.725561e+03 
4.415000e-02 9.521596e+03 
4.542900e-02 9.307382e+03 
4.660900e-02 9.112158e+03 
4.782300e-02 8.905654e+03 
4.892900e-02 8.715989e+03 
5.031200e-02 8.473037e+03 
5.155900e-02 8.246895e+03 
5.238100e-02 8.094976e+03 
5.378200e-02 7.832003e+03 
5.513400e-02 7.573126e+03 
5.627600e-02 7.352386e+03 
5.735300e-02 7.144596e+03 
5.870100e-02 6.887036e+03 
5.988700e-02 6.665299e+03 
6.113500e-02 6.438058e+03 
6.225900e-02 6.239951e+03 
6.340100e-02 6.046317e+03 
6.480200e-02 5.820426e+03 
6.601100e-02 5.636661e+03 
6.725500e-02 5.459155e+03 
6.829100e-02 5.321394e+03 
6.958600e-02 5.160657e+03 
7.071100e-02 5.032406e+03 
7.192300e-02 4.905319e+03 
7.307400e-02 4.794772e+03 
7.412300e-02 4.702048e+03 
7.550400e-02 4.591611e+03 
7.663100e-02 4.509143e+03 
7.791200e-02 4.424555e+03 
7.912700e-02 4.351410e+03 
8.027600e-02 4.286890e+03 
8.138400e-02 4.227983e+03 
8.272200e-02 4.160231e+03 
8.406100e-02 4.094801e+03 
8.534100e-02 4.032962e+03 
8.653800e-02 3.974529e+03 
8.759800e-02 3.922263e+03 
8.900300e-02 3.851470e+03 
9.009000e-02 3.794808e+03 
9.113300e-02 3.738293e+03 
9.239600e-02 3.668634e+03 
9.358000e-02 3.601300e+03 
9.496100e-02 3.519797e+03 
9.608400e-02 3.452759e+03 
9.727500e-02 3.381551e+03 
9.852600e-02 3.304647e+03 
9.973800e-02 3.231089e+03 
1.009000e-01 3.161564e+03 
1.020900e-01 3.090749e+03 
1.034000e-01 3.015038e+03 
1.046000e-01 2.947687e+03 
1.057200e-01 2.887121e+03 
1.069100e-01 2.824982e+03 
1.082500e-01 2.758507e+03 
1.093900e-01 2.704949e+03 
1.105400e-01 2.653148e+03 
1.116900e-01 2.605039e+03 
1.129600e-01 2.554264e+03 
1.142000e-01 2.508512e+03 
1.153300e-01 2.469049e+03 
1.166400e-01 2.426266e+03 
1.177800e-01 2.391711e+03 
1.190000e-01 2.356439e+03 
1.201200e-01 2.326576e+03 
1.213400e-01 2.295129e+03 
1.227100e-01 2.262602e+03 
1.238900e-01 2.235520e+03 
1.250700e-01 2.209730e+03 
1.263200e-01 2.183084e+03 
1.275500e-01 2.157558e+03 
1.287500e-01 2.132974e+03 
1.299900e-01 2.107750e+03 
1.311300e-01 2.084503e+03 
1.323500e-01 2.059305e+03 
1.335900e-01 2.033447e+03 
1.347100e-01 2.009503e+03 
1.359800e-01 1.982150e+03 
1.372100e-01 1.954672e+03 
1.384300e-01 1.927387e+03 
1.395700e-01 1.900919e+03 
1.407700e-01 1.873481e+03 
1.420300e-01 1.843554e+03 
1.432800e-01 1.814549e+03 
1.444500e-01 1.786803e+03 
1.456300e-01 1.759426e+03 
1.468900e-01 1.730620e+03 
1.480500e-01 1.704618e+03 
1.491700e-01 1.680198e+03 
1.503800e-01 1.654579e+03 
1.516400e-01 1.628676e+03 
1.528200e-01 1.605767e+03 
1.540200e-01 1.582945e+03 
1.551900e-01 1.562215e+03 
1.564300e-01 1.540945e+03 
1.576600e-01 1.520883e+03 
1.588700e-01 1.502267e+03 
1.600900e-01 1.483918e+03 
1.612700e-01 1.467577e+03 
1.625400e-01 1.450320e+03 
1.637600e-01 1.434492e+03 
1.649500e-01 1.419587e+03 
1.662200e-01 1.404009e+03 
1.674000e-01 1.390004e+03 
1.685000e-01 1.377168e+03 
1.697500e-01 1.362744e+03 
1.710300e-01 1.348157e+03 
1.722200e-01 1.334837e+03 
1.734400e-01 1.320951e+03 
1.746400e-01 1.307509e+03 
1.758700e-01 1.293778e+03 
1.770900e-01 1.280006e+03 
1.782700e-01 1.266911e+03 
1.794600e-01 1.253598e+03 
1.807000e-01 1.239742e+03 
1.819100e-01 1.226453e+03 
1.830100e-01 1.214232e+03 
1.842200e-01 1.200949e+03 
1.855000e-01 1.187128e+03 
1.867000e-01 1.174167e+03 
1.879200e-01 1.161209e+03 
1.890900e-01 1.148978e+03 
1.902800e-01 1.136704e+03 
1.915200e-01 1.124123e+03 
1.926900e-01 1.112472e+03 
1.939000e-01 1.100705e+03 
1.951700e-01 1.088556e+03 
1.963100e-01 1.077874e+03 
1.975100e-01 1.066935e+03 
1.987800e-01 1.055542e+03 
2.000100e-01 1.044758e+03 
2.012500e-01 1.034227e+03 
2.023400e-01 1.025105e+03 
2.036100e-01 1.014678e+03 
2.048900e-01 1.004508e+03 
2.060400e-01 9.955072e+02 
2.072200e-01 9.864163e+02 
2.084200e-01 9.774624e+02 
2.096900e-01 9.681271e+02 
2.109200e-01 9.592212e+02 
2.121100e-01 9.508141e+02 
2.132700e-01 9.427370e+02 
2.145200e-01 9.341564e+02 
2.157200e-01 9.260634e+02 
2.168800e-01 9.183595e+02 
2.180700e-01 9.105635e+02 
2.193400e-01 9.023536e+02 
2.206000e-01 8.943123e+02 
2.217500e-01 8.870735e+02 
2.229500e-01 8.796203e+02 
2.241400e-01 8.722809e+02 
2.253500e-01 8.649172e+02 
2.264900e-01 8.580704e+02 
2.277100e-01 8.508072e+02 
2.289900e-01 8.432568e+02 
2.301500e-01 8.365060e+02 
2.313600e-01 8.295549e+02 
2.325600e-01 8.226903e+02 
2.337700e-01 8.158589e+02 
2.350000e-01 8.090062e+02 
2.362000e-01 8.023891e+02 
2.374100e-01 7.957809e+02 
2.386500e-01 7.890972e+02 
2.399100e-01 7.823956e+02 
2.410400e-01 7.764403e+02 
2.422500e-01 7.701392e+02 
2.435000e-01 7.637136e+02 
2.447300e-01 7.574740e+02 
2.458700e-01 7.517691e+02 
2.470600e-01 7.458855e+02 
2.483300e-01 7.396855e+02 
2.495600e-01 7.337660e+02 
2.507600e-01 7.280739e+02 
2.519600e-01 7.224507e+02 
2.532200e-01 7.166194e+02 
2.543700e-01 7.113860e+02 
2.555500e-01 7.060951e+02 
2.568000e-01 7.005577e+02 
2.580100e-01 6.952623e+02 
2.592400e-01 6.899768e+02 
2.604100e-01 6.850222e+02 
2.616100e-01 6.799990e+02 
2.628400e-01 6.749105e+02 
2.640600e-01 6.699538e+02 
2.652200e-01 6.653068e+02 
2.664300e-01 6.605140e+02 
2.676500e-01 6.557371e+02 
2.688400e-01 6.511545e+02 
2.700700e-01 6.464865e+02 
2.712400e-01 6.420957e+02 
2.724800e-01 6.374943e+02 
2.736700e-01 6.331430e+02 
2.748800e-01 6.287828e+02 
2.761000e-01 6.244354e+02 
2.773200e-01 6.201362e+02 
2.785400e-01 6.158910e+02 
2.797000e-01 6.119113e+02 
2.808900e-01 6.078718e+02 
2.821400e-01 6.036748e+02 
2.833900e-01 5.995248e+02 
2.845500e-01 5.957222e+02 
2.857800e-01 5.917326e+02 
2.870300e-01 5.877223e+02 
2.882100e-01 5.839767e+02 
2.893900e-01 5.802729e+02 
2.906300e-01 5.764232e+02 
2.918900e-01 5.725537e+02 
2.930500e-01 5.690283e+02 
2.942500e-01 5.654179e+02 
2.954200e-01 5.619326e+02 
2.966500e-01 5.583059e+02 
2.978900e-01 5.546878e+02 
2.990400e-01 5.513662e+02 
3.002700e-01 5.478465e+02 
3.015100e-01 5.443336e+02 
3.026800e-01 5.410523e+02 
3.038500e-01 5.378028e+02 
3.050300e-01 5.345573e+02 
3.062600e-01 5.312044e+02 
3.075000e-01 5.278585e+02 
3.087000e-01 5.246527e+02 
3.099100e-01 5.214519e+02 
3.111200e-01 5.182828e+02 
3.123100e-01 5.151967e+02 
3.135300e-01 5.120635e+02 
3.147300e-01 5.090115e+02 
3.159900e-01 5.058383e+02 
3.171800e-01 5.028717e+02 
3.183700e-01 4.999337e+02 
3.196300e-01 4.968529e+02 
3.208400e-01 4.939231e+02 
3.220300e-01 4.910688e+02 
3.232000e-01 4.882914e+02 
3.244300e-01 4.854001e+02 
3.256700e-01 4.825131e+02 
3.269200e-01 4.796308e+02 
3.280800e-01 4.769807e+02 
3.292500e-01 4.743381e+02 
3.304800e-01 4.715874e+02 
3.317100e-01 4.688623e+02 
3.328900e-01 4.662719e+02 
3.340700e-01 4.637046e+02 
3.353600e-01 4.609324e+02 
3.365300e-01 4.584444e+02 
3.377100e-01 4.559571e+02 
3.389200e-01 4.534292e+02 
3.401600e-01 4.508621e+02 
3.413700e-01 4.483896e+02 
3.425300e-01 4.460467e+02 
3.437700e-01 4.435642e+02 
3.449800e-01 4.411634e+02 
3.461800e-01 4.388033e+02 
3.473600e-01 4.365070e+02 
3.485800e-01 4.341646e+02 
3.498100e-01 4.318237e+02 
3.510200e-01 4.295410e+02 
3.522000e-01 4.273338e+02 
3.533900e-01 4.251266e+02 
3.546400e-01 4.228451e+02 
3.558400e-01 4.206747e+02 
3.570600e-01 4.184868e+02 
3.582700e-01 4.163353e+02 
3.595000e-01 4.141669e+02 
3.607100e-01 4.120613e+02 
3.618900e-01 4.100324e+02 
3.631200e-01 4.079351e+02 
3.643200e-01 4.059061e+02 
3.655500e-01 4.038436e+02 
3.667300e-01 4.018812e+02 
3.679500e-01 3.998876e+02 
3.691900e-01 3.978782e+02 
3.703600e-01 3.959976e+02 
3.715700e-01 3.940683e+02 
3.727700e-01 3.921704e+02 
3.739900e-01 3.902628e+02 
3.752000e-01 3.883977e+02 
3.763900e-01 3.865779e+02 
3.775800e-01 3.847725e+02 
3.788200e-01 3.829063e+02 
3.800300e-01 3.810999e+02 
3.812100e-01 3.793604e+02 
3.824200e-01 3.775964e+02 
3.836100e-01 3.758751e+02 
3.848600e-01 3.740812e+02 
3.860400e-01 3.724010e+02 
3.872400e-01 3.707054e+02 
3.884600e-01 3.690058e+02 
3.896500e-01 3.673649e+02 
3.908700e-01 3.656954e+02 
3.920600e-01 3.640794e+02 
3.933100e-01 3.623951e+02 
3.945300e-01 3.607639e+02 
3.957200e-01 3.591961e+02 
3.969300e-01 3.576170e+02 
3.981700e-01 3.560111e+02 
3.993500e-01 3.544945e+02 
4.094840e-01 3.419443e+02 
4.272360e-01 3.219740e+02 
4.454600e-01 3.036314e+02 
4.630560e-01 2.876566e+02 
4.804610e-01 2.732814e+02 
4.980690e-01 2.599834e+02 
5.159230e-01 2.476226e+02 
5.317440e-01 2.375123e+02 
5.489640e-01 2.273260e+02 
5.671990e-01 2.173857e+02 
5.838690e-01 2.089836e+02 
6.018840e-01 2.005763e+02 
6.202330e-01 1.926725e+02 
6.379250e-01 1.856056e+02 
6.545410e-01 1.794484e+02 
6.714560e-01 1.735866e+02 
6.892080e-01 1.678503e+02 
7.066010e-01 1.626083e+02 
7.240540e-01 1.576787e+02 
7.420450e-01 1.529275e+02 
7.593780e-01 1.486302e+02 
7.764720e-01 1.446333e+02 
7.942840e-01 1.407060e+02 
8.116170e-01 1.370987e+02 
8.288310e-01 1.337075e+02 
8.462240e-01 1.304534e+02 
8.631980e-01 1.274327e+02 
8.810700e-01 1.244044e+02 
8.989410e-01 1.215211e+02 
9.166330e-01 1.187960e+02 
9.345640e-01 1.161572e+02 
9.515980e-01 1.137554e+02 
9.688720e-01 1.114167e+02 
9.865640e-01 1.091150e+02 
1.031870e+00 1.036116e+02 
1.063490e+00 1.000637e+02 
1.097920e+00 9.644435e+01 
1.134370e+00 9.285378e+01 
1.167730e+00 8.976767e+01 
1.203830e+00 8.661169e+01 
1.240470e+00 8.359645e+01 
1.275790e+00 8.084289e+01 
1.309140e+00 7.838113e+01 
1.342970e+00 7.599341e+01 
1.378420e+00 7.361817e+01 
1.413200e+00 7.139456e+01 
1.448110e+00 6.926350e+01 
1.484090e+00 6.717089e+01 
1.518820e+00 6.523928e+01 
1.552880e+00 6.342187e+01 
1.588630e+00 6.159493e+01 
1.623230e+00 5.990230e+01 
1.657720e+00 5.828282e+01 
1.692450e+00 5.671767e+01 
1.726400e+00 5.524327e+01 
1.762200e+00 5.374838e+01 
1.797880e+00 5.231741e+01 
1.833270e+00 5.095228e+01 
1.869070e+00 4.962313e+01 
1.903200e+00 4.840260e+01 
1.937740e+00 4.721114e+01 
1.973190e+00 4.603113e+01 
2.007440e+00 4.493147e+01 
2.042160e+00 4.385466e+01 
2.077900e+00 4.278377e+01 
2.112390e+00 4.178637e+01 
2.146220e+00 4.083839e+01 
2.181600e+00 3.987925e+01 
2.216930e+00 3.895355e+01 
2.250760e+00 3.809556e+01 
2.286500e+00 3.721800e+01 
2.321770e+00 3.637997e+01 
2.355950e+00 3.559277e+01 
2.391280e+00 3.480297e+01 
2.426240e+00 3.404558e+01 
2.460670e+00 3.332270e+01 
2.495640e+00 3.261110e+01 
2.531080e+00 3.190968e+01 
2.566220e+00 3.123501e+01 
2.600830e+00 3.059026e+01 
2.635080e+00 2.997080e+01 
2.670340e+00 2.934996e+01 
2.705970e+00 2.874104e+01 
2.740040e+00 2.817547e+01 
2.774520e+00 2.761785e+01 
2.809730e+00 2.706398e+01 
2.844390e+00 2.653415e+01 
2.879960e+00 2.600494e+01 
2.914860e+00 2.549963e+01 
2.949410e+00 2.501311e+01 
2.984440e+00 2.453214e+01 
3.019760e+00 2.406022e+01 
3.054730e+00 2.360579e+01 
3.089030e+00 2.317030e+01 
3.124060e+00 2.273735e+01 
3.159560e+00 2.230994e+01 
3.194710e+00 2.189729e+01 
3.229010e+00 2.150518e+01 
3.263320e+00 2.112165e+01 
3.297930e+00 2.074465e+01 
3.332830e+00 2.037364e+01 
3.368040e+00 2.000845e+01 
3.403300e+00 1.965186e+01 
3.438450e+00 1.930466e+01 
3.473060e+00 1.897143e+01 
3.508440e+00 1.863832e+01 
3.543110e+00 1.832008e+01 
3.577470e+00 1.801154e+01 
3.613040e+00 1.769988e+01 
3.648120e+00 1.739944e+01 
3.682910e+00 1.710853e+01 
3.718050e+00 1.682128e+01 
3.753320e+00 1.653974e+01 
3.787980e+00 1.626932e+01 
3.822290e+00 1.600763e+01 
3.857020e+00 1.574844e+01 
3.891920e+00 1.549380e+01 
3.926650e+00 1.524578e+01 
3.961970e+00 1.499928e+01 
3.997360e+00 1.475770e+01 
4.031670e+00 1.452875e+01 
4.066330e+00 1.430218e+01 
4.101420e+00 1.407796e+01 
4.136200e+00 1.386018e+01 
4.170810e+00 1.364825e+01 
4.206250e+00 1.343568e+01 
4.241580e+00 1.322840e+01 
4.276300e+00 1.302890e+01 
4.310970e+00 1.283382e+01 
4.346120e+00 1.264021e+01 
4.380600e+00 1.245421e+01 
4.414730e+00 1.227391e+01 
4.450350e+00 1.208943e+01 
4.485320e+00 1.191214e+01 
4.519810e+00 1.174072e+01 
4.555430e+00 1.156727e+01 
4.590870e+00 1.139826e+01 
4.625480e+00 1.123652e+01 
4.659910e+00 1.107883e+01 
4.695230e+00 1.092018e+01 
4.729960e+00 1.076728e+01 
4.764450e+00 1.061837e+01 
4.799530e+00 1.046981e+01 
4.834910e+00 1.032293e+01 
4.869700e+00 1.018133e+01 
4.904370e+00 1.004292e+01 
4.939450e+00 9.905560e+00 
4.973940e+00 9.773110e+00 
5.008430e+00 9.643126e+00 
5.043810e+00 9.512276e+00 
5.078840e+00 9.385144e+00 
5.113500e+00 9.261679e+00 
5.148890e+00 9.138041e+00 
5.184210e+00 9.016935e+00 
5.219060e+00 8.899647e+00 
5.253660e+00 8.785365e+00 
5.288570e+00 8.672118e+00 
5.323420e+00 8.561144e+00 
5.358440e+00 8.451676e+00 
5.393590e+00 8.343748e+00 
5.428310e+00 8.239107e+00 
5.462800e+00 8.137005e+00 
5.497640e+00 8.035640e+00 
5.532670e+00 7.935575e+00 
5.567280e+00 7.838428e+00 
5.602000e+00 7.742619e+00 
5.637270e+00 7.647097e+00 
5.672410e+00 7.553577e+00 
5.707020e+00 7.463004e+00 
5.742040e+00 7.373017e+00 
5.777430e+00 7.283623e+00 
5.812210e+00 7.197220e+00 
5.846820e+00 7.112765e+00 
5.881610e+00 7.029276e+00 
5.916510e+00 6.946873e+00 
5.951600e+00 6.865491e+00 
5.986560e+00 6.785769e+00 
6.021830e+00 6.706626e+00 
6.056490e+00 6.630201e+00 
6.091160e+00 6.555045e+00 
6.125830e+00 6.481057e+00 
6.161090e+00 6.407045e+00 
6.195760e+00 6.335534e+00 
6.230420e+00 6.265137e+00 
6.265690e+00 6.194605e+00 
6.300950e+00 6.125364e+00 
6.335620e+00 6.058313e+00 
6.370880e+00 5.991150e+00 
6.405550e+00 5.926252e+00 
6.440220e+00 5.862376e+00 
6.475480e+00 5.798377e+00 
6.510150e+00 5.736432e+00 
6.544810e+00 5.675525e+00 
6.580080e+00 5.614453e+00 
6.614750e+00 5.555293e+00 
6.649410e+00 5.497206e+00 
6.684080e+00 5.439972e+00 
6.719340e+00 5.382597e+00 
6.754010e+00 5.327039e+00 
6.788680e+00 5.272384e+00 
6.823940e+00 5.217583e+00 
6.859800e+00 5.162645e+00 
6.894470e+00 5.110426e+00 
6.929140e+00 5.058979e+00 
6.963800e+00 5.008253e+00 
6.999070e+00 4.957356e+00 
7.033730e+00 4.908179e+00 
7.068400e+00 4.859653e+00 
7.103660e+00 4.810972e+00 
7.138330e+00 4.763821e+00 
7.173600e+00 4.716641e+00 
7.208260e+00 4.670897e+00 
7.243530e+00 4.624968e+00 
7.277600e+00 4.581282e+00 
7.312860e+00 4.536750e+00 
7.348120e+00 4.492807e+00 
7.382790e+00 4.450165e+00 
7.417460e+00 4.408185e+00 
7.452720e+00 4.366103e+00 
7.487390e+00 4.325258e+00 
7.522650e+00 4.284252e+00 
7.557320e+00 4.244565e+00 
7.591990e+00 4.205424e+00 
7.627250e+00 4.166120e+00 
7.662510e+00 4.127315e+00 
7.697180e+00 4.089763e+00 
7.731850e+00 4.052724e+00 
7.766510e+00 4.016151e+00 
7.801180e+00 3.980017e+00 
7.836440e+00 3.943834e+00 
7.871110e+00 3.908764e+00 
7.906380e+00 3.873522e+00 
7.941040e+00 3.839311e+00 
7.976310e+00 3.804979e+00 
8.011570e+00 3.771146e+00 
8.046240e+00 3.738277e+00 
8.080900e+00 3.705808e+00 
8.115570e+00 3.673746e+00 
8.150830e+00 3.641649e+00 
8.185500e+00 3.610461e+00 
8.220770e+00 3.579107e+00 
8.255430e+00 3.548655e+00 
8.290100e+00 3.518671e+00 
8.324770e+00 3.489047e+00 
8.359430e+00 3.459771e+00 
8.394700e+00 3.430322e+00 
8.429960e+00 3.401297e+00 
8.464630e+00 3.373161e+00 
8.499890e+00 3.344871e+00 
8.534560e+00 3.317369e+00 
8.569200e+00 3.290198e+00 
