# Parameters:
# omega_b = 0.022303, omega_m = 0.124134, n_s = 0.933465, h = 61.614173, w = -1.000000, sigma_8 = 0.818110
# z = 1.100000
#
# k[1/Mpc] # P(k):
8.694000e-04 1.041090e+04 
2.077466e-03 2.135288e+04 
3.285532e-03 2.937857e+04 
4.493598e-03 3.516665e+04 
5.701664e-03 3.915588e+04 
6.909730e-03 4.170467e+04 
8.117797e-03 4.317197e+04 
9.325863e-03 4.374320e+04 
1.053393e-02 4.359575e+04 
1.174199e-02 4.288771e+04 
1.295006e-02 4.171853e+04 
1.415813e-02 4.021644e+04 
1.536619e-02 3.849102e+04 
1.657426e-02 3.662614e+04 
1.778233e-02 3.474538e+04 
1.899039e-02 3.298355e+04 
2.019846e-02 3.127060e+04 
2.140652e-02 2.956553e+04 
2.261459e-02 2.791804e+04 
2.382266e-02 2.637823e+04 
2.503072e-02 2.496465e+04 
2.623879e-02 2.367911e+04 
2.744685e-02 2.252142e+04 
2.865492e-02 2.148600e+04 
2.986299e-02 2.056363e+04 
3.100100e-02 1.979237e+04 
3.220400e-02 1.906843e+04 
3.288100e-02 1.869981e+04 
3.424300e-02 1.802907e+04 
3.555100e-02 1.745827e+04 
3.686000e-02 1.694661e+04 
3.795000e-02 1.655533e+04 
3.929100e-02 1.610670e+04 
4.039800e-02 1.575412e+04 
4.164000e-02 1.537092e+04 
4.294400e-02 1.496893e+04 
4.415000e-02 1.459995e+04 
4.542900e-02 1.419751e+04 
4.660900e-02 1.382383e+04 
4.782300e-02 1.342199e+04 
4.892900e-02 1.305240e+04 
5.031200e-02 1.258150e+04 
5.155900e-02 1.214974e+04 
5.238100e-02 1.186444e+04 
5.378200e-02 1.138034e+04 
5.513400e-02 1.091865e+04 
5.627600e-02 1.053724e+04 
5.735300e-02 1.018849e+04 
5.870100e-02 9.770380e+03 
5.988700e-02 9.422447e+03 
6.113500e-02 9.077345e+03 
6.225900e-02 8.785992e+03 
6.340100e-02 8.508932e+03 
6.480200e-02 8.192983e+03 
6.601100e-02 7.942355e+03 
6.725500e-02 7.704523e+03 
6.829100e-02 7.523051e+03 
6.958600e-02 7.313396e+03 
7.071100e-02 7.148233e+03 
7.192300e-02 6.986033e+03 
7.307400e-02 6.845902e+03 
7.412300e-02 6.728780e+03 
7.550400e-02 6.589209e+03 
7.663100e-02 6.484331e+03 
7.791200e-02 6.374744e+03 
7.912700e-02 6.276877e+03 
8.027600e-02 6.187403e+03 
8.138400e-02 6.102598e+03 
8.272200e-02 6.000294e+03 
8.406100e-02 5.896234e+03 
8.534100e-02 5.792006e+03 
8.653800e-02 5.689366e+03 
8.759800e-02 5.595521e+03 
8.900300e-02 5.465956e+03 
9.009000e-02 5.361122e+03 
9.113300e-02 5.256676e+03 
9.239600e-02 5.128681e+03 
9.358000e-02 5.006522e+03 
9.496100e-02 4.862364e+03 
9.608400e-02 4.746589e+03 
9.727500e-02 4.625971e+03 
9.852600e-02 4.502149e+03 
9.973800e-02 4.387006e+03 
1.009000e-01 4.280849e+03 
1.020900e-01 4.179376e+03 
1.034000e-01 4.073945e+03 
1.046000e-01 3.983290e+03 
1.057200e-01 3.906643e+03 
1.069100e-01 3.829585e+03 
1.082500e-01 3.751534e+03 
1.093900e-01 3.690815e+03 
1.105400e-01 3.633338e+03 
1.116900e-01 3.582014e+03 
1.129600e-01 3.528253e+03 
1.142000e-01 3.480392e+03 
1.153300e-01 3.438657e+03 
1.166400e-01 3.392723e+03 
1.177800e-01 3.353776e+03 
1.190000e-01 3.313111e+03 
1.201200e-01 3.275130e+03 
1.213400e-01 3.234457e+03 
1.227100e-01 3.186340e+03 
1.238900e-01 3.145026e+03 
1.250700e-01 3.101647e+03 
1.263200e-01 3.055561e+03 
1.275500e-01 3.008579e+03 
1.287500e-01 2.962594e+03 
1.299900e-01 2.914249e+03 
1.311300e-01 2.870002e+03 
1.323500e-01 2.822482e+03 
1.335900e-01 2.774978e+03 
1.347100e-01 2.732569e+03 
1.359800e-01 2.685627e+03 
1.372100e-01 2.641313e+03 
1.384300e-01 2.598642e+03 
1.395700e-01 2.560265e+03 
1.407700e-01 2.520878e+03 
1.420300e-01 2.481756e+03 
1.432800e-01 2.443829e+03 
1.444500e-01 2.410527e+03 
1.456300e-01 2.377637e+03 
1.468900e-01 2.344336e+03 
1.480500e-01 2.314633e+03 
1.491700e-01 2.286941e+03 
1.503800e-01 2.258158e+03 
1.516400e-01 2.228922e+03 
1.528200e-01 2.202618e+03 
1.540200e-01 2.176387e+03 
1.551900e-01 2.151539e+03 
1.564300e-01 2.125770e+03 
1.576600e-01 2.100705e+03 
1.588700e-01 2.076518e+03 
1.600900e-01 2.052581e+03 
1.612700e-01 2.029621e+03 
1.625400e-01 2.005377e+03 
1.637600e-01 1.982299e+03 
1.649500e-01 1.960067e+03 
1.662200e-01 1.936717e+03 
1.674000e-01 1.915057e+03 
1.685000e-01 1.895211e+03 
1.697500e-01 1.872862e+03 
1.710300e-01 1.850214e+03 
1.722200e-01 1.829542e+03 
1.734400e-01 1.808408e+03 
1.746400e-01 1.787974e+03 
1.758700e-01 1.767353e+03 
1.770900e-01 1.747167e+03 
1.782700e-01 1.727979e+03 
1.794600e-01 1.708952e+03 
1.807000e-01 1.689464e+03 
1.819100e-01 1.670776e+03 
1.830100e-01 1.654162e+03 
1.842200e-01 1.636196e+03 
1.855000e-01 1.617527e+03 
1.867000e-01 1.600541e+03 
1.879200e-01 1.583556e+03 
1.890900e-01 1.567573e+03 
1.902800e-01 1.551803e+03 
1.915200e-01 1.535634e+03 
1.926900e-01 1.520689e+03 
1.939000e-01 1.505699e+03 
1.951700e-01 1.490217e+03 
1.963100e-01 1.476594e+03 
1.975100e-01 1.462622e+03 
1.987800e-01 1.448066e+03 
2.000100e-01 1.434243e+03 
2.012500e-01 1.420644e+03 
2.023400e-01 1.408864e+03 
2.036100e-01 1.395350e+03 
2.048900e-01 1.381996e+03 
2.060400e-01 1.370175e+03 
2.072200e-01 1.358216e+03 
2.084200e-01 1.346227e+03 
2.096900e-01 1.333727e+03 
2.109200e-01 1.321799e+03 
2.121100e-01 1.310331e+03 
2.132700e-01 1.299301e+03 
2.145200e-01 1.287583e+03 
2.157200e-01 1.276400e+03 
2.168800e-01 1.265693e+03 
2.180700e-01 1.254859e+03 
2.193400e-01 1.243385e+03 
2.206000e-01 1.232027e+03 
2.217500e-01 1.221803e+03 
2.229500e-01 1.211277e+03 
2.241400e-01 1.200755e+03 
2.253500e-01 1.190197e+03 
2.264900e-01 1.180380e+03 
2.277100e-01 1.169889e+03 
2.289900e-01 1.158895e+03 
2.301500e-01 1.149068e+03 
2.313600e-01 1.138951e+03 
2.325600e-01 1.128806e+03 
2.337700e-01 1.118714e+03 
2.350000e-01 1.108594e+03 
2.362000e-01 1.098761e+03 
2.374100e-01 1.088871e+03 
2.386500e-01 1.078872e+03 
2.399100e-01 1.068851e+03 
2.410400e-01 1.059870e+03 
2.422500e-01 1.050361e+03 
2.435000e-01 1.040668e+03 
2.447300e-01 1.031254e+03 
2.458700e-01 1.022622e+03 
2.470600e-01 1.013724e+03 
2.483300e-01 1.004352e+03 
2.495600e-01 9.954245e+02 
2.507600e-01 9.868668e+02 
2.519600e-01 9.784163e+02 
2.532200e-01 9.696567e+02 
2.543700e-01 9.618572e+02 
2.555500e-01 9.540147e+02 
2.568000e-01 9.458098e+02 
2.580100e-01 9.379664e+02 
2.592400e-01 9.302419e+02 
2.604100e-01 9.230480e+02 
2.616100e-01 9.157563e+02 
2.628400e-01 9.083718e+02 
2.640600e-01 9.012952e+02 
2.652200e-01 8.947074e+02 
2.664300e-01 8.879141e+02 
2.676500e-01 8.811444e+02 
2.688400e-01 8.747430e+02 
2.700700e-01 8.682805e+02 
2.712400e-01 8.622024e+02 
2.724800e-01 8.558332e+02 
2.736700e-01 8.498706e+02 
2.748800e-01 8.439578e+02 
2.761000e-01 8.380624e+02 
2.773200e-01 8.322326e+02 
2.785400e-01 8.265041e+02 
2.797000e-01 8.211926e+02 
2.808900e-01 8.158012e+02 
2.821400e-01 8.101995e+02 
2.833900e-01 8.046628e+02 
2.845500e-01 7.996445e+02 
2.857800e-01 7.943791e+02 
2.870300e-01 7.890861e+02 
2.882100e-01 7.841423e+02 
2.893900e-01 7.792778e+02 
2.906300e-01 7.742346e+02 
2.918900e-01 7.691649e+02 
2.930500e-01 7.645459e+02 
2.942500e-01 7.598207e+02 
2.954200e-01 7.552762e+02 
2.966500e-01 7.505468e+02 
2.978900e-01 7.458285e+02 
2.990400e-01 7.414964e+02 
3.002700e-01 7.369163e+02 
3.015100e-01 7.323498e+02 
3.026800e-01 7.280840e+02 
3.038500e-01 7.238593e+02 
3.050300e-01 7.196396e+02 
3.062600e-01 7.152910e+02 
3.075000e-01 7.109511e+02 
3.087000e-01 7.067927e+02 
3.099100e-01 7.026404e+02 
3.111200e-01 6.985317e+02 
3.123100e-01 6.945354e+02 
3.135300e-01 6.904777e+02 
3.147300e-01 6.865248e+02 
3.159900e-01 6.824147e+02 
3.171800e-01 6.785764e+02 
3.183700e-01 6.747780e+02 
3.196300e-01 6.707946e+02 
3.208400e-01 6.670061e+02 
3.220300e-01 6.633149e+02 
3.232000e-01 6.597253e+02 
3.244300e-01 6.559891e+02 
3.256700e-01 6.522582e+02 
3.269200e-01 6.485330e+02 
3.280800e-01 6.451076e+02 
3.292500e-01 6.416942e+02 
3.304800e-01 6.381416e+02 
3.317100e-01 6.346219e+02 
3.328900e-01 6.312758e+02 
3.340700e-01 6.279591e+02 
3.353600e-01 6.243782e+02 
3.365300e-01 6.211643e+02 
3.377100e-01 6.179511e+02 
3.389200e-01 6.146852e+02 
3.401600e-01 6.113683e+02 
3.413700e-01 6.081721e+02 
3.425300e-01 6.051425e+02 
3.437700e-01 6.019321e+02 
3.449800e-01 5.988270e+02 
3.461800e-01 5.957743e+02 
3.473600e-01 5.928032e+02 
3.485800e-01 5.897702e+02 
3.498100e-01 5.867389e+02 
3.510200e-01 5.837827e+02 
3.522000e-01 5.809241e+02 
3.533900e-01 5.780653e+02 
3.546400e-01 5.751053e+02 
3.558400e-01 5.722889e+02 
3.570600e-01 5.694497e+02 
3.582700e-01 5.666574e+02 
3.595000e-01 5.638430e+02 
3.607100e-01 5.611072e+02 
3.618900e-01 5.584687e+02 
3.631200e-01 5.557410e+02 
3.643200e-01 5.531018e+02 
3.655500e-01 5.504190e+02 
3.667300e-01 5.478662e+02 
3.679500e-01 5.452667e+02 
3.691900e-01 5.426463e+02 
3.703600e-01 5.401938e+02 
3.715700e-01 5.376776e+02 
3.727700e-01 5.352021e+02 
3.739900e-01 5.327118e+02 
3.752000e-01 5.302728e+02 
3.763900e-01 5.278930e+02 
3.775800e-01 5.255318e+02 
3.788200e-01 5.230909e+02 
3.800300e-01 5.207280e+02 
3.812100e-01 5.184494e+02 
3.824200e-01 5.161361e+02 
3.836100e-01 5.138786e+02 
3.848600e-01 5.115258e+02 
3.860400e-01 5.093221e+02 
3.872400e-01 5.070981e+02 
3.884600e-01 5.048644e+02 
3.896500e-01 5.027059e+02 
3.908700e-01 5.005099e+02 
3.920600e-01 4.983842e+02 
3.933100e-01 4.961684e+02 
3.945300e-01 4.940225e+02 
3.957200e-01 4.919561e+02 
3.969300e-01 4.898738e+02 
3.981700e-01 4.877560e+02 
3.993500e-01 4.857558e+02 
4.094840e-01 4.691806e+02 
4.272360e-01 4.427066e+02 
4.454600e-01 4.183303e+02 
4.630560e-01 3.970747e+02 
4.804610e-01 3.779459e+02 
4.980690e-01 3.602631e+02 
5.159230e-01 3.438416e+02 
5.317440e-01 3.304208e+02 
5.489640e-01 3.169030e+02 
5.671990e-01 3.037198e+02 
5.838690e-01 2.925751e+02 
6.018840e-01 2.814120e+02 
6.202330e-01 2.709021e+02 
6.379250e-01 2.614990e+02 
6.545410e-01 2.532849e+02 
6.714560e-01 2.454473e+02 
6.892080e-01 2.377656e+02 
7.066010e-01 2.307188e+02 
7.240540e-01 2.240812e+02 
7.420450e-01 2.176547e+02 
7.593780e-01 2.118211e+02 
7.764720e-01 2.063789e+02 
7.942840e-01 2.010147e+02 
8.116170e-01 1.960653e+02 
8.288310e-01 1.913913e+02 
8.462240e-01 1.868913e+02 
8.631980e-01 1.826941e+02 
8.810700e-01 1.784730e+02 
8.989410e-01 1.744374e+02 
9.166330e-01 1.706088e+02 
9.345640e-01 1.668891e+02 
9.515980e-01 1.634866e+02 
9.688720e-01 1.601616e+02 
9.865640e-01 1.568759e+02 
1.031870e+00 1.489806e+02 
1.063490e+00 1.438544e+02 
1.097920e+00 1.385977e+02 
1.134370e+00 1.333579e+02 
1.167730e+00 1.288320e+02 
1.203830e+00 1.241856e+02 
1.240470e+00 1.197321e+02 
1.275790e+00 1.156508e+02 
1.309140e+00 1.119966e+02 
1.342970e+00 1.084433e+02 
1.378420e+00 1.049021e+02 
1.413200e+00 1.015824e+02 
1.448110e+00 9.839997e+01 
1.484090e+00 9.526990e+01 
1.518820e+00 9.238078e+01 
1.552880e+00 8.966234e+01 
1.588630e+00 8.693096e+01 
1.623230e+00 8.439871e+01 
1.657720e+00 8.197614e+01 
1.692450e+00 7.963851e+01 
1.726400e+00 7.743679e+01 
1.762200e+00 7.520459e+01 
1.797880e+00 7.307196e+01 
1.833270e+00 7.103721e+01 
1.869070e+00 6.905824e+01 
1.903200e+00 6.724447e+01 
1.937740e+00 6.547548e+01 
1.973190e+00 6.372469e+01 
2.007440e+00 6.209600e+01 
2.042160e+00 6.050411e+01 
2.077900e+00 5.892167e+01 
2.112390e+00 5.745136e+01 
2.146220e+00 5.605426e+01 
2.181600e+00 5.464394e+01 
2.216930e+00 5.328491e+01 
2.250760e+00 5.202692e+01 
2.286500e+00 5.074184e+01 
2.321770e+00 4.951650e+01 
2.355950e+00 4.836817e+01 
2.391280e+00 4.721748e+01 
2.426240e+00 4.611625e+01 
2.460670e+00 4.506688e+01 
2.495640e+00 4.403510e+01 
2.531080e+00 4.301952e+01 
2.566220e+00 4.204455e+01 
2.600830e+00 4.111457e+01 
2.635080e+00 4.022271e+01 
2.670340e+00 3.933128e+01 
2.705970e+00 3.845783e+01 
2.740040e+00 3.764734e+01 
2.774520e+00 3.684909e+01 
2.809730e+00 3.605838e+01 
2.844390e+00 3.530345e+01 
2.879960e+00 3.455103e+01 
2.914860e+00 3.383325e+01 
2.949410e+00 3.314306e+01 
2.984440e+00 3.246269e+01 
3.019760e+00 3.179561e+01 
3.054730e+00 3.115382e+01 
3.089030e+00 3.054100e+01 
3.124060e+00 2.993225e+01 
3.159560e+00 2.933183e+01 
3.194710e+00 2.875359e+01 
3.229010e+00 2.820489e+01 
3.263320e+00 2.766976e+01 
3.297930e+00 2.714414e+01 
3.332830e+00 2.662735e+01 
3.368040e+00 2.611969e+01 
3.403300e+00 2.562477e+01 
3.438450e+00 2.514409e+01 
3.473060e+00 2.468322e+01 
3.508440e+00 2.422333e+01 
3.543110e+00 2.378441e+01 
3.577470e+00 2.336010e+01 
3.613040e+00 2.293182e+01 
3.648120e+00 2.251938e+01 
3.682910e+00 2.212060e+01 
3.718050e+00 2.172772e+01 
3.753320e+00 2.134314e+01 
3.787980e+00 2.097437e+01 
3.822290e+00 2.061797e+01 
3.857020e+00 2.026561e+01 
3.891920e+00 1.991986e+01 
3.926650e+00 1.958372e+01 
3.961970e+00 1.925000e+01 
3.997360e+00 1.892358e+01 
4.031670e+00 1.861447e+01 
4.066330e+00 1.830921e+01 
4.101420e+00 1.800726e+01 
4.136200e+00 1.771465e+01 
4.170810e+00 1.743003e+01 
4.206250e+00 1.714499e+01 
4.241580e+00 1.686723e+01 
4.276300e+00 1.660047e+01 
4.310970e+00 1.634000e+01 
4.346120e+00 1.608176e+01 
4.380600e+00 1.583402e+01 
4.414730e+00 1.559399e+01 
4.450350e+00 1.534899e+01 
4.485320e+00 1.511363e+01 
4.519810e+00 1.488649e+01 
4.555430e+00 1.465690e+01 
4.590870e+00 1.443338e+01 
4.625480e+00 1.421982e+01 
4.659910e+00 1.401167e+01 
4.695230e+00 1.380272e+01 
4.729960e+00 1.360147e+01 
4.764450e+00 1.340568e+01 
4.799530e+00 1.321068e+01 
4.834910e+00 1.301794e+01 
4.869700e+00 1.283246e+01 
4.904370e+00 1.265126e+01 
4.939450e+00 1.247159e+01 
4.973940e+00 1.229864e+01 
5.008430e+00 1.212896e+01 
5.043810e+00 1.195837e+01 
5.078840e+00 1.179279e+01 
5.113500e+00 1.163203e+01 
5.148890e+00 1.147142e+01 
5.184210e+00 1.131416e+01 
5.219060e+00 1.116196e+01 
5.253660e+00 1.101387e+01 
5.288570e+00 1.086717e+01 
5.323420e+00 1.072355e+01 
5.358440e+00 1.058203e+01 
5.393590e+00 1.044254e+01 
5.428310e+00 1.030750e+01 
5.462800e+00 1.017586e+01 
5.497640e+00 1.004520e+01 
5.532670e+00 9.916416e+00 
5.567280e+00 9.791474e+00 
5.602000e+00 9.668280e+00 
5.637270e+00 9.545618e+00 
5.672410e+00 9.425584e+00 
5.707020e+00 9.309359e+00 
5.742040e+00 9.194076e+00 
5.777430e+00 9.079611e+00 
5.812210e+00 8.968999e+00 
5.846820e+00 8.861022e+00 
5.881610e+00 8.754331e+00 
5.916510e+00 8.649049e+00 
5.951600e+00 8.545196e+00 
5.986560e+00 8.443531e+00 
6.021830e+00 8.342622e+00 
6.056490e+00 8.245267e+00 
6.091160e+00 8.149608e+00 
6.125830e+00 8.055450e+00 
6.161090e+00 7.961318e+00 
6.195760e+00 7.870467e+00 
6.230420e+00 7.781045e+00 
6.265690e+00 7.691471e+00 
6.300950e+00 7.603662e+00 
6.335620e+00 7.518644e+00 
6.370880e+00 7.433496e+00 
6.405550e+00 7.351297e+00 
6.440220e+00 7.270429e+00 
6.475480e+00 7.189419e+00 
6.510150e+00 7.111048e+00 
6.544810e+00 7.034071e+00 
6.580080e+00 6.956895e+00 
6.614750e+00 6.882146e+00 
6.649410e+00 6.808821e+00 
6.684080e+00 6.736594e+00 
6.719340e+00 6.664199e+00 
6.754010e+00 6.594132e+00 
6.788680e+00 6.525273e+00 
6.823940e+00 6.456239e+00 
6.859800e+00 6.387042e+00 
6.894470e+00 6.321314e+00 
6.929140e+00 6.256581e+00 
6.963800e+00 6.192761e+00 
6.999070e+00 6.128736e+00 
7.033730e+00 6.066931e+00 
7.068400e+00 6.005950e+00 
7.103660e+00 5.944780e+00 
7.138330e+00 5.885555e+00 
7.173600e+00 5.826332e+00 
7.208260e+00 5.768918e+00 
7.243530e+00 5.711278e+00 
7.277600e+00 5.656484e+00 
7.312860e+00 5.600660e+00 
7.348120e+00 5.545579e+00 
7.382790e+00 5.492134e+00 
7.417460e+00 5.439550e+00 
7.452720e+00 5.386855e+00 
7.487390e+00 5.335714e+00 
7.522650e+00 5.284375e+00 
7.557320e+00 5.234714e+00 
7.591990e+00 5.185746e+00 
7.627250e+00 5.136579e+00 
7.662510e+00 5.088041e+00 
7.697180e+00 5.041095e+00 
7.731850e+00 4.994802e+00 
7.766510e+00 4.949097e+00 
7.801180e+00 4.903943e+00 
7.836440e+00 4.858739e+00 
7.871110e+00 4.814934e+00 
7.906380e+00 4.770917e+00 
7.941040e+00 4.728192e+00 
7.976310e+00 4.685332e+00 
8.011570e+00 4.643112e+00 
8.046240e+00 4.602100e+00 
8.080900e+00 4.561588e+00 
8.115570e+00 4.521589e+00 
8.150830e+00 4.481555e+00 
8.185500e+00 4.442659e+00 
8.220770e+00 4.403557e+00 
8.255430e+00 4.365584e+00 
8.290100e+00 4.328221e+00 
8.324770e+00 4.291311e+00 
8.359430e+00 4.254836e+00 
8.394700e+00 4.218150e+00 
8.429960e+00 4.181996e+00 
8.464630e+00 4.146952e+00 
8.499890e+00 4.111720e+00 
8.534560e+00 4.077471e+00 
8.569200e+00 4.043637e+00 
