# Parameters:
# omega_b = 0.021846, omega_m = 0.153071, n_s = 0.972835, h = 62.559055, w = -1.000000, sigma_8 = 0.723622
# z = 1.100000
#
# k[1/Mpc] # P(k):
8.694000e-04 3.301013e+03 
2.077466e-03 7.168308e+03 
3.285532e-03 1.027192e+04 
4.493598e-03 1.273303e+04 
5.701664e-03 1.463459e+04 
6.909730e-03 1.605227e+04 
8.117797e-03 1.708030e+04 
9.325863e-03 1.776760e+04 
1.053393e-02 1.816680e+04 
1.174199e-02 1.832841e+04 
1.295006e-02 1.828342e+04 
1.415813e-02 1.807445e+04 
1.536619e-02 1.773878e+04 
1.657426e-02 1.730272e+04 
1.778233e-02 1.679477e+04 
1.899039e-02 1.625101e+04 
2.019846e-02 1.567695e+04 
2.140652e-02 1.508611e+04 
2.261459e-02 1.449186e+04 
2.382266e-02 1.390998e+04 
2.503072e-02 1.335139e+04 
2.623879e-02 1.282114e+04 
2.744685e-02 1.232109e+04 
2.865492e-02 1.185579e+04 
2.986299e-02 1.142583e+04 
3.100100e-02 1.105291e+04 
3.220400e-02 1.069212e+04 
3.288100e-02 1.050401e+04 
3.424300e-02 1.015607e+04 
3.555100e-02 9.856035e+03 
3.686000e-02 9.586425e+03 
3.795000e-02 9.381705e+03 
3.929100e-02 9.152281e+03 
4.039800e-02 8.977351e+03 
4.164000e-02 8.792823e+03 
4.294400e-02 8.608017e+03 
4.415000e-02 8.443026e+03 
4.542900e-02 8.268522e+03 
4.660900e-02 8.108476e+03 
4.782300e-02 7.937354e+03 
4.892900e-02 7.778965e+03 
5.031200e-02 7.574148e+03 
5.155900e-02 7.381577e+03 
5.238100e-02 7.251319e+03 
5.378200e-02 7.024354e+03 
5.513400e-02 6.799129e+03 
5.627600e-02 6.605875e+03 
5.735300e-02 6.423081e+03 
5.870100e-02 6.195407e+03 
5.988700e-02 5.998577e+03 
6.113500e-02 5.796213e+03 
6.225900e-02 5.619468e+03 
6.340100e-02 5.446666e+03 
6.480200e-02 5.245291e+03 
6.601100e-02 5.082046e+03 
6.725500e-02 4.925068e+03 
6.829100e-02 4.803979e+03 
6.958600e-02 4.663390e+03 
7.071100e-02 4.551973e+03 
7.192300e-02 4.442219e+03 
7.307400e-02 4.347308e+03 
7.412300e-02 4.268100e+03 
7.550400e-02 4.174297e+03 
7.663100e-02 4.104511e+03 
7.791200e-02 4.033187e+03 
7.912700e-02 3.971539e+03 
8.027600e-02 3.917063e+03 
8.138400e-02 3.867165e+03 
8.272200e-02 3.809453e+03 
8.406100e-02 3.753286e+03 
8.534100e-02 3.699657e+03 
8.653800e-02 3.648511e+03 
8.759800e-02 3.602492e+03 
8.900300e-02 3.539755e+03 
9.009000e-02 3.489239e+03 
9.113300e-02 3.438630e+03 
9.239600e-02 3.376078e+03 
9.358000e-02 3.315424e+03 
9.496100e-02 3.241785e+03 
9.608400e-02 3.181101e+03 
9.727500e-02 3.116554e+03 
9.852600e-02 3.046675e+03 
9.973800e-02 2.979771e+03 
1.009000e-01 2.916482e+03 
1.020900e-01 2.851950e+03 
1.034000e-01 2.782945e+03 
1.046000e-01 2.721555e+03 
1.057200e-01 2.666407e+03 
1.069100e-01 2.609855e+03 
1.082500e-01 2.549489e+03 
1.093900e-01 2.500964e+03 
1.105400e-01 2.454092e+03 
1.116900e-01 2.410762e+03 
1.129600e-01 2.365096e+03 
1.142000e-01 2.324150e+03 
1.153300e-01 2.288909e+03 
1.166400e-01 2.250829e+03 
1.177800e-01 2.220175e+03 
1.190000e-01 2.188932e+03 
1.201200e-01 2.162535e+03 
1.213400e-01 2.134746e+03 
1.227100e-01 2.105991e+03 
1.238900e-01 2.082028e+03 
1.250700e-01 2.059130e+03 
1.263200e-01 2.035418e+03 
1.275500e-01 2.012583e+03 
1.287500e-01 1.990509e+03 
1.299900e-01 1.967728e+03 
1.311300e-01 1.946643e+03 
1.323500e-01 1.923655e+03 
1.335900e-01 1.899980e+03 
1.347100e-01 1.877948e+03 
1.359800e-01 1.852726e+03 
1.372100e-01 1.827282e+03 
1.384300e-01 1.801989e+03 
1.395700e-01 1.777389e+03 
1.407700e-01 1.751883e+03 
1.420300e-01 1.724027e+03 
1.432800e-01 1.697027e+03 
1.444500e-01 1.671221e+03 
1.456300e-01 1.645756e+03 
1.468900e-01 1.619013e+03 
1.480500e-01 1.594886e+03 
1.491700e-01 1.572271e+03 
1.503800e-01 1.548601e+03 
1.516400e-01 1.524689e+03 
1.528200e-01 1.503642e+03 
1.540200e-01 1.482673e+03 
1.551900e-01 1.463729e+03 
1.564300e-01 1.444316e+03 
1.576600e-01 1.426054e+03 
1.588700e-01 1.409170e+03 
1.600900e-01 1.392529e+03 
1.612700e-01 1.377781e+03 
1.625400e-01 1.362204e+03 
1.637600e-01 1.347922e+03 
1.649500e-01 1.334477e+03 
1.662200e-01 1.320417e+03 
1.674000e-01 1.307739e+03 
1.685000e-01 1.296117e+03 
1.697500e-01 1.283009e+03 
1.710300e-01 1.269704e+03 
1.722200e-01 1.257553e+03 
1.734400e-01 1.244771e+03 
1.746400e-01 1.232392e+03 
1.758700e-01 1.219709e+03 
1.770900e-01 1.206916e+03 
1.782700e-01 1.194752e+03 
1.794600e-01 1.182335e+03 
1.807000e-01 1.169379e+03 
1.819100e-01 1.156953e+03 
1.830100e-01 1.145487e+03 
1.842200e-01 1.133016e+03 
1.855000e-01 1.120040e+03 
1.867000e-01 1.107856e+03 
1.879200e-01 1.095674e+03 
1.890900e-01 1.084178e+03 
1.902800e-01 1.072649e+03 
1.915200e-01 1.060833e+03 
1.926900e-01 1.049897e+03 
1.939000e-01 1.038871e+03 
1.951700e-01 1.027487e+03 
1.963100e-01 1.017487e+03 
1.975100e-01 1.007270e+03 
1.987800e-01 9.966295e+02 
2.000100e-01 9.865671e+02 
2.012500e-01 9.767637e+02 
2.023400e-01 9.682721e+02 
2.036100e-01 9.585709e+02 
2.048900e-01 9.491295e+02 
2.060400e-01 9.407733e+02 
2.072200e-01 9.323343e+02 
2.084200e-01 9.240385e+02 
2.096900e-01 9.153888e+02 
2.109200e-01 9.071363e+02 
2.121100e-01 8.993554e+02 
2.132700e-01 8.918799e+02 
2.145200e-01 8.839379e+02 
2.157200e-01 8.764524e+02 
2.168800e-01 8.693289e+02 
2.180700e-01 8.621199e+02 
2.193400e-01 8.545314e+02 
2.206000e-01 8.471056e+02 
2.217500e-01 8.404203e+02 
2.229500e-01 8.335365e+02 
2.241400e-01 8.267748e+02 
2.253500e-01 8.199905e+02 
2.264900e-01 8.136818e+02 
2.277100e-01 8.070027e+02 
2.289900e-01 8.000739e+02 
2.301500e-01 7.938781e+02 
2.313600e-01 7.874983e+02 
2.325600e-01 7.812312e+02 
2.337700e-01 7.749938e+02 
2.350000e-01 7.687360e+02 
2.362000e-01 7.627093e+02 
2.374100e-01 7.567093e+02 
2.386500e-01 7.506399e+02 
2.399100e-01 7.445533e+02 
2.410400e-01 7.391689e+02 
2.422500e-01 7.334741e+02 
2.435000e-01 7.276657e+02 
2.447300e-01 7.220282e+02 
2.458700e-01 7.168874e+02 
2.470600e-01 7.115846e+02 
2.483300e-01 7.059956e+02 
2.495600e-01 7.006590e+02 
2.507600e-01 6.955271e+02 
2.519600e-01 6.904565e+02 
2.532200e-01 6.851972e+02 
2.543700e-01 6.804677e+02 
2.555500e-01 6.756794e+02 
2.568000e-01 6.706672e+02 
2.580100e-01 6.658734e+02 
2.592400e-01 6.610673e+02 
2.604100e-01 6.565526e+02 
2.616100e-01 6.519747e+02 
2.628400e-01 6.473367e+02 
2.640600e-01 6.427923e+02 
2.652200e-01 6.385210e+02 
2.664300e-01 6.341151e+02 
2.676500e-01 6.297234e+02 
2.688400e-01 6.254873e+02 
2.700700e-01 6.211577e+02 
2.712400e-01 6.170850e+02 
2.724800e-01 6.128164e+02 
2.736700e-01 6.087638e+02 
2.748800e-01 6.046863e+02 
2.761000e-01 6.006205e+02 
2.773200e-01 5.965994e+02 
2.785400e-01 5.926209e+02 
2.797000e-01 5.888749e+02 
2.808900e-01 5.850723e+02 
2.821400e-01 5.811213e+02 
2.833900e-01 5.772136e+02 
2.845500e-01 5.736174e+02 
2.857800e-01 5.698443e+02 
2.870300e-01 5.660513e+02 
2.882100e-01 5.625086e+02 
2.893900e-01 5.589984e+02 
2.906300e-01 5.553463e+02 
2.918900e-01 5.516752e+02 
2.930500e-01 5.483304e+02 
2.942500e-01 5.449035e+02 
2.954200e-01 5.415906e+02 
2.966500e-01 5.381432e+02 
2.978900e-01 5.347040e+02 
2.990400e-01 5.315464e+02 
3.002700e-01 5.281981e+02 
3.015100e-01 5.248551e+02 
3.026800e-01 5.217324e+02 
3.038500e-01 5.186399e+02 
3.050300e-01 5.155510e+02 
3.062600e-01 5.123582e+02 
3.075000e-01 5.091720e+02 
3.087000e-01 5.061191e+02 
3.099100e-01 5.030709e+02 
3.111200e-01 5.000525e+02 
3.123100e-01 4.971125e+02 
3.135300e-01 4.941276e+02 
3.147300e-01 4.912199e+02 
3.159900e-01 4.881968e+02 
3.171800e-01 4.853697e+02 
3.183700e-01 4.825695e+02 
3.196300e-01 4.796331e+02 
3.208400e-01 4.768405e+02 
3.220300e-01 4.741198e+02 
3.232000e-01 4.714723e+02 
3.244300e-01 4.687161e+02 
3.256700e-01 4.659640e+02 
3.269200e-01 4.632161e+02 
3.280800e-01 4.606897e+02 
3.292500e-01 4.581701e+02 
3.304800e-01 4.555472e+02 
3.317100e-01 4.529488e+02 
3.328900e-01 4.504787e+02 
3.340700e-01 4.480305e+02 
3.353600e-01 4.453865e+02 
3.365300e-01 4.430134e+02 
3.377100e-01 4.406410e+02 
3.389200e-01 4.382297e+02 
3.401600e-01 4.357810e+02 
3.413700e-01 4.334224e+02 
3.425300e-01 4.311874e+02 
3.437700e-01 4.288192e+02 
3.449800e-01 4.265288e+02 
3.461800e-01 4.242772e+02 
3.473600e-01 4.220863e+02 
3.485800e-01 4.198511e+02 
3.498100e-01 4.176173e+02 
3.510200e-01 4.154390e+02 
3.522000e-01 4.133327e+02 
3.533900e-01 4.112263e+02 
3.546400e-01 4.090487e+02 
3.558400e-01 4.069771e+02 
3.570600e-01 4.048888e+02 
3.582700e-01 4.028352e+02 
3.595000e-01 4.007653e+02 
3.607100e-01 3.987552e+02 
3.618900e-01 3.968180e+02 
3.631200e-01 3.948155e+02 
3.643200e-01 3.928781e+02 
3.655500e-01 3.909087e+02 
3.667300e-01 3.890349e+02 
3.679500e-01 3.871308e+02 
3.691900e-01 3.852116e+02 
3.703600e-01 3.834153e+02 
3.715700e-01 3.815725e+02 
3.727700e-01 3.797597e+02 
3.739900e-01 3.779374e+02 
3.752000e-01 3.761555e+02 
3.763900e-01 3.744169e+02 
3.775800e-01 3.726919e+02 
3.788200e-01 3.709088e+02 
3.800300e-01 3.691828e+02 
3.812100e-01 3.675205e+02 
3.824200e-01 3.658343e+02 
3.836100e-01 3.641889e+02 
3.848600e-01 3.624742e+02 
3.860400e-01 3.608681e+02 
3.872400e-01 3.592473e+02 
3.884600e-01 3.576223e+02 
3.896500e-01 3.560532e+02 
3.908700e-01 3.544569e+02 
3.920600e-01 3.529117e+02 
3.933100e-01 3.513011e+02 
3.945300e-01 3.497413e+02 
3.957200e-01 3.482415e+02 
3.969300e-01 3.467308e+02 
3.981700e-01 3.451944e+02 
3.993500e-01 3.437433e+02 
4.094840e-01 3.317325e+02 
4.272360e-01 3.126014e+02 
4.454600e-01 2.950099e+02 
4.630560e-01 2.796739e+02 
4.804610e-01 2.658608e+02 
4.980690e-01 2.530715e+02 
5.159230e-01 2.411731e+02 
5.317440e-01 2.314333e+02 
5.489640e-01 2.216136e+02 
5.671990e-01 2.120228e+02 
5.838690e-01 2.039106e+02 
6.018840e-01 1.957885e+02 
6.202330e-01 1.881484e+02 
6.379250e-01 1.813133e+02 
6.545410e-01 1.753560e+02 
6.714560e-01 1.696830e+02 
6.892080e-01 1.641296e+02 
7.066010e-01 1.590549e+02 
7.240540e-01 1.542816e+02 
7.420450e-01 1.496822e+02 
7.593780e-01 1.455230e+02 
7.764720e-01 1.416552e+02 
7.942840e-01 1.378555e+02 
8.116170e-01 1.343672e+02 
8.288310e-01 1.310895e+02 
8.462240e-01 1.279455e+02 
8.631980e-01 1.250291e+02 
8.810700e-01 1.221063e+02 
8.989410e-01 1.193251e+02 
9.166330e-01 1.166980e+02 
9.345640e-01 1.141552e+02 
9.515980e-01 1.118425e+02 
9.688720e-01 1.095917e+02 
9.865640e-01 1.073780e+02 
1.031870e+00 1.020877e+02 
1.063490e+00 9.868053e+01 
1.097920e+00 9.520702e+01 
1.134370e+00 9.176218e+01 
1.167730e+00 8.880288e+01 
1.203830e+00 8.577675e+01 
1.240470e+00 8.288567e+01 
1.275790e+00 8.024528e+01 
1.309140e+00 7.788417e+01 
1.342970e+00 7.559292e+01 
1.378420e+00 7.331321e+01 
1.413200e+00 7.117783e+01 
1.448110e+00 6.912962e+01 
1.484090e+00 6.711760e+01 
1.518820e+00 6.525864e+01 
1.552880e+00 6.350808e+01 
1.588630e+00 6.174664e+01 
1.623230e+00 6.011361e+01 
1.657720e+00 5.854998e+01 
1.692450e+00 5.703698e+01 
1.726400e+00 5.561034e+01 
1.762200e+00 5.416266e+01 
1.797880e+00 5.277516e+01 
1.833270e+00 5.145058e+01 
1.869070e+00 5.015939e+01 
1.903200e+00 4.897236e+01 
1.937740e+00 4.781258e+01 
1.973190e+00 4.666280e+01 
2.007440e+00 4.559011e+01 
2.042160e+00 4.453845e+01 
2.077900e+00 4.349170e+01 
2.112390e+00 4.251568e+01 
2.146220e+00 4.158719e+01 
2.181600e+00 4.064667e+01 
2.216930e+00 3.973794e+01 
2.250760e+00 3.889491e+01 
2.286500e+00 3.803187e+01 
2.321770e+00 3.720689e+01 
2.355950e+00 3.643106e+01 
2.391280e+00 3.565183e+01 
2.426240e+00 3.490382e+01 
2.460670e+00 3.418925e+01 
2.495640e+00 3.348524e+01 
2.531080e+00 3.279056e+01 
2.566220e+00 3.212169e+01 
2.600830e+00 3.148189e+01 
2.635080e+00 3.086663e+01 
2.670340e+00 3.024916e+01 
2.705970e+00 2.964310e+01 
2.740040e+00 2.907980e+01 
2.774520e+00 2.852397e+01 
2.809730e+00 2.797121e+01 
2.844390e+00 2.744198e+01 
2.879960e+00 2.691284e+01 
2.914860e+00 2.640718e+01 
2.949410e+00 2.592001e+01 
2.984440e+00 2.543781e+01 
3.019760e+00 2.496437e+01 
3.054730e+00 2.450823e+01 
3.089030e+00 2.407044e+01 
3.124060e+00 2.363498e+01 
3.159560e+00 2.320480e+01 
3.194710e+00 2.278902e+01 
3.229010e+00 2.239371e+01 
3.263320e+00 2.200657e+01 
3.297930e+00 2.162583e+01 
3.332830e+00 2.125086e+01 
3.368040e+00 2.088147e+01 
3.403300e+00 2.052053e+01 
3.438450e+00 2.016872e+01 
3.473060e+00 1.983091e+01 
3.508440e+00 1.949287e+01 
3.543110e+00 1.916978e+01 
3.577470e+00 1.885616e+01 
3.613040e+00 1.853925e+01 
3.648120e+00 1.823352e+01 
3.682910e+00 1.793732e+01 
3.718050e+00 1.764456e+01 
3.753320e+00 1.735747e+01 
3.787980e+00 1.708150e+01 
3.822290e+00 1.681428e+01 
3.857020e+00 1.654940e+01 
3.891920e+00 1.628903e+01 
3.926650e+00 1.603522e+01 
3.961970e+00 1.578285e+01 
3.997360e+00 1.553533e+01 
4.031670e+00 1.530063e+01 
4.066330e+00 1.506817e+01 
4.101420e+00 1.483803e+01 
4.136200e+00 1.461431e+01 
4.170810e+00 1.439655e+01 
4.206250e+00 1.417796e+01 
4.241580e+00 1.396474e+01 
4.276300e+00 1.375933e+01 
4.310970e+00 1.355837e+01 
4.346120e+00 1.335882e+01 
4.380600e+00 1.316698e+01 
4.414730e+00 1.298099e+01 
4.450350e+00 1.279050e+01 
4.485320e+00 1.260738e+01 
4.519810e+00 1.243020e+01 
4.555430e+00 1.225083e+01 
4.590870e+00 1.207598e+01 
4.625480e+00 1.190853e+01 
4.659910e+00 1.174524e+01 
4.695230e+00 1.158082e+01 
4.729960e+00 1.142231e+01 
4.764450e+00 1.126786e+01 
4.799530e+00 1.111367e+01 
4.834910e+00 1.096118e+01 
4.869700e+00 1.081407e+01 
4.904370e+00 1.067024e+01 
4.939450e+00 1.052744e+01 
4.973940e+00 1.038964e+01 
5.008430e+00 1.025439e+01 
5.043810e+00 1.011815e+01 
5.078840e+00 9.985733e+00 
5.113500e+00 9.857110e+00 
5.148890e+00 9.728184e+00 
5.184210e+00 9.601872e+00 
5.219060e+00 9.479502e+00 
5.253660e+00 9.360192e+00 
5.288570e+00 9.241943e+00 
5.323420e+00 9.126013e+00 
5.358440e+00 9.011598e+00 
5.393590e+00 8.898774e+00 
5.428310e+00 8.789317e+00 
5.462800e+00 8.682471e+00 
5.497640e+00 8.576381e+00 
5.532670e+00 8.471580e+00 
5.567280e+00 8.369804e+00 
5.602000e+00 8.269414e+00 
5.637270e+00 8.169259e+00 
5.672410e+00 8.071176e+00 
5.707020e+00 7.976173e+00 
5.742040e+00 7.881714e+00 
5.777430e+00 7.787853e+00 
5.812210e+00 7.697121e+00 
5.846820e+00 7.608375e+00 
5.881610e+00 7.520620e+00 
5.916510e+00 7.433996e+00 
5.951600e+00 7.348394e+00 
5.986560e+00 7.264511e+00 
6.021830e+00 7.181227e+00 
6.056490e+00 7.100765e+00 
6.091160e+00 7.021608e+00 
6.125830e+00 6.943670e+00 
6.161090e+00 6.865681e+00 
6.195760e+00 6.790283e+00 
6.230420e+00 6.716049e+00 
6.265690e+00 6.641665e+00 
6.300950e+00 6.568585e+00 
6.335620e+00 6.497811e+00 
6.370880e+00 6.426910e+00 
6.405550e+00 6.358361e+00 
6.440220e+00 6.290872e+00 
6.475480e+00 6.223246e+00 
6.510150e+00 6.157770e+00 
6.544810e+00 6.093354e+00 
6.580080e+00 6.028756e+00 
6.614750e+00 5.966176e+00 
6.649410e+00 5.904691e+00 
6.684080e+00 5.844096e+00 
6.719340e+00 5.783347e+00 
6.754010e+00 5.724503e+00 
6.788680e+00 5.666578e+00 
6.823940e+00 5.608494e+00 
6.859800e+00 5.550260e+00 
6.894470e+00 5.494877e+00 
6.929140e+00 5.440299e+00 
6.963800e+00 5.386481e+00 
6.999070e+00 5.332475e+00 
7.033730e+00 5.280259e+00 
7.068400e+00 5.228730e+00 
7.103660e+00 5.177032e+00 
7.138330e+00 5.126943e+00 
7.173600e+00 5.076796e+00 
7.208260e+00 5.028171e+00 
7.243530e+00 4.979346e+00 
7.277600e+00 4.932883e+00 
7.312860e+00 4.885500e+00 
7.348120e+00 4.838741e+00 
7.382790e+00 4.793362e+00 
7.417460e+00 4.748667e+00 
7.452720e+00 4.703849e+00 
7.487390e+00 4.660346e+00 
7.522650e+00 4.616667e+00 
7.557320e+00 4.574371e+00 
7.591990e+00 4.532643e+00 
7.627250e+00 4.490740e+00 
7.662510e+00 4.449367e+00 
7.697180e+00 4.409307e+00 
7.731850e+00 4.369783e+00 
7.766510e+00 4.330756e+00 
7.801180e+00 4.292195e+00 
7.836440e+00 4.253563e+00 
7.871110e+00 4.216107e+00 
7.906380e+00 4.178466e+00 
7.941040e+00 4.141923e+00 
7.976310e+00 4.105237e+00 
8.011570e+00 4.069067e+00 
8.046240e+00 4.033926e+00 
8.080900e+00 3.999210e+00 
8.115570e+00 3.964923e+00 
8.150830e+00 3.930580e+00 
8.185500e+00 3.897209e+00 
8.220770e+00 3.863657e+00 
8.255430e+00 3.831070e+00 
8.290100e+00 3.798958e+00 
8.324770e+00 3.767226e+00 
8.359430e+00 3.735866e+00 
8.394700e+00 3.704321e+00 
8.429960e+00 3.673218e+00 
8.464630e+00 3.643055e+00 
8.499890e+00 3.612726e+00 
8.534560e+00 3.583241e+00 
8.569200e+00 3.554109e+00 
