# Parameters:
# omega_b = 0.023012, omega_m = 0.120551, n_s = 0.898819, h = 76.968504, w = -1.000000, sigma_8 = 0.898425
# z = 1.100000
#
# k[1/Mpc] # P(k):
8.694000e-04 1.458253e+04 
2.077466e-03 2.884500e+04 
3.285532e-03 3.897497e+04 
4.493598e-03 4.605580e+04 
5.701664e-03 5.072343e+04 
6.909730e-03 5.351528e+04 
8.117797e-03 5.494057e+04 
9.325863e-03 5.525581e+04 
1.053393e-02 5.469315e+04 
1.174199e-02 5.345202e+04 
1.295006e-02 5.166360e+04 
1.415813e-02 4.949474e+04 
1.536619e-02 4.708042e+04 
1.657426e-02 4.450950e+04 
1.778233e-02 4.184252e+04 
1.899039e-02 3.919334e+04 
2.019846e-02 3.665607e+04 
2.140652e-02 3.428346e+04 
2.261459e-02 3.208171e+04 
2.382266e-02 3.006585e+04 
2.503072e-02 2.824414e+04 
2.623879e-02 2.661236e+04 
2.744685e-02 2.516752e+04 
2.865492e-02 2.389575e+04 
2.986299e-02 2.278115e+04 
3.100100e-02 2.186634e+04 
3.220400e-02 2.102361e+04 
3.288100e-02 2.060245e+04 
3.424300e-02 1.984970e+04 
3.555100e-02 1.922359e+04 
3.686000e-02 1.867460e+04 
3.795000e-02 1.826158e+04 
3.929100e-02 1.779409e+04 
4.039800e-02 1.742756e+04 
4.164000e-02 1.702732e+04 
4.294400e-02 1.659993e+04 
4.415000e-02 1.620072e+04 
4.542900e-02 1.575288e+04 
4.660900e-02 1.532866e+04 
4.782300e-02 1.485939e+04 
4.892900e-02 1.442074e+04 
5.031200e-02 1.385233e+04 
5.155900e-02 1.332374e+04 
5.238100e-02 1.297197e+04 
5.378200e-02 1.237212e+04 
5.513400e-02 1.179818e+04 
5.627600e-02 1.132390e+04 
5.735300e-02 1.089079e+04 
5.870100e-02 1.037291e+04 
5.988700e-02 9.943936e+03 
6.113500e-02 9.521579e+03 
6.225900e-02 9.169393e+03 
6.340100e-02 8.840258e+03 
6.480200e-02 8.473116e+03 
6.601100e-02 8.191874e+03 
6.725500e-02 7.934124e+03 
6.829100e-02 7.745171e+03 
6.958600e-02 7.533390e+03 
7.071100e-02 7.372843e+03 
7.192300e-02 7.220002e+03 
7.307400e-02 7.091627e+03 
7.412300e-02 6.986607e+03 
7.550400e-02 6.863814e+03 
7.663100e-02 6.772191e+03 
7.791200e-02 6.675970e+03 
7.912700e-02 6.587977e+03 
8.027600e-02 6.505112e+03 
8.138400e-02 6.424101e+03 
8.272200e-02 6.322572e+03 
8.406100e-02 6.215174e+03 
8.534100e-02 6.103190e+03 
8.653800e-02 5.989856e+03 
8.759800e-02 5.884707e+03 
8.900300e-02 5.737566e+03 
9.009000e-02 5.617315e+03 
9.113300e-02 5.496867e+03 
9.239600e-02 5.348956e+03 
9.358000e-02 5.207607e+03 
9.496100e-02 5.040863e+03 
9.608400e-02 4.907214e+03 
9.727500e-02 4.768278e+03 
9.852600e-02 4.626305e+03 
9.973800e-02 4.494909e+03 
1.009000e-01 4.374300e+03 
1.020900e-01 4.260396e+03 
1.034000e-01 4.143025e+03 
1.046000e-01 4.043109e+03 
1.057200e-01 3.960622e+03 
1.069100e-01 3.878557e+03 
1.082500e-01 3.797992e+03 
1.093900e-01 3.737109e+03 
1.105400e-01 3.680571e+03 
1.116900e-01 3.632646e+03 
1.129600e-01 3.583320e+03 
1.142000e-01 3.541526e+03 
1.153300e-01 3.505631e+03 
1.166400e-01 3.467001e+03 
1.177800e-01 3.434252e+03 
1.190000e-01 3.400073e+03 
1.201200e-01 3.366911e+03 
1.213400e-01 3.331192e+03 
1.227100e-01 3.286027e+03 
1.238900e-01 3.246567e+03 
1.250700e-01 3.202943e+03 
1.263200e-01 3.155752e+03 
1.275500e-01 3.105833e+03 
1.287500e-01 3.056178e+03 
1.299900e-01 3.002758e+03 
1.311300e-01 2.953381e+03 
1.323500e-01 2.899637e+03 
1.335900e-01 2.845721e+03 
1.347100e-01 2.797325e+03 
1.359800e-01 2.743820e+03 
1.372100e-01 2.693380e+03 
1.384300e-01 2.645009e+03 
1.395700e-01 2.601885e+03 
1.407700e-01 2.557744e+03 
1.420300e-01 2.514716e+03 
1.432800e-01 2.473034e+03 
1.444500e-01 2.437441e+03 
1.456300e-01 2.402301e+03 
1.468900e-01 2.367528e+03 
1.480500e-01 2.336761e+03 
1.491700e-01 2.308473e+03 
1.503800e-01 2.279580e+03 
1.516400e-01 2.250365e+03 
1.528200e-01 2.224672e+03 
1.540200e-01 2.199046e+03 
1.551900e-01 2.175138e+03 
1.564300e-01 2.150429e+03 
1.576600e-01 2.126465e+03 
1.588700e-01 2.103425e+03 
1.600900e-01 2.080612e+03 
1.612700e-01 2.058607e+03 
1.625400e-01 2.035366e+03 
1.637600e-01 2.013015e+03 
1.649500e-01 1.991350e+03 
1.662200e-01 1.968514e+03 
1.674000e-01 1.946906e+03 
1.685000e-01 1.927106e+03 
1.697500e-01 1.904530e+03 
1.710300e-01 1.881379e+03 
1.722200e-01 1.860249e+03 
1.734400e-01 1.838167e+03 
1.746400e-01 1.816801e+03 
1.758700e-01 1.795131e+03 
1.770900e-01 1.773697e+03 
1.782700e-01 1.753328e+03 
1.794600e-01 1.733035e+03 
1.807000e-01 1.712190e+03 
1.819100e-01 1.692206e+03 
1.830100e-01 1.674456e+03 
1.842200e-01 1.655269e+03 
1.855000e-01 1.635344e+03 
1.867000e-01 1.617370e+03 
1.879200e-01 1.599400e+03 
1.890900e-01 1.582533e+03 
1.902800e-01 1.566086e+03 
1.915200e-01 1.549227e+03 
1.926900e-01 1.533704e+03 
1.939000e-01 1.518325e+03 
1.951700e-01 1.502444e+03 
1.963100e-01 1.488524e+03 
1.975100e-01 1.474394e+03 
1.987800e-01 1.459674e+03 
2.000100e-01 1.445732e+03 
2.012500e-01 1.432105e+03 
2.023400e-01 1.420299e+03 
2.036100e-01 1.406764e+03 
2.048900e-01 1.393419e+03 
2.060400e-01 1.381607e+03 
2.072200e-01 1.369654e+03 
2.084200e-01 1.357643e+03 
2.096900e-01 1.345120e+03 
2.109200e-01 1.333170e+03 
2.121100e-01 1.321624e+03 
2.132700e-01 1.310517e+03 
2.145200e-01 1.298718e+03 
2.157200e-01 1.287428e+03 
2.168800e-01 1.276607e+03 
2.180700e-01 1.265657e+03 
2.193400e-01 1.254063e+03 
2.206000e-01 1.242591e+03 
2.217500e-01 1.232264e+03 
2.229500e-01 1.221633e+03 
2.241400e-01 1.211076e+03 
2.253500e-01 1.200483e+03 
2.264900e-01 1.190634e+03 
2.277100e-01 1.180173e+03 
2.289900e-01 1.169284e+03 
2.301500e-01 1.159549e+03 
2.313600e-01 1.149527e+03 
2.325600e-01 1.139650e+03 
2.337700e-01 1.129822e+03 
2.350000e-01 1.119964e+03 
2.362000e-01 1.110469e+03 
2.374100e-01 1.101012e+03 
2.386500e-01 1.091448e+03 
2.399100e-01 1.081860e+03 
2.410400e-01 1.073390e+03 
2.422500e-01 1.064436e+03 
2.435000e-01 1.055305e+03 
2.447300e-01 1.046453e+03 
2.458700e-01 1.038407e+03 
2.470600e-01 1.030111e+03 
2.483300e-01 1.021369e+03 
2.495600e-01 1.013052e+03 
2.507600e-01 1.005095e+03 
2.519600e-01 9.972354e+02 
2.532200e-01 9.890849e+02 
2.543700e-01 9.818079e+02 
2.555500e-01 9.744767e+02 
2.568000e-01 9.668040e+02 
2.580100e-01 9.594669e+02 
2.592400e-01 9.521875e+02 
2.604100e-01 9.453834e+02 
2.616100e-01 9.384849e+02 
2.628400e-01 9.314967e+02 
2.640600e-01 9.247259e+02 
2.652200e-01 9.183923e+02 
2.664300e-01 9.118597e+02 
2.676500e-01 9.053486e+02 
2.688400e-01 8.991273e+02 
2.700700e-01 8.928056e+02 
2.712400e-01 8.868592e+02 
2.724800e-01 8.806270e+02 
2.736700e-01 8.747467e+02 
2.748800e-01 8.688678e+02 
2.761000e-01 8.630057e+02 
2.773200e-01 8.572082e+02 
2.785400e-01 8.514884e+02 
2.797000e-01 8.461371e+02 
2.808900e-01 8.407049e+02 
2.821400e-01 8.350605e+02 
2.833900e-01 8.294793e+02 
2.845500e-01 8.243754e+02 
2.857800e-01 8.190201e+02 
2.870300e-01 8.136365e+02 
2.882100e-01 8.086080e+02 
2.893900e-01 8.036413e+02 
2.906300e-01 7.984821e+02 
2.918900e-01 7.932959e+02 
2.930500e-01 7.885705e+02 
2.942500e-01 7.837331e+02 
2.954200e-01 7.790706e+02 
2.966500e-01 7.742184e+02 
2.978900e-01 7.693775e+02 
2.990400e-01 7.649328e+02 
3.002700e-01 7.602311e+02 
3.015100e-01 7.555422e+02 
3.026800e-01 7.511619e+02 
3.038500e-01 7.468238e+02 
3.050300e-01 7.424909e+02 
3.062600e-01 7.380284e+02 
3.075000e-01 7.335748e+02 
3.087000e-01 7.293073e+02 
3.099100e-01 7.250461e+02 
3.111200e-01 7.208317e+02 
3.123100e-01 7.167359e+02 
3.135300e-01 7.125772e+02 
3.147300e-01 7.085258e+02 
3.159900e-01 7.043132e+02 
3.171800e-01 7.003836e+02 
3.183700e-01 6.964975e+02 
3.196300e-01 6.924220e+02 
3.208400e-01 6.885459e+02 
3.220300e-01 6.847692e+02 
3.232000e-01 6.811007e+02 
3.244300e-01 6.772839e+02 
3.256700e-01 6.734724e+02 
3.269200e-01 6.696666e+02 
3.280800e-01 6.661671e+02 
3.292500e-01 6.626836e+02 
3.304800e-01 6.590594e+02 
3.317100e-01 6.554686e+02 
3.328900e-01 6.520547e+02 
3.340700e-01 6.486709e+02 
3.353600e-01 6.450199e+02 
3.365300e-01 6.417439e+02 
3.377100e-01 6.384686e+02 
3.389200e-01 6.351394e+02 
3.401600e-01 6.317582e+02 
3.413700e-01 6.285006e+02 
3.425300e-01 6.254131e+02 
3.437700e-01 6.221412e+02 
3.449800e-01 6.189767e+02 
3.461800e-01 6.158654e+02 
3.473600e-01 6.128370e+02 
3.485800e-01 6.097450e+02 
3.498100e-01 6.066547e+02 
3.510200e-01 6.036409e+02 
3.522000e-01 6.007265e+02 
3.533900e-01 5.978118e+02 
3.546400e-01 5.947914e+02 
3.558400e-01 5.919173e+02 
3.570600e-01 5.890198e+02 
3.582700e-01 5.861703e+02 
3.595000e-01 5.832980e+02 
3.607100e-01 5.805039e+02 
3.618900e-01 5.778075e+02 
3.631200e-01 5.750199e+02 
3.643200e-01 5.723227e+02 
3.655500e-01 5.695809e+02 
3.667300e-01 5.669720e+02 
3.679500e-01 5.643103e+02 
3.691900e-01 5.616273e+02 
3.703600e-01 5.591161e+02 
3.715700e-01 5.565397e+02 
3.727700e-01 5.540050e+02 
3.739900e-01 5.514530e+02 
3.752000e-01 5.489503e+02 
3.763900e-01 5.465083e+02 
3.775800e-01 5.440854e+02 
3.788200e-01 5.415806e+02 
3.800300e-01 5.391560e+02 
3.812100e-01 5.368144e+02 
3.824200e-01 5.344351e+02 
3.836100e-01 5.321131e+02 
3.848600e-01 5.296932e+02 
3.860400e-01 5.274265e+02 
3.872400e-01 5.251389e+02 
3.884600e-01 5.228375e+02 
3.896500e-01 5.206122e+02 
3.908700e-01 5.183482e+02 
3.920600e-01 5.161565e+02 
3.933100e-01 5.138721e+02 
3.945300e-01 5.116596e+02 
3.957200e-01 5.095250e+02 
3.969300e-01 5.073727e+02 
3.981700e-01 5.051839e+02 
3.993500e-01 5.031165e+02 
4.094840e-01 4.859673e+02 
4.272360e-01 4.584828e+02 
4.454600e-01 4.331331e+02 
4.630560e-01 4.110229e+02 
4.804610e-01 3.911445e+02 
4.980690e-01 3.728004e+02 
5.159230e-01 3.557981e+02 
5.317440e-01 3.419257e+02 
5.489640e-01 3.279727e+02 
5.671990e-01 3.143815e+02 
5.838690e-01 3.028976e+02 
6.018840e-01 2.913953e+02 
6.202330e-01 2.805621e+02 
6.379250e-01 2.708666e+02 
6.545410e-01 2.623873e+02 
6.714560e-01 2.542902e+02 
6.892080e-01 2.463469e+02 
7.066010e-01 2.390501e+02 
7.240540e-01 2.321725e+02 
7.420450e-01 2.255040e+02 
7.593780e-01 2.194448e+02 
7.764720e-01 2.137883e+02 
7.942840e-01 2.082095e+02 
8.116170e-01 2.030580e+02 
8.288310e-01 1.981901e+02 
8.462240e-01 1.935024e+02 
8.631980e-01 1.891282e+02 
8.810700e-01 1.847290e+02 
8.989410e-01 1.805230e+02 
9.166330e-01 1.765330e+02 
9.345640e-01 1.726577e+02 
9.515980e-01 1.691126e+02 
9.688720e-01 1.656493e+02 
9.865640e-01 1.622284e+02 
1.031870e+00 1.540144e+02 
1.063490e+00 1.486873e+02 
1.097920e+00 1.432302e+02 
1.134370e+00 1.377963e+02 
1.167730e+00 1.331072e+02 
1.203830e+00 1.282996e+02 
1.240470e+00 1.236954e+02 
1.275790e+00 1.194807e+02 
1.309140e+00 1.157102e+02 
1.342970e+00 1.120477e+02 
1.378420e+00 1.083991e+02 
1.413200e+00 1.049816e+02 
1.448110e+00 1.017081e+02 
1.484090e+00 9.848925e+01 
1.518820e+00 9.552019e+01 
1.552880e+00 9.272819e+01 
1.588630e+00 8.992413e+01 
1.623230e+00 8.732477e+01 
1.657720e+00 8.483855e+01 
1.692450e+00 8.244081e+01 
1.726400e+00 8.018278e+01 
1.762200e+00 7.789343e+01 
1.797880e+00 7.570716e+01 
1.833270e+00 7.362092e+01 
1.869070e+00 7.159193e+01 
1.903200e+00 6.973273e+01 
1.937740e+00 6.791947e+01 
1.973190e+00 6.612454e+01 
2.007440e+00 6.445491e+01 
2.042160e+00 6.282312e+01 
2.077900e+00 6.120051e+01 
2.112390e+00 5.969323e+01 
2.146220e+00 5.826033e+01 
2.181600e+00 5.681400e+01 
2.216930e+00 5.542009e+01 
2.250760e+00 5.412955e+01 
2.286500e+00 5.281091e+01 
2.321770e+00 5.155333e+01 
2.355950e+00 5.037485e+01 
2.391280e+00 4.919350e+01 
2.426240e+00 4.806280e+01 
2.460670e+00 4.698514e+01 
2.495640e+00 4.592526e+01 
2.531080e+00 4.488156e+01 
2.566220e+00 4.387948e+01 
2.600830e+00 4.292348e+01 
2.635080e+00 4.200651e+01 
2.670340e+00 4.108990e+01 
2.705970e+00 4.019139e+01 
2.740040e+00 3.935731e+01 
2.774520e+00 3.853544e+01 
2.809730e+00 3.772130e+01 
2.844390e+00 3.694391e+01 
2.879960e+00 3.616895e+01 
2.914860e+00 3.542923e+01 
2.949410e+00 3.471774e+01 
2.984440e+00 3.401633e+01 
3.019760e+00 3.332827e+01 
3.054730e+00 3.266604e+01 
3.089030e+00 3.203366e+01 
3.124060e+00 3.140524e+01 
3.159560e+00 3.078510e+01 
3.194710e+00 3.018778e+01 
3.229010e+00 2.962085e+01 
3.263320e+00 2.906780e+01 
3.297930e+00 2.852441e+01 
3.332830e+00 2.798986e+01 
3.368040e+00 2.746460e+01 
3.403300e+00 2.695241e+01 
3.438450e+00 2.645481e+01 
3.473060e+00 2.597765e+01 
3.508440e+00 2.550121e+01 
3.543110e+00 2.504641e+01 
3.577470e+00 2.460662e+01 
3.613040e+00 2.416258e+01 
3.648120e+00 2.373474e+01 
3.682910e+00 2.332096e+01 
3.718050e+00 2.291319e+01 
3.753320e+00 2.251394e+01 
3.787980e+00 2.213097e+01 
3.822290e+00 2.176073e+01 
3.857020e+00 2.139455e+01 
3.891920e+00 2.103516e+01 
3.926650e+00 2.068565e+01 
3.961970e+00 2.033857e+01 
3.997360e+00 1.999893e+01 
4.031670e+00 1.967724e+01 
4.066330e+00 1.935942e+01 
4.101420e+00 1.904500e+01 
4.136200e+00 1.874014e+01 
4.170810e+00 1.844357e+01 
4.206250e+00 1.814637e+01 
4.241580e+00 1.785669e+01 
4.276300e+00 1.757843e+01 
4.310970e+00 1.730667e+01 
4.346120e+00 1.703715e+01 
4.380600e+00 1.677849e+01 
4.414730e+00 1.652784e+01 
4.450350e+00 1.627187e+01 
4.485320e+00 1.602593e+01 
4.519810e+00 1.578850e+01 
4.555430e+00 1.554845e+01 
4.590870e+00 1.531469e+01 
4.625480e+00 1.509125e+01 
4.659910e+00 1.487344e+01 
4.695230e+00 1.465470e+01 
4.729960e+00 1.444397e+01 
4.764450e+00 1.423892e+01 
4.799530e+00 1.403461e+01 
4.834910e+00 1.383265e+01 
4.869700e+00 1.363820e+01 
4.904370e+00 1.344821e+01 
4.939450e+00 1.325977e+01 
4.973940e+00 1.307831e+01 
5.008430e+00 1.290026e+01 
5.043810e+00 1.272118e+01 
5.078840e+00 1.254731e+01 
5.113500e+00 1.237848e+01 
5.148890e+00 1.220974e+01 
5.184210e+00 1.204450e+01 
5.219060e+00 1.188454e+01 
5.253660e+00 1.172883e+01 
5.288570e+00 1.157456e+01 
5.323420e+00 1.142348e+01 
5.358440e+00 1.127456e+01 
5.393590e+00 1.112775e+01 
5.428310e+00 1.098558e+01 
5.462800e+00 1.084696e+01 
5.497640e+00 1.070935e+01 
5.532670e+00 1.057368e+01 
5.567280e+00 1.044202e+01 
5.602000e+00 1.031219e+01 
5.637270e+00 1.018286e+01 
5.672410e+00 1.005627e+01 
5.707020e+00 9.933695e+00 
5.742040e+00 9.812057e+00 
5.777430e+00 9.691263e+00 
5.812210e+00 9.574525e+00 
5.846820e+00 9.460517e+00 
5.881610e+00 9.347846e+00 
5.916510e+00 9.236654e+00 
5.951600e+00 9.126927e+00 
5.986560e+00 9.019487e+00 
6.021830e+00 8.912837e+00 
6.056490e+00 8.809910e+00 
6.091160e+00 8.708748e+00 
6.125830e+00 8.609165e+00 
6.161090e+00 8.509589e+00 
6.195760e+00 8.413448e+00 
6.230420e+00 8.318811e+00 
6.265690e+00 8.224006e+00 
6.300950e+00 8.131017e+00 
6.335620e+00 8.040978e+00 
6.370880e+00 7.950795e+00 
6.405550e+00 7.863701e+00 
6.440220e+00 7.778001e+00 
6.475480e+00 7.692143e+00 
6.510150e+00 7.609065e+00 
6.544810e+00 7.527431e+00 
6.580080e+00 7.445581e+00 
6.614750e+00 7.366300e+00 
6.649410e+00 7.288494e+00 
6.684080e+00 7.211843e+00 
6.719340e+00 7.135009e+00 
6.754010e+00 7.060631e+00 
6.788680e+00 6.987509e+00 
6.823940e+00 6.914198e+00 
6.859800e+00 6.840709e+00 
6.894470e+00 6.770874e+00 
6.929140e+00 6.702083e+00 
6.963800e+00 6.634259e+00 
6.999070e+00 6.566211e+00 
7.033730e+00 6.500486e+00 
7.068400e+00 6.435634e+00 
7.103660e+00 6.370579e+00 
7.138330e+00 6.307578e+00 
7.173600e+00 6.244556e+00 
7.208260e+00 6.183456e+00 
7.243530e+00 6.122112e+00 
7.277600e+00 6.063782e+00 
7.312860e+00 6.004340e+00 
7.348120e+00 5.945687e+00 
7.382790e+00 5.888773e+00 
7.417460e+00 5.832755e+00 
7.452720e+00 5.776607e+00 
7.487390e+00 5.722113e+00 
7.522650e+00 5.667405e+00 
7.557320e+00 5.614464e+00 
7.591990e+00 5.562252e+00 
7.627250e+00 5.509827e+00 
7.662510e+00 5.458070e+00 
7.697180e+00 5.407991e+00 
7.731850e+00 5.358599e+00 
7.766510e+00 5.309833e+00 
7.801180e+00 5.261653e+00 
7.836440e+00 5.213403e+00 
7.871110e+00 5.166632e+00 
7.906380e+00 5.119635e+00 
7.941040e+00 5.074016e+00 
7.976310e+00 5.028241e+00 
8.011570e+00 4.983139e+00 
8.046240e+00 4.939326e+00 
8.080900e+00 4.896047e+00 
8.115570e+00 4.853308e+00 
8.150830e+00 4.810512e+00 
8.185500e+00 4.768930e+00 
8.220770e+00 4.727127e+00 
8.255430e+00 4.686531e+00 
8.290100e+00 4.646571e+00 
8.324770e+00 4.607092e+00 
8.359430e+00 4.568079e+00 
8.394700e+00 4.528839e+00 
8.429960e+00 4.490156e+00 
8.464630e+00 4.452650e+00 
8.499890e+00 4.414941e+00 
8.534560e+00 4.378285e+00 
8.569200e+00 4.342071e+00 
