# Parameters:
# omega_b = 0.021831, omega_m = 0.151969, n_s = 1.023228, h = 55.944882, w = -1.000000, sigma_8 = 0.843307
# z = 1.100000
#
# k[1/Mpc] # P(k):
8.694000e-04 3.872870e+03 
2.077466e-03 8.767284e+03 
3.285532e-03 1.286919e+04 
4.493598e-03 1.622031e+04 
5.701664e-03 1.888107e+04 
6.909730e-03 2.092035e+04 
8.117797e-03 2.244376e+04 
9.325863e-03 2.350551e+04 
1.053393e-02 2.416966e+04 
1.174199e-02 2.450161e+04 
1.295006e-02 2.454023e+04 
1.415813e-02 2.434228e+04 
1.536619e-02 2.396002e+04 
1.657426e-02 2.343456e+04 
1.778233e-02 2.283429e+04 
1.899039e-02 2.223146e+04 
2.019846e-02 2.158071e+04 
2.140652e-02 2.086362e+04 
2.261459e-02 2.011335e+04 
2.382266e-02 1.936558e+04 
2.503072e-02 1.863955e+04 
2.623879e-02 1.794359e+04 
2.744685e-02 1.728089e+04 
2.865492e-02 1.665954e+04 
2.986299e-02 1.608150e+04 
3.100100e-02 1.557695e+04 
3.220400e-02 1.508623e+04 
3.288100e-02 1.482923e+04 
3.424300e-02 1.435224e+04 
3.555100e-02 1.393952e+04 
3.686000e-02 1.356768e+04 
3.795000e-02 1.328508e+04 
3.929100e-02 1.296849e+04 
4.039800e-02 1.272769e+04 
4.164000e-02 1.247445e+04 
4.294400e-02 1.222267e+04 
4.415000e-02 1.199926e+04 
4.542900e-02 1.176510e+04 
4.660900e-02 1.155162e+04 
4.782300e-02 1.132527e+04 
4.892900e-02 1.111663e+04 
5.031200e-02 1.084789e+04 
5.155900e-02 1.059568e+04 
5.238100e-02 1.042509e+04 
5.378200e-02 1.012763e+04 
5.513400e-02 9.831825e+03 
5.627600e-02 9.577375e+03 
5.735300e-02 9.336205e+03 
5.870100e-02 9.035133e+03 
5.988700e-02 8.774090e+03 
6.113500e-02 8.504455e+03 
6.225900e-02 8.267088e+03 
6.340100e-02 8.032491e+03 
6.480200e-02 7.755352e+03 
6.601100e-02 7.525920e+03 
6.725500e-02 7.300918e+03 
6.829100e-02 7.123556e+03 
6.958600e-02 6.914372e+03 
7.071100e-02 6.745518e+03 
7.192300e-02 6.576843e+03 
7.307400e-02 6.429263e+03 
7.412300e-02 6.305120e+03 
7.550400e-02 6.157243e+03 
7.663100e-02 6.047144e+03 
7.791200e-02 5.935354e+03 
7.912700e-02 5.840286e+03 
8.027600e-02 5.757911e+03 
8.138400e-02 5.684092e+03 
8.272200e-02 5.601194e+03 
8.406100e-02 5.523166e+03 
8.534100e-02 5.451379e+03 
8.653800e-02 5.384636e+03 
8.759800e-02 5.325326e+03 
8.900300e-02 5.245242e+03 
9.009000e-02 5.180942e+03 
9.113300e-02 5.116186e+03 
9.239600e-02 5.035685e+03 
9.358000e-02 4.956827e+03 
9.496100e-02 4.859532e+03 
9.608400e-02 4.778353e+03 
9.727500e-02 4.691185e+03 
9.852600e-02 4.594794e+03 
9.973800e-02 4.501557e+03 
1.009000e-01 4.412575e+03 
1.020900e-01 4.320014e+03 
1.034000e-01 4.220175e+03 
1.046000e-01 4.130472e+03 
1.057200e-01 4.048496e+03 
1.069100e-01 3.963931e+03 
1.082500e-01 3.872284e+03 
1.093900e-01 3.797840e+03 
1.105400e-01 3.725480e+03 
1.116900e-01 3.657674e+03 
1.129600e-01 3.585959e+03 
1.142000e-01 3.521091e+03 
1.153300e-01 3.465202e+03 
1.166400e-01 3.404705e+03 
1.177800e-01 3.356225e+03 
1.190000e-01 3.306925e+03 
1.201200e-01 3.265977e+03 
1.213400e-01 3.223005e+03 
1.227100e-01 3.179999e+03 
1.238900e-01 3.144511e+03 
1.250700e-01 3.111751e+03 
1.263200e-01 3.078271e+03 
1.275500e-01 3.047014e+03 
1.287500e-01 3.017211e+03 
1.299900e-01 2.987100e+03 
1.311300e-01 2.959411e+03 
1.323500e-01 2.929483e+03 
1.335900e-01 2.898601e+03 
1.347100e-01 2.869781e+03 
1.359800e-01 2.836577e+03 
1.372100e-01 2.802674e+03 
1.384300e-01 2.768704e+03 
1.395700e-01 2.735058e+03 
1.407700e-01 2.700064e+03 
1.420300e-01 2.660920e+03 
1.432800e-01 2.622953e+03 
1.444500e-01 2.585754e+03 
1.456300e-01 2.549026e+03 
1.468900e-01 2.509847e+03 
1.480500e-01 2.474313e+03 
1.491700e-01 2.440739e+03 
1.503800e-01 2.405264e+03 
1.516400e-01 2.369333e+03 
1.528200e-01 2.337342e+03 
1.540200e-01 2.305464e+03 
1.551900e-01 2.276449e+03 
1.564300e-01 2.246656e+03 
1.576600e-01 2.218587e+03 
1.588700e-01 2.192583e+03 
1.600900e-01 2.166954e+03 
1.612700e-01 2.144315e+03 
1.625400e-01 2.120403e+03 
1.637600e-01 2.098626e+03 
1.649500e-01 2.078210e+03 
1.662200e-01 2.056914e+03 
1.674000e-01 2.038011e+03 
1.685000e-01 2.020682e+03 
1.697500e-01 2.001322e+03 
1.710300e-01 1.981855e+03 
1.722200e-01 1.964075e+03 
1.734400e-01 1.945687e+03 
1.746400e-01 1.927888e+03 
1.758700e-01 1.909717e+03 
1.770900e-01 1.891515e+03 
1.782700e-01 1.874202e+03 
1.794600e-01 1.856576e+03 
1.807000e-01 1.838211e+03 
1.819100e-01 1.820589e+03 
1.830100e-01 1.804291e+03 
1.842200e-01 1.786553e+03 
1.855000e-01 1.768083e+03 
1.867000e-01 1.750622e+03 
1.879200e-01 1.733157e+03 
1.890900e-01 1.716641e+03 
1.902800e-01 1.699935e+03 
1.915200e-01 1.682805e+03 
1.926900e-01 1.666904e+03 
1.939000e-01 1.650738e+03 
1.951700e-01 1.634042e+03 
1.963100e-01 1.619329e+03 
1.975100e-01 1.604184e+03 
1.987800e-01 1.588405e+03 
2.000100e-01 1.573449e+03 
2.012500e-01 1.558802e+03 
2.023400e-01 1.546113e+03 
2.036100e-01 1.531601e+03 
2.048900e-01 1.517430e+03 
2.060400e-01 1.504885e+03 
2.072200e-01 1.492212e+03 
2.084200e-01 1.479741e+03 
2.096900e-01 1.466736e+03 
2.109200e-01 1.454325e+03 
2.121100e-01 1.442628e+03 
2.132700e-01 1.431389e+03 
2.145200e-01 1.419446e+03 
2.157200e-01 1.408191e+03 
2.168800e-01 1.397481e+03 
2.180700e-01 1.386641e+03 
2.193400e-01 1.375214e+03 
2.206000e-01 1.364006e+03 
2.217500e-01 1.353913e+03 
2.229500e-01 1.343519e+03 
2.241400e-01 1.333240e+03 
2.253500e-01 1.322924e+03 
2.264900e-01 1.313329e+03 
2.277100e-01 1.303104e+03 
2.289900e-01 1.292424e+03 
2.301500e-01 1.282873e+03 
2.313600e-01 1.273035e+03 
2.325600e-01 1.263208e+03 
2.337700e-01 1.253426e+03 
2.350000e-01 1.243612e+03 
2.362000e-01 1.234079e+03 
2.374100e-01 1.224494e+03 
2.386500e-01 1.214798e+03 
2.399100e-01 1.205074e+03 
2.410400e-01 1.196342e+03 
2.422500e-01 1.187090e+03 
2.435000e-01 1.177654e+03 
2.447300e-01 1.168475e+03 
2.458700e-01 1.160023e+03 
2.470600e-01 1.151305e+03 
2.483300e-01 1.142118e+03 
2.495600e-01 1.133330e+03 
2.507600e-01 1.124860e+03 
2.519600e-01 1.116491e+03 
2.532200e-01 1.107812e+03 
2.543700e-01 1.100029e+03 
2.555500e-01 1.092165e+03 
2.568000e-01 1.083933e+03 
2.580100e-01 1.076060e+03 
2.592400e-01 1.068235e+03 
2.604100e-01 1.060913e+03 
2.616100e-01 1.053490e+03 
2.628400e-01 1.045968e+03 
2.640600e-01 1.038693e+03 
2.652200e-01 1.031893e+03 
2.664300e-01 1.024878e+03 
2.676500e-01 1.017885e+03 
2.688400e-01 1.011226e+03 
2.700700e-01 1.004473e+03 
2.712400e-01 9.981207e+02 
2.724800e-01 9.914620e+02 
2.736700e-01 9.852011e+02 
2.748800e-01 9.789645e+02 
2.761000e-01 9.727448e+02 
2.773200e-01 9.665930e+02 
2.785400e-01 9.605373e+02 
2.797000e-01 9.549011e+02 
2.808900e-01 9.491789e+02 
2.821400e-01 9.432326e+02 
2.833900e-01 9.373535e+02 
2.845500e-01 9.320097e+02 
2.857800e-01 9.264020e+02 
2.870300e-01 9.207638e+02 
2.882100e-01 9.154968e+02 
2.893900e-01 9.103084e+02 
2.906300e-01 9.049258e+02 
2.918900e-01 8.995142e+02 
2.930500e-01 8.945829e+02 
2.942500e-01 8.895358e+02 
2.954200e-01 8.846760e+02 
2.966500e-01 8.796178e+02 
2.978900e-01 8.745707e+02 
2.990400e-01 8.699360e+02 
3.002700e-01 8.650308e+02 
3.015100e-01 8.601374e+02 
3.026800e-01 8.555655e+02 
3.038500e-01 8.510370e+02 
3.050300e-01 8.465131e+02 
3.062600e-01 8.418421e+02 
3.075000e-01 8.371797e+02 
3.087000e-01 8.327117e+02 
3.099100e-01 8.282496e+02 
3.111200e-01 8.238300e+02 
3.123100e-01 8.195244e+02 
3.135300e-01 8.151520e+02 
3.147300e-01 8.108920e+02 
3.159900e-01 8.064619e+02 
3.171800e-01 8.023162e+02 
3.183700e-01 7.982078e+02 
3.196300e-01 7.938988e+02 
3.208400e-01 7.898000e+02 
3.220300e-01 7.858059e+02 
3.232000e-01 7.819139e+02 
3.244300e-01 7.778594e+02 
3.256700e-01 7.738100e+02 
3.269200e-01 7.697664e+02 
3.280800e-01 7.660477e+02 
3.292500e-01 7.623342e+02 
3.304800e-01 7.584664e+02 
3.317100e-01 7.546340e+02 
3.328900e-01 7.509901e+02 
3.340700e-01 7.473779e+02 
3.353600e-01 7.434699e+02 
3.365300e-01 7.399593e+02 
3.377100e-01 7.364489e+02 
3.389200e-01 7.328806e+02 
3.401600e-01 7.292562e+02 
3.413700e-01 7.257599e+02 
3.425300e-01 7.224430e+02 
3.437700e-01 7.189277e+02 
3.449800e-01 7.155275e+02 
3.461800e-01 7.121842e+02 
3.473600e-01 7.089286e+02 
3.485800e-01 7.056014e+02 
3.498100e-01 7.022757e+02 
3.510200e-01 6.990321e+02 
3.522000e-01 6.958953e+02 
3.533900e-01 6.927580e+02 
3.546400e-01 6.895069e+02 
3.558400e-01 6.864132e+02 
3.570600e-01 6.832940e+02 
3.582700e-01 6.802263e+02 
3.595000e-01 6.771338e+02 
3.607100e-01 6.741268e+02 
3.618900e-01 6.712259e+02 
3.631200e-01 6.682267e+02 
3.643200e-01 6.653247e+02 
3.655500e-01 6.623743e+02 
3.667300e-01 6.595668e+02 
3.679500e-01 6.567079e+02 
3.691900e-01 6.538259e+02 
3.703600e-01 6.511283e+02 
3.715700e-01 6.483604e+02 
3.727700e-01 6.456372e+02 
3.739900e-01 6.428979e+02 
3.752000e-01 6.402161e+02 
3.763900e-01 6.375993e+02 
3.775800e-01 6.350026e+02 
3.788200e-01 6.323181e+02 
3.800300e-01 6.297193e+02 
3.812100e-01 6.272136e+02 
3.824200e-01 6.246702e+02 
3.836100e-01 6.221880e+02 
3.848600e-01 6.196008e+02 
3.860400e-01 6.171774e+02 
3.872400e-01 6.147315e+02 
3.884600e-01 6.122759e+02 
3.896500e-01 6.099035e+02 
3.908700e-01 6.074896e+02 
3.920600e-01 6.051528e+02 
3.933100e-01 6.027168e+02 
3.945300e-01 6.003576e+02 
3.957200e-01 5.980872e+02 
3.969300e-01 5.957997e+02 
3.981700e-01 5.934732e+02 
3.993500e-01 5.912756e+02 
4.094840e-01 5.730531e+02 
4.272360e-01 5.439325e+02 
4.454600e-01 5.170312e+02 
4.630560e-01 4.934646e+02 
4.804610e-01 4.721326e+02 
4.980690e-01 4.522883e+02 
5.159230e-01 4.337362e+02 
5.317440e-01 4.184884e+02 
5.489640e-01 4.030471e+02 
5.671990e-01 3.879106e+02 
5.838690e-01 3.750664e+02 
6.018840e-01 3.621558e+02 
6.202330e-01 3.499617e+02 
6.379250e-01 3.390306e+02 
6.545410e-01 3.294624e+02 
6.714560e-01 3.203172e+02 
6.892080e-01 3.113444e+02 
7.066010e-01 3.031017e+02 
7.240540e-01 2.953282e+02 
7.420450e-01 2.877908e+02 
7.593780e-01 2.809381e+02 
7.764720e-01 2.745356e+02 
7.942840e-01 2.682147e+02 
8.116170e-01 2.623696e+02 
8.288310e-01 2.568365e+02 
8.462240e-01 2.514963e+02 
8.631980e-01 2.465021e+02 
8.810700e-01 2.414657e+02 
8.989410e-01 2.366350e+02 
9.166330e-01 2.320374e+02 
9.345640e-01 2.275556e+02 
9.515980e-01 2.234401e+02 
9.688720e-01 2.194029e+02 
9.865640e-01 2.153967e+02 
1.031870e+00 2.057050e+02 
1.063490e+00 1.993541e+02 
1.097920e+00 1.927933e+02 
1.134370e+00 1.861995e+02 
1.167730e+00 1.804604e+02 
1.203830e+00 1.745169e+02 
1.240470e+00 1.687821e+02 
1.275790e+00 1.634814e+02 
1.309140e+00 1.587114e+02 
1.342970e+00 1.540336e+02 
1.378420e+00 1.493499e+02 
1.413200e+00 1.449308e+02 
1.448110e+00 1.406692e+02 
1.484090e+00 1.364584e+02 
1.518820e+00 1.325505e+02 
1.552880e+00 1.288546e+02 
1.588630e+00 1.251248e+02 
1.623230e+00 1.216530e+02 
1.657720e+00 1.183197e+02 
1.692450e+00 1.150905e+02 
1.726400e+00 1.120367e+02 
1.762200e+00 1.089303e+02 
1.797880e+00 1.059527e+02 
1.833270e+00 1.031037e+02 
1.869070e+00 1.003237e+02 
1.903200e+00 9.776950e+01 
1.937740e+00 9.527220e+01 
1.973190e+00 9.279414e+01 
2.007440e+00 9.048374e+01 
2.042160e+00 8.822030e+01 
2.077900e+00 8.596560e+01 
2.112390e+00 8.386691e+01 
2.146220e+00 8.186847e+01 
2.181600e+00 7.984769e+01 
2.216930e+00 7.789672e+01 
2.250760e+00 7.608815e+01 
2.286500e+00 7.423809e+01 
2.321770e+00 7.247141e+01 
2.355950e+00 7.081351e+01 
2.391280e+00 6.914947e+01 
2.426240e+00 6.755533e+01 
2.460670e+00 6.603473e+01 
2.495640e+00 6.453808e+01 
2.531080e+00 6.306300e+01 
2.566220e+00 6.164546e+01 
2.600830e+00 6.029223e+01 
2.635080e+00 5.899354e+01 
2.670340e+00 5.769380e+01 
2.705970e+00 5.641946e+01 
2.740040e+00 5.523631e+01 
2.774520e+00 5.407026e+01 
2.809730e+00 5.291426e+01 
2.844390e+00 5.180999e+01 
2.879960e+00 5.070869e+01 
2.914860e+00 4.965757e+01 
2.949410e+00 4.864652e+01 
2.984440e+00 4.764923e+01 
3.019760e+00 4.667104e+01 
3.054730e+00 4.572969e+01 
3.089030e+00 4.483026e+01 
3.124060e+00 4.393664e+01 
3.159560e+00 4.305499e+01 
3.194710e+00 4.220565e+01 
3.229010e+00 4.139958e+01 
3.263320e+00 4.061323e+01 
3.297930e+00 3.984069e+01 
3.332830e+00 3.908076e+01 
3.368040e+00 3.833435e+01 
3.403300e+00 3.760676e+01 
3.438450e+00 3.689987e+01 
3.473060e+00 3.622209e+01 
3.508440e+00 3.554561e+01 
3.543110e+00 3.489998e+01 
3.577470e+00 3.427581e+01 
3.613040e+00 3.364582e+01 
3.648120e+00 3.303912e+01 
3.682910e+00 3.245252e+01 
3.718050e+00 3.187461e+01 
3.753320e+00 3.130893e+01 
3.787980e+00 3.076651e+01 
3.822290e+00 3.024237e+01 
3.857020e+00 2.972425e+01 
3.891920e+00 2.921589e+01 
3.926650e+00 2.872165e+01 
3.961970e+00 2.823105e+01 
3.997360e+00 2.775139e+01 
4.031670e+00 2.729714e+01 
4.066330e+00 2.684850e+01 
4.101420e+00 2.640473e+01 
4.136200e+00 2.597495e+01 
4.170810e+00 2.555689e+01 
4.206250e+00 2.513839e+01 
4.241580e+00 2.473062e+01 
4.276300e+00 2.433904e+01 
4.310970e+00 2.395672e+01 
4.346120e+00 2.357772e+01 
4.380600e+00 2.321427e+01 
4.414730e+00 2.286212e+01 
4.450350e+00 2.250291e+01 
4.485320e+00 2.215781e+01 
4.519810e+00 2.182487e+01 
4.555430e+00 2.148836e+01 
4.590870e+00 2.116081e+01 
4.625480e+00 2.084794e+01 
4.659910e+00 2.054300e+01 
4.695230e+00 2.023705e+01 
4.729960e+00 1.994240e+01 
4.764450e+00 1.965580e+01 
4.799530e+00 1.937043e+01 
4.834910e+00 1.908837e+01 
4.869700e+00 1.881707e+01 
4.904370e+00 1.855206e+01 
4.939450e+00 1.828931e+01 
4.973940e+00 1.803647e+01 
5.008430e+00 1.778841e+01 
5.043810e+00 1.753915e+01 
5.078840e+00 1.729725e+01 
5.113500e+00 1.706239e+01 
5.148890e+00 1.682782e+01 
5.184210e+00 1.659815e+01 
5.219060e+00 1.637589e+01 
5.253660e+00 1.615976e+01 
5.288570e+00 1.594563e+01 
5.323420e+00 1.573605e+01 
5.358440e+00 1.552958e+01 
5.393590e+00 1.532607e+01 
5.428310e+00 1.512911e+01 
5.462800e+00 1.493713e+01 
5.497640e+00 1.474658e+01 
5.532670e+00 1.455883e+01 
5.567280e+00 1.437670e+01 
5.602000e+00 1.419711e+01 
5.637270e+00 1.401835e+01 
5.672410e+00 1.384342e+01 
5.707020e+00 1.367404e+01 
5.742040e+00 1.350609e+01 
5.777430e+00 1.333933e+01 
5.812210e+00 1.317818e+01 
5.846820e+00 1.302090e+01 
5.881610e+00 1.286549e+01 
5.916510e+00 1.271212e+01 
5.951600e+00 1.256088e+01 
5.986560e+00 1.241283e+01 
6.021830e+00 1.226588e+01 
6.056490e+00 1.212412e+01 
6.091160e+00 1.198486e+01 
6.125830e+00 1.184777e+01 
6.161090e+00 1.171071e+01 
6.195760e+00 1.157843e+01 
6.230420e+00 1.144821e+01 
6.265690e+00 1.131777e+01 
6.300950e+00 1.118993e+01 
6.335620e+00 1.106615e+01 
6.370880e+00 1.094216e+01 
6.405550e+00 1.082247e+01 
6.440220e+00 1.070471e+01 
6.475480e+00 1.058673e+01 
6.510150e+00 1.047260e+01 
6.544810e+00 1.036050e+01 
6.580080e+00 1.024810e+01 
6.614750e+00 1.013923e+01 
6.649410e+00 1.003242e+01 
6.684080e+00 9.927200e+00 
6.719340e+00 9.821727e+00 
6.754010e+00 9.719630e+00 
6.788680e+00 9.619271e+00 
6.823940e+00 9.518649e+00 
6.859800e+00 9.417781e+00 
6.894470e+00 9.321954e+00 
6.929140e+00 9.227566e+00 
6.963800e+00 9.134503e+00 
6.999070e+00 9.041134e+00 
7.033730e+00 8.950989e+00 
7.068400e+00 8.862040e+00 
7.103660e+00 8.772809e+00 
7.138330e+00 8.686394e+00 
7.173600e+00 8.599946e+00 
7.208260e+00 8.516132e+00 
7.243530e+00 8.431982e+00 
7.277600e+00 8.351958e+00 
7.312860e+00 8.270399e+00 
7.348120e+00 8.189922e+00 
7.382790e+00 8.111828e+00 
7.417460e+00 8.034972e+00 
7.452720e+00 7.957939e+00 
7.487390e+00 7.883173e+00 
7.522650e+00 7.808114e+00 
7.557320e+00 7.735458e+00 
7.591990e+00 7.663795e+00 
7.627250e+00 7.591838e+00 
7.662510e+00 7.520797e+00 
7.697180e+00 7.452053e+00 
7.731850e+00 7.384249e+00 
7.766510e+00 7.317302e+00 
7.801180e+00 7.251160e+00 
7.836440e+00 7.184906e+00 
7.871110e+00 7.120676e+00 
7.906380e+00 7.056134e+00 
7.941040e+00 6.993482e+00 
7.976310e+00 6.930598e+00 
8.011570e+00 6.868615e+00 
8.046240e+00 6.808402e+00 
8.080900e+00 6.748922e+00 
8.115570e+00 6.690181e+00 
8.150830e+00 6.631347e+00 
8.185500e+00 6.574182e+00 
8.220770e+00 6.516713e+00 
8.255430e+00 6.460901e+00 
8.290100e+00 6.405919e+00 
8.324770e+00 6.351594e+00 
8.359430e+00 6.297909e+00 
8.394700e+00 6.243911e+00 
8.429960e+00 6.190664e+00 
8.464630e+00 6.139021e+00 
8.499890e+00 6.087097e+00 
8.534560e+00 6.036623e+00 
8.569200e+00 5.986758e+00 
