# Parameters:
# omega_b = 0.022965, omega_m = 0.141772, n_s = 0.867323, h = 70.590551, w = -1.000000, sigma_8 = 0.772441
# z = 1.100000
#
# k[1/Mpc] # P(k):
8.694000e-04 7.609974e+03 
2.077466e-03 1.492571e+04 
3.285532e-03 2.021612e+04 
4.493598e-03 2.406742e+04 
5.701664e-03 2.676283e+04 
6.909730e-03 2.854202e+04 
8.117797e-03 2.963827e+04 
9.325863e-03 3.016877e+04 
1.053393e-02 3.024071e+04 
1.174199e-02 2.994660e+04 
1.295006e-02 2.934704e+04 
1.415813e-02 2.852032e+04 
1.536619e-02 2.752995e+04 
1.657426e-02 2.641626e+04 
1.778233e-02 2.519759e+04 
1.899039e-02 2.392556e+04 
2.019846e-02 2.266892e+04 
2.140652e-02 2.147080e+04 
2.261459e-02 2.033070e+04 
2.382266e-02 1.925675e+04 
2.503072e-02 1.825826e+04 
2.623879e-02 1.733797e+04 
2.744685e-02 1.649632e+04 
2.865492e-02 1.573352e+04 
2.986299e-02 1.504561e+04 
3.100100e-02 1.446345e+04 
3.220400e-02 1.391220e+04 
3.288100e-02 1.363006e+04 
3.424300e-02 1.311616e+04 
3.555100e-02 1.268070e+04 
3.686000e-02 1.229482e+04 
3.795000e-02 1.200440e+04 
3.929100e-02 1.168032e+04 
4.039800e-02 1.143266e+04 
4.164000e-02 1.116996e+04 
4.294400e-02 1.090298e+04 
4.415000e-02 1.066163e+04 
4.542900e-02 1.040167e+04 
4.660900e-02 1.016061e+04 
4.782300e-02 9.899501e+03 
4.892900e-02 9.656747e+03 
5.031200e-02 9.342267e+03 
5.155900e-02 9.047622e+03 
5.238100e-02 8.849501e+03 
5.378200e-02 8.507169e+03 
5.513400e-02 8.172369e+03 
5.627600e-02 7.889387e+03 
5.735300e-02 7.625473e+03 
5.870100e-02 7.302138e+03 
5.988700e-02 7.027501e+03 
6.113500e-02 6.750341e+03 
6.225900e-02 6.513244e+03 
6.340100e-02 6.286331e+03 
6.480200e-02 6.027597e+03 
6.601100e-02 5.823689e+03 
6.725500e-02 5.632247e+03 
6.829100e-02 5.488103e+03 
6.958600e-02 5.323480e+03 
7.071100e-02 5.195471e+03 
7.192300e-02 5.071073e+03 
7.307400e-02 4.964640e+03 
7.412300e-02 4.876396e+03 
7.550400e-02 4.772231e+03 
7.663100e-02 4.694577e+03 
7.791200e-02 4.614366e+03 
7.912700e-02 4.543663e+03 
8.027600e-02 4.479824e+03 
8.138400e-02 4.420046e+03 
8.272200e-02 4.348980e+03 
8.406100e-02 4.277799e+03 
8.534100e-02 4.207716e+03 
8.653800e-02 4.139510e+03 
8.759800e-02 4.077509e+03 
8.900300e-02 3.992282e+03 
9.009000e-02 3.923393e+03 
9.113300e-02 3.854492e+03 
9.239600e-02 3.769616e+03 
9.358000e-02 3.687856e+03 
9.496100e-02 3.589742e+03 
9.608400e-02 3.509755e+03 
9.727500e-02 3.425423e+03 
9.852600e-02 3.336031e+03 
9.973800e-02 3.251513e+03 
1.009000e-01 3.172446e+03 
1.020900e-01 3.093985e+03 
1.034000e-01 3.011217e+03 
1.046000e-01 2.938732e+03 
1.057200e-01 2.875510e+03 
1.069100e-01 2.811387e+03 
1.082500e-01 2.744868e+03 
1.093900e-01 2.692534e+03 
1.105400e-01 2.642649e+03 
1.116900e-01 2.597879e+03 
1.129600e-01 2.551095e+03 
1.142000e-01 2.510039e+03 
1.153300e-01 2.474846e+03 
1.166400e-01 2.437055e+03 
1.177800e-01 2.406412e+03 
1.190000e-01 2.375071e+03 
1.201200e-01 2.347730e+03 
1.213400e-01 2.318784e+03 
1.227100e-01 2.286991e+03 
1.238900e-01 2.260063e+03 
1.250700e-01 2.232913e+03 
1.263200e-01 2.204281e+03 
1.275500e-01 2.175557e+03 
1.287500e-01 2.147375e+03 
1.299900e-01 2.117644e+03 
1.311300e-01 2.090047e+03 
1.323500e-01 2.059848e+03 
1.335900e-01 2.028999e+03 
1.347100e-01 2.000611e+03 
1.359800e-01 1.968514e+03 
1.372100e-01 1.936895e+03 
1.384300e-01 1.905874e+03 
1.395700e-01 1.876612e+03 
1.407700e-01 1.846421e+03 
1.420300e-01 1.814705e+03 
1.432800e-01 1.783988e+03 
1.444500e-01 1.755710e+03 
1.456300e-01 1.727818e+03 
1.468900e-01 1.699128e+03 
1.480500e-01 1.673424e+03 
1.491700e-01 1.649524e+03 
1.503800e-01 1.624758e+03 
1.516400e-01 1.599769e+03 
1.528200e-01 1.577913e+03 
1.540200e-01 1.556135e+03 
1.551900e-01 1.536410e+03 
1.564300e-01 1.516181e+03 
1.576600e-01 1.497049e+03 
1.588700e-01 1.479232e+03 
1.600900e-01 1.461654e+03 
1.612700e-01 1.445753e+03 
1.625400e-01 1.428961e+03 
1.637600e-01 1.413350e+03 
1.649500e-01 1.398524e+03 
1.662200e-01 1.382975e+03 
1.674000e-01 1.368700e+03 
1.685000e-01 1.355616e+03 
1.697500e-01 1.340770e+03 
1.710300e-01 1.325616e+03 
1.722200e-01 1.311781e+03 
1.734400e-01 1.297180e+03 
1.746400e-01 1.283043e+03 
1.758700e-01 1.268590e+03 
1.770900e-01 1.254069e+03 
1.782700e-01 1.240266e+03 
1.794600e-01 1.226270e+03 
1.807000e-01 1.211731e+03 
1.819100e-01 1.197791e+03 
1.830100e-01 1.185086e+03 
1.842200e-01 1.171300e+03 
1.855000e-01 1.156969e+03 
1.867000e-01 1.143705e+03 
1.879200e-01 1.130448e+03 
1.890900e-01 1.117967e+03 
1.902800e-01 1.105593e+03 
1.915200e-01 1.092913e+03 
1.926900e-01 1.081207e+03 
1.939000e-01 1.069503e+03 
1.951700e-01 1.057420e+03 
1.963100e-01 1.046825e+03 
1.975100e-01 1.036049e+03 
1.987800e-01 1.024828e+03 
2.000100e-01 1.014220e+03 
2.012500e-01 1.003892e+03 
2.023400e-01 9.949468e+02 
2.036100e-01 9.847206e+02 
2.048900e-01 9.747385e+02 
2.060400e-01 9.659047e+02 
2.072200e-01 9.569794e+02 
2.084200e-01 9.481465e+02 
2.096900e-01 9.389379e+02 
2.109200e-01 9.301535e+02 
2.121100e-01 9.218046e+02 
2.132700e-01 9.137812e+02 
2.145200e-01 9.052585e+02 
2.157200e-01 8.971863e+02 
2.168800e-01 8.894872e+02 
2.180700e-01 8.816970e+02 
2.193400e-01 8.734852e+02 
2.206000e-01 8.654271e+02 
2.217500e-01 8.581740e+02 
2.229500e-01 8.507069e+02 
2.241400e-01 8.433617e+02 
2.253500e-01 8.359933e+02 
2.264900e-01 8.291429e+02 
2.277100e-01 8.218957e+02 
2.289900e-01 8.143835e+02 
2.301500e-01 8.076677e+02 
2.313600e-01 8.007539e+02 
2.325600e-01 7.939854e+02 
2.337700e-01 7.872502e+02 
2.350000e-01 7.804944e+02 
2.362000e-01 7.740016e+02 
2.374100e-01 7.675532e+02 
2.386500e-01 7.610314e+02 
2.399100e-01 7.544925e+02 
2.410400e-01 7.487315e+02 
2.422500e-01 7.426422e+02 
2.435000e-01 7.364325e+02 
2.447300e-01 7.304109e+02 
2.458700e-01 7.249377e+02 
2.470600e-01 7.192928e+02 
2.483300e-01 7.133444e+02 
2.495600e-01 7.076741e+02 
2.507600e-01 7.022340e+02 
2.519600e-01 6.968597e+02 
2.532200e-01 6.912863e+02 
2.543700e-01 6.862840e+02 
2.555500e-01 6.812265e+02 
2.568000e-01 6.759332e+02 
2.580100e-01 6.708712e+02 
2.592400e-01 6.658080e+02 
2.604100e-01 6.610572e+02 
2.616100e-01 6.562405e+02 
2.628400e-01 6.513612e+02 
2.640600e-01 6.465899e+02 
2.652200e-01 6.421094e+02 
2.664300e-01 6.374883e+02 
2.676500e-01 6.328825e+02 
2.688400e-01 6.284472e+02 
2.700700e-01 6.239187e+02 
2.712400e-01 6.196592e+02 
2.724800e-01 6.151954e+02 
2.736700e-01 6.109619e+02 
2.748800e-01 6.067070e+02 
2.761000e-01 6.024647e+02 
2.773200e-01 5.982695e+02 
2.785400e-01 5.941206e+02 
2.797000e-01 5.902177e+02 
2.808900e-01 5.862563e+02 
2.821400e-01 5.821406e+02 
2.833900e-01 5.780705e+02 
2.845500e-01 5.743280e+02 
2.857800e-01 5.704016e+02 
2.870300e-01 5.664550e+02 
2.882100e-01 5.627692e+02 
2.893900e-01 5.591191e+02 
2.906300e-01 5.553225e+02 
2.918900e-01 5.515066e+02 
2.930500e-01 5.480303e+02 
2.942500e-01 5.444696e+02 
2.954200e-01 5.410300e+02 
2.966500e-01 5.374510e+02 
2.978900e-01 5.338808e+02 
2.990400e-01 5.306033e+02 
3.002700e-01 5.271307e+02 
3.015100e-01 5.236651e+02 
3.026800e-01 5.204281e+02 
3.038500e-01 5.172227e+02 
3.050300e-01 5.140215e+02 
3.062600e-01 5.107171e+02 
3.075000e-01 5.074199e+02 
3.087000e-01 5.042610e+02 
3.099100e-01 5.011071e+02 
3.111200e-01 4.979861e+02 
3.123100e-01 4.949495e+02 
3.135300e-01 4.918666e+02 
3.147300e-01 4.888639e+02 
3.159900e-01 4.857421e+02 
3.171800e-01 4.828267e+02 
3.183700e-01 4.799416e+02 
3.196300e-01 4.769165e+02 
3.208400e-01 4.740397e+02 
3.220300e-01 4.712372e+02 
3.232000e-01 4.685133e+02 
3.244300e-01 4.656788e+02 
3.256700e-01 4.628488e+02 
3.269200e-01 4.600234e+02 
3.280800e-01 4.574259e+02 
3.292500e-01 4.548385e+02 
3.304800e-01 4.521463e+02 
3.317100e-01 4.494793e+02 
3.328900e-01 4.469442e+02 
3.340700e-01 4.444318e+02 
3.353600e-01 4.417213e+02 
3.365300e-01 4.392896e+02 
3.377100e-01 4.368587e+02 
3.389200e-01 4.343883e+02 
3.401600e-01 4.318796e+02 
3.413700e-01 4.294643e+02 
3.425300e-01 4.271764e+02 
3.437700e-01 4.247521e+02 
3.449800e-01 4.224078e+02 
3.461800e-01 4.201033e+02 
3.473600e-01 4.178614e+02 
3.485800e-01 4.155750e+02 
3.498100e-01 4.132902e+02 
3.510200e-01 4.110622e+02 
3.522000e-01 4.089081e+02 
3.533900e-01 4.067541e+02 
3.546400e-01 4.045272e+02 
3.558400e-01 4.024087e+02 
3.570600e-01 4.002734e+02 
3.582700e-01 3.981736e+02 
3.595000e-01 3.960573e+02 
3.607100e-01 3.940020e+02 
3.618900e-01 3.920211e+02 
3.631200e-01 3.899735e+02 
3.643200e-01 3.879926e+02 
3.655500e-01 3.859792e+02 
3.667300e-01 3.840635e+02 
3.679500e-01 3.821158e+02 
3.691900e-01 3.801527e+02 
3.703600e-01 3.783155e+02 
3.715700e-01 3.764308e+02 
3.727700e-01 3.745768e+02 
3.739900e-01 3.727127e+02 
3.752000e-01 3.708889e+02 
3.763900e-01 3.691095e+02 
3.775800e-01 3.673441e+02 
3.788200e-01 3.655193e+02 
3.800300e-01 3.637531e+02 
3.812100e-01 3.620513e+02 
3.824200e-01 3.603246e+02 
3.836100e-01 3.586398e+02 
3.848600e-01 3.568840e+02 
3.860400e-01 3.552396e+02 
3.872400e-01 3.535802e+02 
3.884600e-01 3.519154e+02 
3.896500e-01 3.503076e+02 
3.908700e-01 3.486718e+02 
3.920600e-01 3.470886e+02 
3.933100e-01 3.454384e+02 
3.945300e-01 3.438404e+02 
3.957200e-01 3.423028e+02 
3.969300e-01 3.407538e+02 
3.981700e-01 3.391785e+02 
3.993500e-01 3.376908e+02 
4.094840e-01 3.253783e+02 
4.272360e-01 3.057636e+02 
4.454600e-01 2.877559e+02 
4.630560e-01 2.720962e+02 
4.804610e-01 2.580378e+02 
4.980690e-01 2.450695e+02 
5.159230e-01 2.330515e+02 
5.317440e-01 2.232467e+02 
5.489640e-01 2.133915e+02 
5.671990e-01 2.037955e+02 
5.838690e-01 1.956966e+02 
6.018840e-01 1.876024e+02 
6.202330e-01 1.800001e+02 
6.379250e-01 1.732070e+02 
6.545410e-01 1.672898e+02 
6.714560e-01 1.616581e+02 
6.892080e-01 1.561476e+02 
7.066010e-01 1.511114e+02 
7.240540e-01 1.463766e+02 
7.420450e-01 1.418126e+02 
7.593780e-01 1.376851e+02 
7.764720e-01 1.338471e+02 
7.942840e-01 1.300769e+02 
8.116170e-01 1.266151e+02 
8.288310e-01 1.233619e+02 
8.462240e-01 1.202424e+02 
8.631980e-01 1.173482e+02 
8.810700e-01 1.144490e+02 
8.989410e-01 1.116910e+02 
9.166330e-01 1.090869e+02 
9.345640e-01 1.065679e+02 
9.515980e-01 1.042774e+02 
9.688720e-01 1.020498e+02 
9.865640e-01 9.986027e+01 
1.031870e+00 9.463679e+01 
1.063490e+00 9.127977e+01 
1.097920e+00 8.786380e+01 
1.134370e+00 8.448453e+01 
1.167730e+00 8.158764e+01 
1.203830e+00 7.863443e+01 
1.240470e+00 7.581951e+01 
1.275790e+00 7.325675e+01 
1.309140e+00 7.096996e+01 
1.342970e+00 6.875866e+01 
1.378420e+00 6.656249e+01 
1.413200e+00 6.451139e+01 
1.448110e+00 6.255008e+01 
1.484090e+00 6.062710e+01 
1.518820e+00 5.885571e+01 
1.552880e+00 5.719222e+01 
1.588630e+00 5.552270e+01 
1.623230e+00 5.397797e+01 
1.657720e+00 5.250185e+01 
1.692450e+00 5.107746e+01 
1.726400e+00 4.973754e+01 
1.762200e+00 4.838043e+01 
1.797880e+00 4.708304e+01 
1.833270e+00 4.584639e+01 
1.869070e+00 4.464367e+01 
1.903200e+00 4.354026e+01 
1.937740e+00 4.246403e+01 
1.973190e+00 4.139897e+01 
2.007440e+00 4.040722e+01 
2.042160e+00 3.943686e+01 
2.077900e+00 3.847237e+01 
2.112390e+00 3.757472e+01 
2.146220e+00 3.672196e+01 
2.181600e+00 3.585970e+01 
2.216930e+00 3.502798e+01 
2.250760e+00 3.425741e+01 
2.286500e+00 3.346954e+01 
2.321770e+00 3.271749e+01 
2.355950e+00 3.201138e+01 
2.391280e+00 3.130322e+01 
2.426240e+00 3.062431e+01 
2.460670e+00 2.997651e+01 
2.495640e+00 2.933896e+01 
2.531080e+00 2.871068e+01 
2.566220e+00 2.810653e+01 
2.600830e+00 2.752929e+01 
2.635080e+00 2.697479e+01 
2.670340e+00 2.641927e+01 
2.705970e+00 2.587443e+01 
2.740040e+00 2.536838e+01 
2.774520e+00 2.486945e+01 
2.809730e+00 2.437399e+01 
2.844390e+00 2.390011e+01 
2.879960e+00 2.342683e+01 
2.914860e+00 2.297488e+01 
2.949410e+00 2.253973e+01 
2.984440e+00 2.210961e+01 
3.019760e+00 2.168754e+01 
3.054730e+00 2.128109e+01 
3.089030e+00 2.089163e+01 
3.124060e+00 2.050441e+01 
3.159560e+00 2.012208e+01 
3.194710e+00 1.975297e+01 
3.229010e+00 1.940221e+01 
3.263320e+00 1.905911e+01 
3.297930e+00 1.872183e+01 
3.332830e+00 1.838988e+01 
3.368040e+00 1.806308e+01 
3.403300e+00 1.774392e+01 
3.438450e+00 1.743316e+01 
3.473060e+00 1.713488e+01 
3.508440e+00 1.683664e+01 
3.543110e+00 1.655169e+01 
3.577470e+00 1.627539e+01 
3.613040e+00 1.599625e+01 
3.648120e+00 1.572709e+01 
3.682910e+00 1.546644e+01 
3.718050e+00 1.520903e+01 
3.753320e+00 1.495670e+01 
3.787980e+00 1.471429e+01 
3.822290e+00 1.447967e+01 
3.857020e+00 1.424722e+01 
3.891920e+00 1.401883e+01 
3.926650e+00 1.379633e+01 
3.961970e+00 1.357516e+01 
3.997360e+00 1.335834e+01 
4.031670e+00 1.315282e+01 
4.066330e+00 1.294942e+01 
4.101420e+00 1.274809e+01 
4.136200e+00 1.255247e+01 
4.170810e+00 1.236209e+01 
4.206250e+00 1.217104e+01 
4.241580e+00 1.198473e+01 
4.276300e+00 1.180538e+01 
4.310970e+00 1.162998e+01 
4.346120e+00 1.145587e+01 
4.380600e+00 1.128854e+01 
4.414730e+00 1.112633e+01 
4.450350e+00 1.096029e+01 
4.485320e+00 1.080070e+01 
4.519810e+00 1.064636e+01 
4.555430e+00 1.049017e+01 
4.590870e+00 1.033795e+01 
4.625480e+00 1.019223e+01 
4.659910e+00 1.005014e+01 
4.695230e+00 9.907143e+00 
4.729960e+00 9.769304e+00 
4.764450e+00 9.635037e+00 
4.799530e+00 9.501053e+00 
4.834910e+00 9.368570e+00 
4.869700e+00 9.240800e+00 
4.904370e+00 9.115894e+00 
4.939450e+00 8.991919e+00 
4.973940e+00 8.872334e+00 
5.008430e+00 8.754970e+00 
5.043810e+00 8.636783e+00 
5.078840e+00 8.521928e+00 
5.113500e+00 8.410381e+00 
5.148890e+00 8.298643e+00 
5.184210e+00 8.189187e+00 
5.219060e+00 8.083164e+00 
5.253660e+00 7.979818e+00 
5.288570e+00 7.877403e+00 
5.323420e+00 7.777020e+00 
5.358440e+00 7.677975e+00 
5.393590e+00 7.580320e+00 
5.428310e+00 7.485612e+00 
5.462800e+00 7.393187e+00 
5.497640e+00 7.301427e+00 
5.532670e+00 7.210815e+00 
5.567280e+00 7.122835e+00 
5.602000e+00 7.036064e+00 
5.637270e+00 6.949523e+00 
5.672410e+00 6.864787e+00 
5.707020e+00 6.782721e+00 
5.742040e+00 6.701156e+00 
5.777430e+00 6.620122e+00 
5.812210e+00 6.541799e+00 
5.846820e+00 6.465220e+00 
5.881610e+00 6.389510e+00 
5.916510e+00 6.314784e+00 
5.951600e+00 6.240962e+00 
5.986560e+00 6.168637e+00 
6.021830e+00 6.096835e+00 
6.056490e+00 6.027484e+00 
6.091160e+00 5.959273e+00 
6.125830e+00 5.892120e+00 
6.161090e+00 5.824939e+00 
6.195760e+00 5.760019e+00 
6.230420e+00 5.696109e+00 
6.265690e+00 5.632075e+00 
6.300950e+00 5.569190e+00 
6.335620e+00 5.508294e+00 
6.370880e+00 5.447296e+00 
6.405550e+00 5.388344e+00 
6.440220e+00 5.330316e+00 
6.475480e+00 5.272177e+00 
6.510150e+00 5.215897e+00 
6.544810e+00 5.160549e+00 
6.580080e+00 5.105050e+00 
6.614750e+00 5.051289e+00 
6.649410e+00 4.998494e+00 
6.684080e+00 4.946471e+00 
6.719340e+00 4.894322e+00 
6.754010e+00 4.843821e+00 
6.788680e+00 4.794136e+00 
6.823940e+00 4.744318e+00 
6.859800e+00 4.694376e+00 
6.894470e+00 4.646898e+00 
6.929140e+00 4.600120e+00 
6.963800e+00 4.553998e+00 
6.999070e+00 4.507719e+00 
7.033730e+00 4.462994e+00 
7.068400e+00 4.418862e+00 
7.103660e+00 4.374588e+00 
7.138330e+00 4.331705e+00 
7.173600e+00 4.288794e+00 
7.208260e+00 4.247190e+00 
7.243530e+00 4.205417e+00 
7.277600e+00 4.165684e+00 
7.312860e+00 4.125180e+00 
7.348120e+00 4.085214e+00 
7.382790e+00 4.046429e+00 
7.417460e+00 4.008245e+00 
7.452720e+00 3.969965e+00 
7.487390e+00 3.932812e+00 
7.522650e+00 3.895511e+00 
7.557320e+00 3.859412e+00 
7.591990e+00 3.823808e+00 
7.627250e+00 3.788058e+00 
7.662510e+00 3.752762e+00 
7.697180e+00 3.718603e+00 
7.731850e+00 3.684911e+00 
7.766510e+00 3.651643e+00 
7.801180e+00 3.618775e+00 
7.836440e+00 3.585862e+00 
7.871110e+00 3.553962e+00 
7.906380e+00 3.521906e+00 
7.941040e+00 3.490787e+00 
7.976310e+00 3.459561e+00 
8.011570e+00 3.428790e+00 
8.046240e+00 3.398897e+00 
8.080900e+00 3.369368e+00 
8.115570e+00 3.340208e+00 
8.150830e+00 3.311017e+00 
8.185500e+00 3.282653e+00 
8.220770e+00 3.254137e+00 
8.255430e+00 3.226443e+00 
8.290100e+00 3.199180e+00 
8.324770e+00 3.172244e+00 
8.359430e+00 3.145624e+00 
8.394700e+00 3.118848e+00 
8.429960e+00 3.092459e+00 
8.464630e+00 3.066879e+00 
8.499890e+00 3.041159e+00 
8.534560e+00 3.016156e+00 
8.569200e+00 2.991453e+00 
