# Parameters:
# omega_b = 0.022681, omega_m = 0.127717, n_s = 1.042126, h = 58.307087, w = -1.000000, sigma_8 = 0.803937
# z = 1.100000
#
# k[1/Mpc] # P(k):
8.694000e-04 5.797955e+03 
2.077466e-03 1.310900e+04 
3.285532e-03 1.902799e+04 
4.493598e-03 2.366464e+04 
5.701664e-03 2.714951e+04 
6.909730e-03 2.963990e+04 
8.117797e-03 3.133743e+04 
9.325863e-03 3.234577e+04 
1.053393e-02 3.277515e+04 
1.174199e-02 3.273129e+04 
1.295006e-02 3.228148e+04 
1.415813e-02 3.151931e+04 
1.536619e-02 3.052866e+04 
1.657426e-02 2.937733e+04 
1.778233e-02 2.817603e+04 
1.899039e-02 2.704686e+04 
2.019846e-02 2.591841e+04 
2.140652e-02 2.474509e+04 
2.261459e-02 2.357428e+04 
2.382266e-02 2.245630e+04 
2.503072e-02 2.141256e+04 
2.623879e-02 2.044917e+04 
2.744685e-02 1.956905e+04 
2.865492e-02 1.877264e+04 
2.986299e-02 1.805601e+04 
3.100100e-02 1.745132e+04 
3.220400e-02 1.687978e+04 
3.288100e-02 1.658730e+04 
3.424300e-02 1.605349e+04 
3.555100e-02 1.559817e+04 
3.686000e-02 1.519013e+04 
3.795000e-02 1.487863e+04 
3.929100e-02 1.452301e+04 
4.039800e-02 1.424480e+04 
4.164000e-02 1.394337e+04 
4.294400e-02 1.362828e+04 
4.415000e-02 1.333922e+04 
4.542900e-02 1.302339e+04 
4.660900e-02 1.272906e+04 
4.782300e-02 1.241030e+04 
4.892900e-02 1.211513e+04 
5.031200e-02 1.173554e+04 
5.155900e-02 1.138342e+04 
5.238100e-02 1.114860e+04 
5.378200e-02 1.074625e+04 
5.513400e-02 1.035743e+04 
5.627600e-02 1.003248e+04 
5.735300e-02 9.732560e+03 
5.870100e-02 9.369481e+03 
5.988700e-02 9.064549e+03 
6.113500e-02 8.759394e+03 
6.225900e-02 8.499323e+03 
6.340100e-02 8.249676e+03 
6.480200e-02 7.962238e+03 
6.601100e-02 7.731312e+03 
6.725500e-02 7.509836e+03 
6.829100e-02 7.339072e+03 
6.958600e-02 7.140419e+03 
7.071100e-02 6.982805e+03 
7.192300e-02 6.827366e+03 
7.307400e-02 6.692791e+03 
7.412300e-02 6.580341e+03 
7.550400e-02 6.446813e+03 
7.663100e-02 6.347041e+03 
7.791200e-02 6.244074e+03 
7.912700e-02 6.153603e+03 
8.027600e-02 6.072124e+03 
8.138400e-02 5.995940e+03 
8.272200e-02 5.905391e+03 
8.406100e-02 5.814478e+03 
8.534100e-02 5.724374e+03 
8.653800e-02 5.635948e+03 
8.759800e-02 5.555062e+03 
8.900300e-02 5.443084e+03 
9.009000e-02 5.351966e+03 
9.113300e-02 5.260469e+03 
9.239600e-02 5.147587e+03 
9.358000e-02 5.038832e+03 
9.496100e-02 4.908848e+03 
9.608400e-02 4.803404e+03 
9.727500e-02 4.692680e+03 
9.852600e-02 4.577032e+03 
9.973800e-02 4.468507e+03 
1.009000e-01 4.367631e+03 
1.020900e-01 4.269372e+03 
1.034000e-01 4.166403e+03 
1.046000e-01 4.076959e+03 
1.057200e-01 3.999973e+03 
1.069100e-01 3.922096e+03 
1.082500e-01 3.841939e+03 
1.093900e-01 3.778930e+03 
1.105400e-01 3.718887e+03 
1.116900e-01 3.664664e+03 
1.129600e-01 3.607738e+03 
1.142000e-01 3.556938e+03 
1.153300e-01 3.512828e+03 
1.166400e-01 3.464578e+03 
1.177800e-01 3.424358e+03 
1.190000e-01 3.382687e+03 
1.201200e-01 3.344933e+03 
1.213400e-01 3.304703e+03 
1.227100e-01 3.258850e+03 
1.238900e-01 3.219785e+03 
1.250700e-01 3.179716e+03 
1.263200e-01 3.137398e+03 
1.275500e-01 3.094810e+03 
1.287500e-01 3.053233e+03 
1.299900e-01 3.009695e+03 
1.311300e-01 2.969738e+03 
1.323500e-01 2.926676e+03 
1.335900e-01 2.883331e+03 
1.347100e-01 2.844265e+03 
1.359800e-01 2.800670e+03 
1.372100e-01 2.758855e+03 
1.384300e-01 2.718254e+03 
1.395700e-01 2.680981e+03 
1.407700e-01 2.642608e+03 
1.420300e-01 2.603455e+03 
1.432800e-01 2.565486e+03 
1.444500e-01 2.531257e+03 
1.456300e-01 2.497447e+03 
1.468900e-01 2.462761e+03 
1.480500e-01 2.431684e+03 
1.491700e-01 2.402614e+03 
1.503800e-01 2.372276e+03 
1.516400e-01 2.341481e+03 
1.528200e-01 2.313869e+03 
1.540200e-01 2.286332e+03 
1.551900e-01 2.260536e+03 
1.564300e-01 2.233853e+03 
1.576600e-01 2.208110e+03 
1.588700e-01 2.183522e+03 
1.600900e-01 2.159208e+03 
1.612700e-01 2.136327e+03 
1.625400e-01 2.112161e+03 
1.637600e-01 2.089360e+03 
1.649500e-01 2.067510e+03 
1.662200e-01 2.044584e+03 
1.674000e-01 2.023475e+03 
1.685000e-01 2.004127e+03 
1.697500e-01 1.982341e+03 
1.710300e-01 1.960264e+03 
1.722200e-01 1.940106e+03 
1.734400e-01 1.919391e+03 
1.746400e-01 1.899352e+03 
1.758700e-01 1.879062e+03 
1.770900e-01 1.859069e+03 
1.782700e-01 1.840059e+03 
1.794600e-01 1.821084e+03 
1.807000e-01 1.801563e+03 
1.819100e-01 1.782838e+03 
1.830100e-01 1.766034e+03 
1.842200e-01 1.747832e+03 
1.855000e-01 1.728906e+03 
1.867000e-01 1.711540e+03 
1.879200e-01 1.694170e+03 
1.890900e-01 1.677807e+03 
1.902800e-01 1.661579e+03 
1.915200e-01 1.644939e+03 
1.926900e-01 1.629546e+03 
1.939000e-01 1.614070e+03 
1.951700e-01 1.598085e+03 
1.963100e-01 1.584016e+03 
1.975100e-01 1.569586e+03 
1.987800e-01 1.554551e+03 
2.000100e-01 1.540281e+03 
2.012500e-01 1.526265e+03 
2.023400e-01 1.514122e+03 
2.036100e-01 1.500200e+03 
2.048900e-01 1.486479e+03 
2.060400e-01 1.474331e+03 
2.072200e-01 1.462044e+03 
2.084200e-01 1.449763e+03 
2.096900e-01 1.436955e+03 
2.109200e-01 1.424734e+03 
2.121100e-01 1.413004e+03 
2.132700e-01 1.401723e+03 
2.145200e-01 1.389736e+03 
2.157200e-01 1.378295e+03 
2.168800e-01 1.367341e+03 
2.180700e-01 1.356254e+03 
2.193400e-01 1.344500e+03 
2.206000e-01 1.332842e+03 
2.217500e-01 1.322346e+03 
2.229500e-01 1.311538e+03 
2.241400e-01 1.300685e+03 
2.253500e-01 1.289791e+03 
2.264900e-01 1.279661e+03 
2.277100e-01 1.268798e+03 
2.289900e-01 1.257376e+03 
2.301500e-01 1.247165e+03 
2.313600e-01 1.236650e+03 
2.325600e-01 1.226030e+03 
2.337700e-01 1.215463e+03 
2.350000e-01 1.204864e+03 
2.362000e-01 1.194533e+03 
2.374100e-01 1.184102e+03 
2.386500e-01 1.173554e+03 
2.399100e-01 1.162980e+03 
2.410400e-01 1.153453e+03 
2.422500e-01 1.143359e+03 
2.435000e-01 1.133069e+03 
2.447300e-01 1.123065e+03 
2.458700e-01 1.113860e+03 
2.470600e-01 1.104370e+03 
2.483300e-01 1.094373e+03 
2.495600e-01 1.084840e+03 
2.507600e-01 1.075689e+03 
2.519600e-01 1.066652e+03 
2.532200e-01 1.057283e+03 
2.543700e-01 1.048940e+03 
2.555500e-01 1.040552e+03 
2.568000e-01 1.031775e+03 
2.580100e-01 1.023384e+03 
2.592400e-01 1.015131e+03 
2.604100e-01 1.007448e+03 
2.616100e-01 9.996609e+02 
2.628400e-01 9.917737e+02 
2.640600e-01 9.842358e+02 
2.652200e-01 9.772265e+02 
2.664300e-01 9.699979e+02 
2.676500e-01 9.627938e+02 
2.688400e-01 9.560017e+02 
2.700700e-01 9.491574e+02 
2.712400e-01 9.427196e+02 
2.724800e-01 9.359728e+02 
2.736700e-01 9.296722e+02 
2.748800e-01 9.234403e+02 
2.761000e-01 9.172261e+02 
2.773200e-01 9.110805e+02 
2.785400e-01 9.050500e+02 
2.797000e-01 8.994768e+02 
2.808900e-01 8.938191e+02 
2.821400e-01 8.879402e+02 
2.833900e-01 8.821299e+02 
2.845500e-01 8.768823e+02 
2.857800e-01 8.713759e+02 
2.870300e-01 8.658401e+02 
2.882100e-01 8.606690e+02 
2.893900e-01 8.555889e+02 
2.906300e-01 8.503264e+02 
2.918900e-01 8.450358e+02 
2.930500e-01 8.402150e+02 
2.942500e-01 8.352843e+02 
2.954200e-01 8.305464e+02 
2.966500e-01 8.256154e+02 
2.978900e-01 8.206954e+02 
2.990400e-01 8.161776e+02 
3.002700e-01 8.114023e+02 
3.015100e-01 8.066414e+02 
3.026800e-01 8.021936e+02 
3.038500e-01 7.977882e+02 
3.050300e-01 7.933876e+02 
3.062600e-01 7.888515e+02 
3.075000e-01 7.843239e+02 
3.087000e-01 7.799853e+02 
3.099100e-01 7.756527e+02 
3.111200e-01 7.713642e+02 
3.123100e-01 7.671909e+02 
3.135300e-01 7.629531e+02 
3.147300e-01 7.588244e+02 
3.159900e-01 7.545310e+02 
3.171800e-01 7.505184e+02 
3.183700e-01 7.465452e+02 
3.196300e-01 7.423781e+02 
3.208400e-01 7.384145e+02 
3.220300e-01 7.345524e+02 
3.232000e-01 7.307936e+02 
3.244300e-01 7.268799e+02 
3.256700e-01 7.229713e+02 
3.269200e-01 7.190683e+02 
3.280800e-01 7.154792e+02 
3.292500e-01 7.118995e+02 
3.304800e-01 7.081726e+02 
3.317100e-01 7.044799e+02 
3.328900e-01 7.009690e+02 
3.340700e-01 6.974887e+02 
3.353600e-01 6.937275e+02 
3.365300e-01 6.903502e+02 
3.377100e-01 6.869734e+02 
3.389200e-01 6.835409e+02 
3.401600e-01 6.800545e+02 
3.413700e-01 6.766931e+02 
3.425300e-01 6.735054e+02 
3.437700e-01 6.701272e+02 
3.449800e-01 6.668596e+02 
3.461800e-01 6.636468e+02 
3.473600e-01 6.605189e+02 
3.485800e-01 6.573235e+02 
3.498100e-01 6.541296e+02 
3.510200e-01 6.510147e+02 
3.522000e-01 6.480024e+02 
3.533900e-01 6.449896e+02 
3.546400e-01 6.418678e+02 
3.558400e-01 6.388972e+02 
3.570600e-01 6.359023e+02 
3.582700e-01 6.329568e+02 
3.595000e-01 6.299876e+02 
3.607100e-01 6.271001e+02 
3.618900e-01 6.243143e+02 
3.631200e-01 6.214341e+02 
3.643200e-01 6.186473e+02 
3.655500e-01 6.158141e+02 
3.667300e-01 6.131181e+02 
3.679500e-01 6.103711e+02 
3.691900e-01 6.076020e+02 
3.703600e-01 6.050100e+02 
3.715700e-01 6.023506e+02 
3.727700e-01 5.997341e+02 
3.739900e-01 5.971014e+02 
3.752000e-01 5.945224e+02 
3.763900e-01 5.920058e+02 
3.775800e-01 5.895087e+02 
3.788200e-01 5.869273e+02 
3.800300e-01 5.844282e+02 
3.812100e-01 5.820173e+02 
3.824200e-01 5.795691e+02 
3.836100e-01 5.771799e+02 
3.848600e-01 5.746898e+02 
3.860400e-01 5.723573e+02 
3.872400e-01 5.700032e+02 
3.884600e-01 5.676380e+02 
3.896500e-01 5.653522e+02 
3.908700e-01 5.630265e+02 
3.920600e-01 5.607751e+02 
3.933100e-01 5.584282e+02 
3.945300e-01 5.561552e+02 
3.957200e-01 5.539658e+02 
3.969300e-01 5.517593e+02 
3.981700e-01 5.495151e+02 
3.993500e-01 5.473953e+02 
4.094840e-01 5.298160e+02 
4.272360e-01 5.016917e+02 
4.454600e-01 4.757257e+02 
4.630560e-01 4.530162e+02 
4.804610e-01 4.325132e+02 
4.980690e-01 4.134983e+02 
5.159230e-01 3.957803e+02 
5.317440e-01 3.812584e+02 
5.489640e-01 3.665907e+02 
5.671990e-01 3.522470e+02 
5.838690e-01 3.400951e+02 
6.018840e-01 3.278973e+02 
6.202330e-01 3.163892e+02 
6.379250e-01 3.060790e+02 
6.545410e-01 2.970578e+02 
6.714560e-01 2.884387e+02 
6.892080e-01 2.799825e+02 
7.066010e-01 2.722153e+02 
7.240540e-01 2.648917e+02 
7.420450e-01 2.577917e+02 
7.593780e-01 2.513389e+02 
7.764720e-01 2.453124e+02 
7.942840e-01 2.393656e+02 
8.116170e-01 2.338705e+02 
8.288310e-01 2.286733e+02 
8.462240e-01 2.236623e+02 
8.631980e-01 2.189811e+02 
8.810700e-01 2.142662e+02 
8.989410e-01 2.097502e+02 
9.166330e-01 2.054586e+02 
9.345640e-01 2.012816e+02 
9.515980e-01 1.974529e+02 
9.688720e-01 1.937037e+02 
9.865640e-01 1.899910e+02 
1.031870e+00 1.810379e+02 
1.063490e+00 1.751972e+02 
1.097920e+00 1.691852e+02 
1.134370e+00 1.631664e+02 
1.167730e+00 1.579468e+02 
1.203830e+00 1.525638e+02 
1.240470e+00 1.473859e+02 
1.275790e+00 1.426189e+02 
1.309140e+00 1.383392e+02 
1.342970e+00 1.341585e+02 
1.378420e+00 1.299811e+02 
1.413200e+00 1.260511e+02 
1.448110e+00 1.222711e+02 
1.484090e+00 1.185434e+02 
1.518820e+00 1.150919e+02 
1.552880e+00 1.118349e+02 
1.588630e+00 1.085541e+02 
1.623230e+00 1.055050e+02 
1.657720e+00 1.025818e+02 
1.692450e+00 9.975457e+01 
1.726400e+00 9.708507e+01 
1.762200e+00 9.437300e+01 
1.797880e+00 9.177677e+01 
1.833270e+00 8.929523e+01 
1.869070e+00 8.687663e+01 
1.903200e+00 8.465652e+01 
1.937740e+00 8.248779e+01 
1.973190e+00 8.033764e+01 
2.007440e+00 7.833452e+01 
2.042160e+00 7.637369e+01 
2.077900e+00 7.442166e+01 
2.112390e+00 7.260585e+01 
2.146220e+00 7.087781e+01 
2.181600e+00 6.913141e+01 
2.216930e+00 6.744630e+01 
2.250760e+00 6.588481e+01 
2.286500e+00 6.428806e+01 
2.321770e+00 6.276388e+01 
2.355950e+00 6.133412e+01 
2.391280e+00 5.989964e+01 
2.426240e+00 5.852573e+01 
2.460670e+00 5.721547e+01 
2.495640e+00 5.592613e+01 
2.531080e+00 5.465567e+01 
2.566220e+00 5.343504e+01 
2.600830e+00 5.226995e+01 
2.635080e+00 5.115193e+01 
2.670340e+00 5.003334e+01 
2.705970e+00 4.893662e+01 
2.740040e+00 4.791839e+01 
2.774520e+00 4.691486e+01 
2.809730e+00 4.592014e+01 
2.844390e+00 4.496997e+01 
2.879960e+00 4.402239e+01 
2.914860e+00 4.311791e+01 
2.949410e+00 4.224784e+01 
2.984440e+00 4.138967e+01 
3.019760e+00 4.054785e+01 
3.054730e+00 3.973765e+01 
3.089030e+00 3.896354e+01 
3.124060e+00 3.819434e+01 
3.159560e+00 3.743533e+01 
3.194710e+00 3.670407e+01 
3.229010e+00 3.601000e+01 
3.263320e+00 3.533280e+01 
3.297930e+00 3.466744e+01 
3.332830e+00 3.401289e+01 
3.368040e+00 3.336981e+01 
3.403300e+00 3.274280e+01 
3.438450e+00 3.213356e+01 
3.473060e+00 3.154935e+01 
3.508440e+00 3.096611e+01 
3.543110e+00 3.040939e+01 
3.577470e+00 2.987104e+01 
3.613040e+00 2.932759e+01 
3.648120e+00 2.880408e+01 
3.682910e+00 2.829783e+01 
3.718050e+00 2.779896e+01 
3.753320e+00 2.731056e+01 
3.787980e+00 2.684214e+01 
3.822290e+00 2.638939e+01 
3.857020e+00 2.594170e+01 
3.891920e+00 2.550237e+01 
3.926650e+00 2.507515e+01 
3.961970e+00 2.465098e+01 
3.997360e+00 2.423610e+01 
4.031670e+00 2.384315e+01 
4.066330e+00 2.345496e+01 
4.101420e+00 2.307095e+01 
4.136200e+00 2.269883e+01 
4.170810e+00 2.233685e+01 
4.206250e+00 2.197431e+01 
4.241580e+00 2.162100e+01 
4.276300e+00 2.128164e+01 
4.310970e+00 2.095024e+01 
4.346120e+00 2.062165e+01 
4.380600e+00 2.030642e+01 
4.414730e+00 2.000097e+01 
4.450350e+00 1.968922e+01 
4.485320e+00 1.938970e+01 
4.519810e+00 1.910062e+01 
4.555430e+00 1.880840e+01 
4.590870e+00 1.852390e+01 
4.625480e+00 1.825205e+01 
4.659910e+00 1.798707e+01 
4.695230e+00 1.772109e+01 
4.729960e+00 1.746489e+01 
4.764450e+00 1.721564e+01 
4.799530e+00 1.696737e+01 
4.834910e+00 1.672197e+01 
4.869700e+00 1.648582e+01 
4.904370e+00 1.625510e+01 
4.939450e+00 1.602632e+01 
4.973940e+00 1.580609e+01 
5.008430e+00 1.559001e+01 
5.043810e+00 1.537278e+01 
5.078840e+00 1.516193e+01 
5.113500e+00 1.495720e+01 
5.148890e+00 1.475264e+01 
5.184210e+00 1.455234e+01 
5.219060e+00 1.435847e+01 
5.253660e+00 1.416985e+01 
5.288570e+00 1.398298e+01 
5.323420e+00 1.380003e+01 
5.358440e+00 1.361975e+01 
5.393590e+00 1.344203e+01 
5.428310e+00 1.326999e+01 
5.462800e+00 1.310226e+01 
5.497640e+00 1.293577e+01 
5.532670e+00 1.277168e+01 
5.567280e+00 1.261247e+01 
5.602000e+00 1.245547e+01 
5.637270e+00 1.229914e+01 
5.672410e+00 1.214614e+01 
5.707020e+00 1.199799e+01 
5.742040e+00 1.185104e+01 
5.777430e+00 1.170512e+01 
5.812210e+00 1.156409e+01 
5.846820e+00 1.142641e+01 
5.881610e+00 1.129036e+01 
5.916510e+00 1.115609e+01 
5.951600e+00 1.102364e+01 
5.986560e+00 1.089396e+01 
6.021830e+00 1.076524e+01 
6.056490e+00 1.064105e+01 
6.091160e+00 1.051901e+01 
6.125830e+00 1.039888e+01 
6.161090e+00 1.027876e+01 
6.195760e+00 1.016281e+01 
6.230420e+00 1.004866e+01 
6.265690e+00 9.934316e+00 
6.300950e+00 9.822209e+00 
6.335620e+00 9.713657e+00 
6.370880e+00 9.604930e+00 
6.405550e+00 9.499944e+00 
6.440220e+00 9.396645e+00 
6.475480e+00 9.293154e+00 
6.510150e+00 9.193024e+00 
6.544810e+00 9.094657e+00 
6.580080e+00 8.996027e+00 
6.614750e+00 8.900492e+00 
6.649410e+00 8.806747e+00 
6.684080e+00 8.714394e+00 
6.719340e+00 8.621820e+00 
6.754010e+00 8.532204e+00 
6.788680e+00 8.444105e+00 
6.823940e+00 8.355775e+00 
6.859800e+00 8.267229e+00 
6.894470e+00 8.183096e+00 
6.929140e+00 8.100221e+00 
6.963800e+00 8.018511e+00 
6.999070e+00 7.936531e+00 
7.033730e+00 7.857364e+00 
7.068400e+00 7.779249e+00 
7.103660e+00 7.700885e+00 
7.138330e+00 7.624994e+00 
7.173600e+00 7.549072e+00 
7.208260e+00 7.475463e+00 
7.243530e+00 7.401560e+00 
7.277600e+00 7.331280e+00 
7.312860e+00 7.259652e+00 
7.348120e+00 7.188975e+00 
7.382790e+00 7.120391e+00 
7.417460e+00 7.052889e+00 
7.452720e+00 6.985230e+00 
7.487390e+00 6.919562e+00 
7.522650e+00 6.853636e+00 
7.557320e+00 6.789826e+00 
7.591990e+00 6.726889e+00 
7.627250e+00 6.663694e+00 
7.662510e+00 6.601304e+00 
7.697180e+00 6.540930e+00 
7.731850e+00 6.481383e+00 
7.766510e+00 6.422588e+00 
7.801180e+00 6.364500e+00 
7.836440e+00 6.306318e+00 
7.871110e+00 6.249914e+00 
7.906380e+00 6.193237e+00 
7.941040e+00 6.138219e+00 
7.976310e+00 6.083004e+00 
8.011570e+00 6.028584e+00 
8.046240e+00 5.975719e+00 
8.080900e+00 5.923498e+00 
8.115570e+00 5.871927e+00 
8.150830e+00 5.820277e+00 
8.185500e+00 5.770092e+00 
8.220770e+00 5.719641e+00 
8.255430e+00 5.670645e+00 
8.290100e+00 5.622389e+00 
8.324770e+00 5.574712e+00 
8.359430e+00 5.527596e+00 
8.394700e+00 5.480205e+00 
8.429960e+00 5.433479e+00 
8.464630e+00 5.388164e+00 
8.499890e+00 5.342604e+00 
8.534560e+00 5.298315e+00 
8.569200e+00 5.254561e+00 
