# Parameters:
# omega_b = 0.023075, omega_m = 0.143425, n_s = 0.998031, h = 78.858268, w = -1.000000, sigma_8 = 0.722047
# z = 1.100000
#
# k[1/Mpc] # P(k):
8.694000e-04 3.192903e+03 
2.077466e-03 7.028320e+03 
3.285532e-03 1.012429e+04 
4.493598e-03 1.257681e+04 
5.701664e-03 1.444902e+04 
6.909730e-03 1.582288e+04 
8.117797e-03 1.680097e+04 
9.325863e-03 1.743477e+04 
1.053393e-02 1.777660e+04 
1.174199e-02 1.787497e+04 
1.295006e-02 1.776251e+04 
1.415813e-02 1.748458e+04 
1.536619e-02 1.707862e+04 
1.657426e-02 1.656659e+04 
1.778233e-02 1.594306e+04 
1.899039e-02 1.522723e+04 
2.019846e-02 1.449648e+04 
2.140652e-02 1.380459e+04 
2.261459e-02 1.314549e+04 
2.382266e-02 1.251905e+04 
2.503072e-02 1.193184e+04 
2.623879e-02 1.138741e+04 
2.744685e-02 1.088782e+04 
2.865492e-02 1.043450e+04 
2.986299e-02 1.002617e+04 
3.100100e-02 9.682100e+03 
3.220400e-02 9.358491e+03 
3.288100e-02 9.194367e+03 
3.424300e-02 8.898531e+03 
3.555100e-02 8.651603e+03 
3.686000e-02 8.436756e+03 
3.795000e-02 8.277593e+03 
3.929100e-02 8.103153e+03 
4.039800e-02 7.971132e+03 
4.164000e-02 7.831294e+03 
4.294400e-02 7.687433e+03 
4.415000e-02 7.555092e+03 
4.542900e-02 7.407491e+03 
4.660900e-02 7.266642e+03 
4.782300e-02 7.107119e+03 
4.892900e-02 6.954444e+03 
5.031200e-02 6.750022e+03 
5.155900e-02 6.552284e+03 
5.238100e-02 6.416613e+03 
5.378200e-02 6.177922e+03 
5.513400e-02 5.939756e+03 
5.627600e-02 5.735550e+03 
5.735300e-02 5.543236e+03 
5.870100e-02 5.305584e+03 
5.988700e-02 5.102488e+03 
6.113500e-02 4.896874e+03 
6.225900e-02 4.721116e+03 
6.340100e-02 4.553706e+03 
6.480200e-02 4.364397e+03 
6.601100e-02 4.217646e+03 
6.725500e-02 4.082415e+03 
6.829100e-02 3.983074e+03 
6.958600e-02 3.871904e+03 
7.071100e-02 3.787901e+03 
7.192300e-02 3.708376e+03 
7.307400e-02 3.642139e+03 
7.412300e-02 3.588512e+03 
7.550400e-02 3.526895e+03 
7.663100e-02 3.481767e+03 
7.791200e-02 3.435827e+03 
7.912700e-02 3.395246e+03 
8.027600e-02 3.358136e+03 
8.138400e-02 3.322743e+03 
8.272200e-02 3.279476e+03 
8.406100e-02 3.234636e+03 
8.534100e-02 3.188679e+03 
8.653800e-02 3.142469e+03 
8.759800e-02 3.099612e+03 
8.900300e-02 3.039457e+03 
9.009000e-02 2.989902e+03 
9.113300e-02 2.939627e+03 
9.239600e-02 2.877127e+03 
9.358000e-02 2.816293e+03 
9.496100e-02 2.742510e+03 
9.608400e-02 2.681958e+03 
9.727500e-02 2.617819e+03 
9.852600e-02 2.549213e+03 
9.973800e-02 2.484148e+03 
1.009000e-01 2.423121e+03 
1.020900e-01 2.362348e+03 
1.034000e-01 2.298256e+03 
1.046000e-01 2.242152e+03 
1.057200e-01 2.193477e+03 
1.069100e-01 2.144263e+03 
1.082500e-01 2.093747e+03 
1.093900e-01 2.054476e+03 
1.105400e-01 2.017324e+03 
1.116900e-01 1.984808e+03 
1.129600e-01 1.951142e+03 
1.142000e-01 1.922475e+03 
1.153300e-01 1.898255e+03 
1.166400e-01 1.872824e+03 
1.177800e-01 1.852653e+03 
1.190000e-01 1.832246e+03 
1.201200e-01 1.814671e+03 
1.213400e-01 1.796112e+03 
1.227100e-01 1.775593e+03 
1.238900e-01 1.758111e+03 
1.250700e-01 1.740096e+03 
1.263200e-01 1.720860e+03 
1.275500e-01 1.701038e+03 
1.287500e-01 1.681247e+03 
1.299900e-01 1.659841e+03 
1.311300e-01 1.639621e+03 
1.323500e-01 1.616987e+03 
1.335900e-01 1.593539e+03 
1.347100e-01 1.571547e+03 
1.359800e-01 1.546468e+03 
1.372100e-01 1.521345e+03 
1.384300e-01 1.496580e+03 
1.395700e-01 1.472943e+03 
1.407700e-01 1.448541e+03 
1.420300e-01 1.422713e+03 
1.432800e-01 1.397708e+03 
1.444500e-01 1.374711e+03 
1.456300e-01 1.352035e+03 
1.468900e-01 1.328890e+03 
1.480500e-01 1.308210e+03 
1.491700e-01 1.289150e+03 
1.503800e-01 1.269614e+03 
1.516400e-01 1.249994e+03 
1.528200e-01 1.233241e+03 
1.540200e-01 1.216546e+03 
1.551900e-01 1.201844e+03 
1.564300e-01 1.186872e+03 
1.576600e-01 1.172914e+03 
1.588700e-01 1.160169e+03 
1.600900e-01 1.147607e+03 
1.612700e-01 1.136533e+03 
1.625400e-01 1.124834e+03 
1.637600e-01 1.113991e+03 
1.649500e-01 1.103713e+03 
1.662200e-01 1.092906e+03 
1.674000e-01 1.082841e+03 
1.685000e-01 1.073613e+03 
1.697500e-01 1.062962e+03 
1.710300e-01 1.051912e+03 
1.722200e-01 1.041821e+03 
1.734400e-01 1.030760e+03 
1.746400e-01 1.020032e+03 
1.758700e-01 1.008940e+03 
1.770900e-01 9.975455e+02 
1.782700e-01 9.867142e+02 
1.794600e-01 9.755719e+02 
1.807000e-01 9.638918e+02 
1.819100e-01 9.526939e+02 
1.830100e-01 9.423792e+02 
1.842200e-01 9.311684e+02 
1.855000e-01 9.195158e+02 
1.867000e-01 9.087134e+02 
1.879200e-01 8.979181e+02 
1.890900e-01 8.877677e+02 
1.902800e-01 8.777648e+02 
1.915200e-01 8.675157e+02 
1.926900e-01 8.580837e+02 
1.939000e-01 8.487445e+02 
1.951700e-01 8.391041e+02 
1.963100e-01 8.306856e+02 
1.975100e-01 8.222186e+02 
1.987800e-01 8.134007e+02 
2.000100e-01 8.050985e+02 
2.012500e-01 7.970941e+02 
2.023400e-01 7.901609e+02 
2.036100e-01 7.822490e+02 
2.048900e-01 7.745841e+02 
2.060400e-01 7.678001e+02 
2.072200e-01 7.609470e+02 
2.084200e-01 7.541891e+02 
2.096900e-01 7.471428e+02 
2.109200e-01 7.404201e+02 
2.121100e-01 7.340234e+02 
2.132700e-01 7.278750e+02 
2.145200e-01 7.213430e+02 
2.157200e-01 7.151417e+02 
2.168800e-01 7.092199e+02 
2.180700e-01 7.032272e+02 
2.193400e-01 6.969040e+02 
2.206000e-01 6.906881e+02 
2.217500e-01 6.850926e+02 
2.229500e-01 6.793312e+02 
2.241400e-01 6.736663e+02 
2.253500e-01 6.679828e+02 
2.264900e-01 6.626981e+02 
2.277100e-01 6.571230e+02 
2.289900e-01 6.513612e+02 
2.301500e-01 6.462095e+02 
2.313600e-01 6.409055e+02 
2.325600e-01 6.357660e+02 
2.337700e-01 6.306508e+02 
2.350000e-01 6.255190e+02 
2.362000e-01 6.206159e+02 
2.374100e-01 6.157805e+02 
2.386500e-01 6.108890e+02 
2.399100e-01 6.059835e+02 
2.410400e-01 6.017104e+02 
2.422500e-01 5.971990e+02 
2.435000e-01 5.925973e+02 
2.447300e-01 5.881414e+02 
2.458700e-01 5.841211e+02 
2.470600e-01 5.799738e+02 
2.483300e-01 5.756021e+02 
2.495600e-01 5.714372e+02 
2.507600e-01 5.674450e+02 
2.519600e-01 5.635000e+02 
2.532200e-01 5.594078e+02 
2.543700e-01 5.557217e+02 
2.555500e-01 5.519856e+02 
2.568000e-01 5.480743e+02 
2.580100e-01 5.443331e+02 
2.592400e-01 5.405580e+02 
2.604100e-01 5.370009e+02 
2.616100e-01 5.333937e+02 
2.628400e-01 5.297389e+02 
2.640600e-01 5.261229e+02 
2.652200e-01 5.227103e+02 
2.664300e-01 5.191901e+02 
2.676500e-01 5.156809e+02 
2.688400e-01 5.122651e+02 
2.700700e-01 5.087547e+02 
2.712400e-01 5.054524e+02 
2.724800e-01 5.019913e+02 
2.736700e-01 4.986834e+02 
2.748800e-01 4.953330e+02 
2.761000e-01 4.919921e+02 
2.773200e-01 4.886881e+02 
2.785400e-01 4.854080e+02 
2.797000e-01 4.822970e+02 
2.808900e-01 4.791390e+02 
2.821400e-01 4.758579e+02 
2.833900e-01 4.726118e+02 
2.845500e-01 4.696023e+02 
2.857800e-01 4.664448e+02 
2.870300e-01 4.632709e+02 
2.882100e-01 4.603065e+02 
2.893900e-01 4.573599e+02 
2.906300e-01 4.542891e+02 
2.918900e-01 4.512025e+02 
2.930500e-01 4.483904e+02 
2.942500e-01 4.455078e+02 
2.954200e-01 4.427159e+02 
2.966500e-01 4.398108e+02 
2.978900e-01 4.369127e+02 
2.990400e-01 4.342522e+02 
3.002700e-01 4.314295e+02 
3.015100e-01 4.286108e+02 
3.026800e-01 4.259779e+02 
3.038500e-01 4.233708e+02 
3.050300e-01 4.207669e+02 
3.062600e-01 4.180770e+02 
3.075000e-01 4.153928e+02 
3.087000e-01 4.128211e+02 
3.099100e-01 4.102536e+02 
3.111200e-01 4.077126e+02 
3.123100e-01 4.052401e+02 
3.135300e-01 4.027299e+02 
3.147300e-01 4.002849e+02 
3.159900e-01 3.977429e+02 
3.171800e-01 3.953687e+02 
3.183700e-01 3.930188e+02 
3.196300e-01 3.905548e+02 
3.208400e-01 3.882117e+02 
3.220300e-01 3.859290e+02 
3.232000e-01 3.837112e+02 
3.244300e-01 3.814037e+02 
3.256700e-01 3.790997e+02 
3.269200e-01 3.767996e+02 
3.280800e-01 3.746849e+02 
3.292500e-01 3.725789e+02 
3.304800e-01 3.703878e+02 
3.317100e-01 3.682171e+02 
3.328900e-01 3.661538e+02 
3.340700e-01 3.641089e+02 
3.353600e-01 3.619030e+02 
3.365300e-01 3.599242e+02 
3.377100e-01 3.579460e+02 
3.389200e-01 3.559355e+02 
3.401600e-01 3.538939e+02 
3.413700e-01 3.519289e+02 
3.425300e-01 3.500678e+02 
3.437700e-01 3.480959e+02 
3.449800e-01 3.461889e+02 
3.461800e-01 3.443143e+02 
3.473600e-01 3.424906e+02 
3.485800e-01 3.406307e+02 
3.498100e-01 3.387720e+02 
3.510200e-01 3.369596e+02 
3.522000e-01 3.352073e+02 
3.533900e-01 3.334549e+02 
3.546400e-01 3.316434e+02 
3.558400e-01 3.299201e+02 
3.570600e-01 3.281830e+02 
3.582700e-01 3.264748e+02 
3.595000e-01 3.247532e+02 
3.607100e-01 3.230808e+02 
3.618900e-01 3.214687e+02 
3.631200e-01 3.198024e+02 
3.643200e-01 3.181902e+02 
3.655500e-01 3.165516e+02 
3.667300e-01 3.149925e+02 
3.679500e-01 3.134067e+02 
3.691900e-01 3.118082e+02 
3.703600e-01 3.103123e+02 
3.715700e-01 3.087777e+02 
3.727700e-01 3.072681e+02 
3.739900e-01 3.057500e+02 
3.752000e-01 3.042641e+02 
3.763900e-01 3.028145e+02 
3.775800e-01 3.013763e+02 
3.788200e-01 2.998897e+02 
3.800300e-01 2.984507e+02 
3.812100e-01 2.970635e+02 
3.824200e-01 2.956555e+02 
3.836100e-01 2.942816e+02 
3.848600e-01 2.928498e+02 
3.860400e-01 2.915089e+02 
3.872400e-01 2.901557e+02 
3.884600e-01 2.887974e+02 
3.896500e-01 2.874854e+02 
3.908700e-01 2.861506e+02 
3.920600e-01 2.848586e+02 
3.933100e-01 2.835120e+02 
3.945300e-01 2.822080e+02 
3.957200e-01 2.809519e+02 
3.969300e-01 2.796862e+02 
3.981700e-01 2.783990e+02 
3.993500e-01 2.771834e+02 
4.094840e-01 2.671179e+02 
4.272360e-01 2.510490e+02 
4.454600e-01 2.362703e+02 
4.630560e-01 2.234031e+02 
4.804610e-01 2.118424e+02 
4.980690e-01 2.011715e+02 
5.159230e-01 1.912769e+02 
5.317440e-01 1.831999e+02 
5.489640e-01 1.750789e+02 
5.671990e-01 1.671643e+02 
5.838690e-01 1.604797e+02 
6.018840e-01 1.537965e+02 
6.202330e-01 1.475164e+02 
6.379250e-01 1.419004e+02 
6.545410e-01 1.370085e+02 
6.714560e-01 1.323535e+02 
6.892080e-01 1.277970e+02 
7.066010e-01 1.236374e+02 
7.240540e-01 1.197269e+02 
7.420450e-01 1.159639e+02 
7.593780e-01 1.125660e+02 
7.764720e-01 1.094105e+02 
7.942840e-01 1.063155e+02 
8.116170e-01 1.034808e+02 
8.288310e-01 1.008241e+02 
8.462240e-01 9.828203e+01 
8.631980e-01 9.593105e+01 
8.810700e-01 9.358126e+01 
8.989410e-01 9.135258e+01 
9.166330e-01 8.925427e+01 
9.345640e-01 8.722985e+01 
9.515980e-01 8.539616e+01 
9.688720e-01 8.361791e+01 
9.865640e-01 8.187619e+01 
1.031870e+00 7.773785e+01 
1.063490e+00 7.509480e+01 
1.097920e+00 7.241828e+01 
1.134370e+00 6.978099e+01 
1.167730e+00 6.753041e+01 
1.203830e+00 6.524396e+01 
1.240470e+00 6.307045e+01 
1.275790e+00 6.109772e+01 
1.309140e+00 5.933968e+01 
1.342970e+00 5.764272e+01 
1.378420e+00 5.595961e+01 
1.413200e+00 5.438900e+01 
1.448110e+00 5.288672e+01 
1.484090e+00 5.141500e+01 
1.518820e+00 5.005826e+01 
1.552880e+00 4.878334e+01 
1.588630e+00 4.750215e+01 
1.623230e+00 4.631634e+01 
1.657720e+00 4.518224e+01 
1.692450e+00 4.408534e+01 
1.726400e+00 4.305211e+01 
1.762200e+00 4.200441e+01 
1.797880e+00 4.100011e+01 
1.833270e+00 4.004196e+01 
1.869070e+00 3.910786e+01 
1.903200e+00 3.824855e+01 
1.937740e+00 3.740890e+01 
1.973190e+00 3.657631e+01 
2.007440e+00 3.579888e+01 
2.042160e+00 3.503601e+01 
2.077900e+00 3.427646e+01 
2.112390e+00 3.356739e+01 
2.146220e+00 3.289254e+01 
2.181600e+00 3.220800e+01 
2.216930e+00 3.154588e+01 
2.250760e+00 3.093101e+01 
2.286500e+00 3.030088e+01 
2.321770e+00 2.969783e+01 
2.355950e+00 2.912978e+01 
2.391280e+00 2.855851e+01 
2.426240e+00 2.800921e+01 
2.460670e+00 2.748375e+01 
2.495640e+00 2.696547e+01 
2.531080e+00 2.645322e+01 
2.566220e+00 2.595921e+01 
2.600830e+00 2.548590e+01 
2.635080e+00 2.503000e+01 
2.670340e+00 2.457139e+01 
2.705970e+00 2.412067e+01 
2.740040e+00 2.370124e+01 
2.774520e+00 2.328675e+01 
2.809730e+00 2.287360e+01 
2.844390e+00 2.247737e+01 
2.879960e+00 2.208040e+01 
2.914860e+00 2.170042e+01 
2.949410e+00 2.133383e+01 
2.984440e+00 2.097005e+01 
3.019760e+00 2.061241e+01 
3.054730e+00 2.026745e+01 
3.089030e+00 1.993526e+01 
3.124060e+00 1.960445e+01 
3.159560e+00 1.927717e+01 
3.194710e+00 1.896006e+01 
3.229010e+00 1.865817e+01 
3.263320e+00 1.836161e+01 
3.297930e+00 1.806966e+01 
3.332830e+00 1.778168e+01 
3.368040e+00 1.749737e+01 
3.403300e+00 1.721906e+01 
3.438450e+00 1.694709e+01 
3.473060e+00 1.668567e+01 
3.508440e+00 1.642338e+01 
3.543110e+00 1.617244e+01 
3.577470e+00 1.592810e+01 
3.613040e+00 1.568094e+01 
3.648120e+00 1.544206e+01 
3.682910e+00 1.521027e+01 
3.718050e+00 1.498061e+01 
3.753320e+00 1.475505e+01 
3.787980e+00 1.453780e+01 
3.822290e+00 1.432708e+01 
3.857020e+00 1.411775e+01 
3.891920e+00 1.391169e+01 
3.926650e+00 1.371039e+01 
3.961970e+00 1.350996e+01 
3.997360e+00 1.331289e+01 
4.031670e+00 1.312585e+01 
4.066330e+00 1.294012e+01 
4.101420e+00 1.275614e+01 
4.136200e+00 1.257674e+01 
4.170810e+00 1.240204e+01 
4.206250e+00 1.222622e+01 
4.241580e+00 1.205458e+01 
4.276300e+00 1.188883e+01 
4.310970e+00 1.172642e+01 
4.346120e+00 1.156493e+01 
4.380600e+00 1.140936e+01 
4.414730e+00 1.125844e+01 
4.450350e+00 1.110338e+01 
4.485320e+00 1.095426e+01 
4.519810e+00 1.080963e+01 
4.555430e+00 1.066304e+01 
4.590870e+00 1.051995e+01 
4.625480e+00 1.038265e+01 
4.659910e+00 1.024869e+01 
4.695230e+00 1.011341e+01 
4.729960e+00 9.982890e+00 
4.764450e+00 9.855536e+00 
4.799530e+00 9.728138e+00 
4.834910e+00 9.602097e+00 
4.869700e+00 9.480189e+00 
4.904370e+00 9.360902e+00 
4.939450e+00 9.242348e+00 
4.973940e+00 9.127689e+00 
5.008430e+00 9.015103e+00 
5.043810e+00 8.901478e+00 
5.078840e+00 8.790891e+00 
5.113500e+00 8.683434e+00 
5.148890e+00 8.575419e+00 
5.184210e+00 8.469543e+00 
5.219060e+00 8.366872e+00 
5.253660e+00 8.266552e+00 
5.288570e+00 8.167090e+00 
5.323420e+00 8.069438e+00 
5.358440e+00 7.972912e+00 
5.393590e+00 7.877696e+00 
5.428310e+00 7.785140e+00 
5.462800e+00 7.694684e+00 
5.497640e+00 7.604839e+00 
5.532670e+00 7.515901e+00 
5.567280e+00 7.429452e+00 
5.602000e+00 7.344155e+00 
5.637270e+00 7.258883e+00 
5.672410e+00 7.175317e+00 
5.707020e+00 7.094350e+00 
5.742040e+00 7.013667e+00 
5.777430e+00 6.933439e+00 
5.812210e+00 6.855864e+00 
5.846820e+00 6.779842e+00 
5.881610e+00 6.704615e+00 
5.916510e+00 6.630340e+00 
5.951600e+00 6.556808e+00 
5.986560e+00 6.484685e+00 
6.021830e+00 6.413059e+00 
6.056490e+00 6.343766e+00 
6.091160e+00 6.275515e+00 
6.125830e+00 6.208299e+00 
6.161090e+00 6.140983e+00 
6.195760e+00 6.075800e+00 
6.230420e+00 6.011610e+00 
6.265690e+00 5.947270e+00 
6.300950e+00 5.883919e+00 
6.335620e+00 5.822553e+00 
6.370880e+00 5.761064e+00 
6.405550e+00 5.701528e+00 
6.440220e+00 5.642870e+00 
6.475480e+00 5.584081e+00 
6.510150e+00 5.527115e+00 
6.544810e+00 5.470984e+00 
6.580080e+00 5.414683e+00 
6.614750e+00 5.360131e+00 
6.649410e+00 5.306448e+00 
6.684080e+00 5.253519e+00 
6.719340e+00 5.200447e+00 
6.754010e+00 5.149001e+00 
6.788680e+00 5.098286e+00 
6.823940e+00 5.047423e+00 
6.859800e+00 4.996420e+00 
6.894470e+00 4.947850e+00 
6.929140e+00 4.899959e+00 
6.963800e+00 4.852727e+00 
6.999070e+00 4.805317e+00 
7.033730e+00 4.759403e+00 
7.068400e+00 4.714085e+00 
7.103660e+00 4.668612e+00 
7.138330e+00 4.624527e+00 
7.173600e+00 4.580341e+00 
7.208260e+00 4.537490e+00 
7.243530e+00 4.494457e+00 
7.277600e+00 4.453468e+00 
7.312860e+00 4.411633e+00 
7.348120e+00 4.370342e+00 
7.382790e+00 4.330266e+00 
7.417460e+00 4.290751e+00 
7.452720e+00 4.251102e+00 
7.487390e+00 4.212613e+00 
7.522650e+00 4.173963e+00 
7.557320e+00 4.136498e+00 
7.591990e+00 4.099520e+00 
7.627250e+00 4.062382e+00 
7.662510e+00 4.025710e+00 
7.697180e+00 3.990164e+00 
7.731850e+00 3.955077e+00 
7.766510e+00 3.920427e+00 
7.801180e+00 3.886186e+00 
7.836440e+00 3.851857e+00 
7.871110e+00 3.818555e+00 
7.906380e+00 3.785084e+00 
7.941040e+00 3.752588e+00 
7.976310e+00 3.719943e+00 
8.011570e+00 3.687734e+00 
8.046240e+00 3.656440e+00 
8.080900e+00 3.625520e+00 
8.115570e+00 3.594973e+00 
8.150830e+00 3.564348e+00 
8.185500e+00 3.534586e+00 
8.220770e+00 3.504661e+00 
8.255430e+00 3.475594e+00 
8.290100e+00 3.446920e+00 
8.324770e+00 3.418580e+00 
8.359430e+00 3.390569e+00 
8.394700e+00 3.362390e+00 
8.429960e+00 3.334593e+00 
8.464630e+00 3.307621e+00 
8.499890e+00 3.280499e+00 
8.534560e+00 3.254129e+00 
8.569200e+00 3.228074e+00 
