# Parameters:
# omega_b = 0.022398, omega_m = 0.144252, n_s = 1.048425, h = 56.653543, w = -1.000000, sigma_8 = 0.895276
# z = 1.100000
#
# k[1/Mpc] # P(k):
8.694000e-04 4.634980e+03 
2.077466e-03 1.064941e+04 
3.285532e-03 1.570405e+04 
4.493598e-03 1.983820e+04 
5.701664e-03 2.309847e+04 
6.909730e-03 2.557595e+04 
8.117797e-03 2.741047e+04 
9.325863e-03 2.867122e+04 
1.053393e-02 2.943594e+04 
1.174199e-02 2.978230e+04 
1.295006e-02 2.975897e+04 
1.415813e-02 2.943878e+04 
1.536619e-02 2.888794e+04 
1.657426e-02 2.815783e+04 
1.778233e-02 2.732636e+04 
1.899039e-02 2.649145e+04 
2.019846e-02 2.562062e+04 
2.140652e-02 2.469227e+04 
2.261459e-02 2.373906e+04 
2.382266e-02 2.280123e+04 
2.503072e-02 2.190097e+04 
2.623879e-02 2.104748e+04 
2.744685e-02 2.024471e+04 
2.865492e-02 1.950005e+04 
2.986299e-02 1.881421e+04 
3.100100e-02 1.822169e+04 
3.220400e-02 1.765044e+04 
3.288100e-02 1.735337e+04 
3.424300e-02 1.680501e+04 
3.555100e-02 1.633284e+04 
3.686000e-02 1.590846e+04 
3.795000e-02 1.558579e+04 
3.929100e-02 1.522266e+04 
4.039800e-02 1.494433e+04 
4.164000e-02 1.464903e+04 
4.294400e-02 1.435081e+04 
4.415000e-02 1.408323e+04 
4.542900e-02 1.379857e+04 
4.660900e-02 1.353682e+04 
4.782300e-02 1.325682e+04 
4.892900e-02 1.299798e+04 
5.031200e-02 1.266427e+04 
5.155900e-02 1.235185e+04 
5.238100e-02 1.214133e+04 
5.378200e-02 1.177602e+04 
5.513400e-02 1.141567e+04 
5.627600e-02 1.110817e+04 
5.735300e-02 1.081882e+04 
5.870100e-02 1.046057e+04 
5.988700e-02 1.015258e+04 
6.113500e-02 9.837169e+03 
6.225900e-02 9.561970e+03 
6.340100e-02 9.292204e+03 
6.480200e-02 8.975813e+03 
6.601100e-02 8.715936e+03 
6.725500e-02 8.462493e+03 
6.829100e-02 8.263668e+03 
6.958600e-02 8.029755e+03 
7.071100e-02 7.841508e+03 
7.192300e-02 7.653830e+03 
7.307400e-02 7.489867e+03 
7.412300e-02 7.352064e+03 
7.550400e-02 7.187959e+03 
7.663100e-02 7.065655e+03 
7.791200e-02 6.941064e+03 
7.912700e-02 6.834386e+03 
8.027600e-02 6.741148e+03 
8.138400e-02 6.656755e+03 
8.272200e-02 6.560622e+03 
8.406100e-02 6.468531e+03 
8.534100e-02 6.381869e+03 
8.653800e-02 6.299797e+03 
8.759800e-02 6.226058e+03 
8.900300e-02 6.125438e+03 
9.009000e-02 6.044065e+03 
9.113300e-02 5.961990e+03 
9.239600e-02 5.860047e+03 
9.358000e-02 5.760566e+03 
9.496100e-02 5.638955e+03 
9.608400e-02 5.538370e+03 
9.727500e-02 5.431110e+03 
9.852600e-02 5.314727e+03 
9.973800e-02 5.203273e+03 
1.009000e-01 5.097812e+03 
1.020900e-01 4.990457e+03 
1.034000e-01 4.875719e+03 
1.046000e-01 4.773712e+03 
1.057200e-01 4.682179e+03 
1.069100e-01 4.588280e+03 
1.082500e-01 4.487987e+03 
1.093900e-01 4.407214e+03 
1.105400e-01 4.329091e+03 
1.116900e-01 4.256507e+03 
1.129600e-01 4.179830e+03 
1.142000e-01 4.110594e+03 
1.153300e-01 4.050754e+03 
1.166400e-01 3.985706e+03 
1.177800e-01 3.932941e+03 
1.190000e-01 3.878965e+03 
1.201200e-01 3.832940e+03 
1.213400e-01 3.784408e+03 
1.227100e-01 3.733798e+03 
1.238900e-01 3.691600e+03 
1.250700e-01 3.651230e+03 
1.263200e-01 3.609506e+03 
1.275500e-01 3.569502e+03 
1.287500e-01 3.531061e+03 
1.299900e-01 3.491752e+03 
1.311300e-01 3.455694e+03 
1.323500e-01 3.416860e+03 
1.335900e-01 3.377245e+03 
1.347100e-01 3.340865e+03 
1.359800e-01 3.299508e+03 
1.372100e-01 3.258360e+03 
1.384300e-01 3.217620e+03 
1.395700e-01 3.178397e+03 
1.407700e-01 3.137740e+03 
1.420300e-01 3.093667e+03 
1.432800e-01 3.050910e+03 
1.444500e-01 3.010062e+03 
1.456300e-01 2.969715e+03 
1.468900e-01 2.927088e+03 
1.480500e-01 2.888531e+03 
1.491700e-01 2.852134e+03 
1.503800e-01 2.813721e+03 
1.516400e-01 2.774743e+03 
1.528200e-01 2.739801e+03 
1.540200e-01 2.704966e+03 
1.551900e-01 2.672828e+03 
1.564300e-01 2.639712e+03 
1.576600e-01 2.608207e+03 
1.588700e-01 2.578648e+03 
1.600900e-01 2.549479e+03 
1.612700e-01 2.523076e+03 
1.625400e-01 2.495190e+03 
1.637600e-01 2.469472e+03 
1.649500e-01 2.445170e+03 
1.662200e-01 2.419775e+03 
1.674000e-01 2.396991e+03 
1.685000e-01 2.376105e+03 
1.697500e-01 2.352759e+03 
1.710300e-01 2.329272e+03 
1.722200e-01 2.307820e+03 
1.734400e-01 2.285818e+03 
1.746400e-01 2.264529e+03 
1.758700e-01 2.242895e+03 
1.770900e-01 2.221427e+03 
1.782700e-01 2.201008e+03 
1.794600e-01 2.180412e+03 
1.807000e-01 2.159078e+03 
1.819100e-01 2.138607e+03 
1.830100e-01 2.119892e+03 
1.842200e-01 2.099558e+03 
1.855000e-01 2.078393e+03 
1.867000e-01 2.058574e+03 
1.879200e-01 2.038748e+03 
1.890900e-01 2.020013e+03 
1.902800e-01 2.001150e+03 
1.915200e-01 1.981804e+03 
1.926900e-01 1.963852e+03 
1.939000e-01 1.945622e+03 
1.951700e-01 1.926792e+03 
1.963100e-01 1.910187e+03 
1.975100e-01 1.893070e+03 
1.987800e-01 1.875235e+03 
2.000100e-01 1.858307e+03 
2.012500e-01 1.841680e+03 
2.023400e-01 1.827274e+03 
2.036100e-01 1.810778e+03 
2.048900e-01 1.794594e+03 
2.060400e-01 1.780266e+03 
2.072200e-01 1.765784e+03 
2.084200e-01 1.751446e+03 
2.096900e-01 1.736492e+03 
2.109200e-01 1.722222e+03 
2.121100e-01 1.708686e+03 
2.132700e-01 1.695675e+03 
2.145200e-01 1.681848e+03 
2.157200e-01 1.668764e+03 
2.168800e-01 1.656287e+03 
2.180700e-01 1.643657e+03 
2.193400e-01 1.630314e+03 
2.206000e-01 1.617169e+03 
2.217500e-01 1.605332e+03 
2.229500e-01 1.593142e+03 
2.241400e-01 1.581008e+03 
2.253500e-01 1.568828e+03 
2.264900e-01 1.557500e+03 
2.277100e-01 1.545385e+03 
2.289900e-01 1.532682e+03 
2.301500e-01 1.521322e+03 
2.313600e-01 1.509621e+03 
2.325600e-01 1.497845e+03 
2.337700e-01 1.486124e+03 
2.350000e-01 1.474364e+03 
2.362000e-01 1.462906e+03 
2.374100e-01 1.451343e+03 
2.386500e-01 1.439646e+03 
2.399100e-01 1.427916e+03 
2.410400e-01 1.417336e+03 
2.422500e-01 1.406121e+03 
2.435000e-01 1.394683e+03 
2.447300e-01 1.383553e+03 
2.458700e-01 1.373285e+03 
2.470600e-01 1.362696e+03 
2.483300e-01 1.351536e+03 
2.495600e-01 1.340869e+03 
2.507600e-01 1.330594e+03 
2.519600e-01 1.320444e+03 
2.532200e-01 1.309918e+03 
2.543700e-01 1.300506e+03 
2.555500e-01 1.291015e+03 
2.568000e-01 1.281081e+03 
2.580100e-01 1.271581e+03 
2.592400e-01 1.262188e+03 
2.604100e-01 1.253421e+03 
2.616100e-01 1.244532e+03 
2.628400e-01 1.235527e+03 
2.640600e-01 1.226875e+03 
2.652200e-01 1.218810e+03 
2.664300e-01 1.210491e+03 
2.676500e-01 1.202198e+03 
2.688400e-01 1.194349e+03 
2.700700e-01 1.186420e+03 
2.712400e-01 1.178960e+03 
2.724800e-01 1.171141e+03 
2.736700e-01 1.163822e+03 
2.748800e-01 1.156564e+03 
2.761000e-01 1.149325e+03 
2.773200e-01 1.142166e+03 
2.785400e-01 1.135133e+03 
2.797000e-01 1.128621e+03 
2.808900e-01 1.122010e+03 
2.821400e-01 1.115139e+03 
2.833900e-01 1.108347e+03 
2.845500e-01 1.102206e+03 
2.857800e-01 1.095761e+03 
2.870300e-01 1.089281e+03 
2.882100e-01 1.083228e+03 
2.893900e-01 1.077279e+03 
2.906300e-01 1.071116e+03 
2.918900e-01 1.064919e+03 
2.930500e-01 1.059272e+03 
2.942500e-01 1.053495e+03 
2.954200e-01 1.047943e+03 
2.966500e-01 1.042164e+03 
2.978900e-01 1.036397e+03 
2.990400e-01 1.031102e+03 
3.002700e-01 1.025503e+03 
3.015100e-01 1.019920e+03 
3.026800e-01 1.014704e+03 
3.038500e-01 1.009537e+03 
3.050300e-01 1.004376e+03 
3.062600e-01 9.990516e+02 
3.075000e-01 9.937372e+02 
3.087000e-01 9.886441e+02 
3.099100e-01 9.835576e+02 
3.111200e-01 9.785206e+02 
3.123100e-01 9.736151e+02 
3.135300e-01 9.686334e+02 
3.147300e-01 9.637796e+02 
3.159900e-01 9.587318e+02 
3.171800e-01 9.540091e+02 
3.183700e-01 9.493296e+02 
3.196300e-01 9.444214e+02 
3.208400e-01 9.397524e+02 
3.220300e-01 9.352026e+02 
3.232000e-01 9.307687e+02 
3.244300e-01 9.261495e+02 
3.256700e-01 9.215361e+02 
3.269200e-01 9.169289e+02 
3.280800e-01 9.126920e+02 
3.292500e-01 9.084606e+02 
3.304800e-01 9.040534e+02 
3.317100e-01 8.996862e+02 
3.328900e-01 8.955338e+02 
3.340700e-01 8.914173e+02 
3.353600e-01 8.869621e+02 
3.365300e-01 8.829591e+02 
3.377100e-01 8.789564e+02 
3.389200e-01 8.748874e+02 
3.401600e-01 8.707543e+02 
3.413700e-01 8.667655e+02 
3.425300e-01 8.629799e+02 
3.437700e-01 8.589679e+02 
3.449800e-01 8.550870e+02 
3.461800e-01 8.512711e+02 
3.473600e-01 8.475540e+02 
3.485800e-01 8.437528e+02 
3.498100e-01 8.399532e+02 
3.510200e-01 8.362473e+02 
3.522000e-01 8.326633e+02 
3.533900e-01 8.290786e+02 
3.546400e-01 8.253597e+02 
3.558400e-01 8.218204e+02 
3.570600e-01 8.182521e+02 
3.582700e-01 8.147423e+02 
3.595000e-01 8.112043e+02 
3.607100e-01 8.077616e+02 
3.618900e-01 8.044386e+02 
3.631200e-01 8.010029e+02 
3.643200e-01 7.976783e+02 
3.655500e-01 7.942984e+02 
3.667300e-01 7.910820e+02 
3.679500e-01 7.878022e+02 
3.691900e-01 7.844958e+02 
3.703600e-01 7.814009e+02 
3.715700e-01 7.782254e+02 
3.727700e-01 7.751009e+02 
3.739900e-01 7.719566e+02 
3.752000e-01 7.688755e+02 
3.763900e-01 7.658689e+02 
3.775800e-01 7.628855e+02 
3.788200e-01 7.598012e+02 
3.800300e-01 7.568152e+02 
3.812100e-01 7.539338e+02 
3.824200e-01 7.510072e+02 
3.836100e-01 7.481511e+02 
3.848600e-01 7.451742e+02 
3.860400e-01 7.423857e+02 
3.872400e-01 7.395713e+02 
3.884600e-01 7.367427e+02 
3.896500e-01 7.340087e+02 
3.908700e-01 7.312269e+02 
3.920600e-01 7.285340e+02 
3.933100e-01 7.257267e+02 
3.945300e-01 7.230078e+02 
3.957200e-01 7.203889e+02 
3.969300e-01 7.177495e+02 
3.981700e-01 7.150650e+02 
3.993500e-01 7.125293e+02 
4.094840e-01 6.914846e+02 
4.272360e-01 6.577828e+02 
4.454600e-01 6.265911e+02 
4.630560e-01 5.992267e+02 
4.804610e-01 5.744316e+02 
4.980690e-01 5.513504e+02 
5.159230e-01 5.297590e+02 
5.317440e-01 5.120051e+02 
5.489640e-01 4.940127e+02 
5.671990e-01 4.763673e+02 
5.838690e-01 4.613856e+02 
6.018840e-01 4.463102e+02 
6.202330e-01 4.320537e+02 
6.379250e-01 4.192681e+02 
6.545410e-01 4.080574e+02 
6.714560e-01 3.973274e+02 
6.892080e-01 3.867910e+02 
7.066010e-01 3.770900e+02 
7.240540e-01 3.679326e+02 
7.420450e-01 3.590292e+02 
7.593780e-01 3.509168e+02 
7.764720e-01 3.433234e+02 
7.942840e-01 3.358123e+02 
8.116170e-01 3.288462e+02 
8.288310e-01 3.222326e+02 
8.462240e-01 3.158349e+02 
8.631980e-01 3.098326e+02 
8.810700e-01 3.037663e+02 
8.989410e-01 2.979305e+02 
9.166330e-01 2.923613e+02 
9.345640e-01 2.869190e+02 
9.515980e-01 2.819038e+02 
9.688720e-01 2.769706e+02 
9.865640e-01 2.720604e+02 
1.031870e+00 2.601337e+02 
1.063490e+00 2.522737e+02 
1.097920e+00 2.441199e+02 
1.134370e+00 2.358908e+02 
1.167730e+00 2.286993e+02 
1.203830e+00 2.212240e+02 
1.240470e+00 2.139899e+02 
1.275790e+00 2.072804e+02 
1.309140e+00 2.012322e+02 
1.342970e+00 1.952838e+02 
1.378420e+00 1.893172e+02 
1.413200e+00 1.836768e+02 
1.448110e+00 1.782306e+02 
1.484090e+00 1.728403e+02 
1.518820e+00 1.678326e+02 
1.552880e+00 1.630920e+02 
1.588630e+00 1.583049e+02 
1.623230e+00 1.538442e+02 
1.657720e+00 1.495588e+02 
1.692450e+00 1.454071e+02 
1.726400e+00 1.414781e+02 
1.762200e+00 1.374792e+02 
1.797880e+00 1.336470e+02 
1.833270e+00 1.299782e+02 
1.869070e+00 1.263978e+02 
1.903200e+00 1.231096e+02 
1.937740e+00 1.198944e+02 
1.973190e+00 1.167034e+02 
2.007440e+00 1.137294e+02 
2.042160e+00 1.108170e+02 
2.077900e+00 1.079153e+02 
2.112390e+00 1.052164e+02 
2.146220e+00 1.026457e+02 
2.181600e+00 1.000480e+02 
2.216930e+00 9.754093e+01 
2.250760e+00 9.521755e+01 
2.286500e+00 9.284156e+01 
2.321770e+00 9.057354e+01 
2.355950e+00 8.844684e+01 
2.391280e+00 8.631275e+01 
2.426240e+00 8.426973e+01 
2.460670e+00 8.232195e+01 
2.495640e+00 8.040551e+01 
2.531080e+00 7.851736e+01 
2.566220e+00 7.670406e+01 
2.600830e+00 7.497417e+01 
2.635080e+00 7.331510e+01 
2.670340e+00 7.165625e+01 
2.705970e+00 7.003030e+01 
2.740040e+00 6.852118e+01 
2.774520e+00 6.703436e+01 
2.809730e+00 6.556188e+01 
2.844390e+00 6.415633e+01 
2.879960e+00 6.275570e+01 
2.914860e+00 6.141928e+01 
2.949410e+00 6.013444e+01 
2.984440e+00 5.886849e+01 
3.019760e+00 5.762710e+01 
3.054730e+00 5.643283e+01 
3.089030e+00 5.529340e+01 
3.124060e+00 5.416166e+01 
3.159560e+00 5.304545e+01 
3.194710e+00 5.197123e+01 
3.229010e+00 5.095232e+01 
3.263320e+00 4.995950e+01 
3.297930e+00 4.898441e+01 
3.332830e+00 4.802550e+01 
3.368040e+00 4.708448e+01 
3.403300e+00 4.616784e+01 
3.438450e+00 4.527817e+01 
3.473060e+00 4.442550e+01 
3.508440e+00 4.357505e+01 
3.543110e+00 4.276374e+01 
3.577470e+00 4.198034e+01 
3.613040e+00 4.118989e+01 
3.648120e+00 4.042898e+01 
3.682910e+00 3.969375e+01 
3.718050e+00 3.897008e+01 
3.753320e+00 3.826212e+01 
3.787980e+00 3.758375e+01 
3.822290e+00 3.692861e+01 
3.857020e+00 3.628152e+01 
3.891920e+00 3.564694e+01 
3.926650e+00 3.503047e+01 
3.961970e+00 3.441885e+01 
3.997360e+00 3.382137e+01 
4.031670e+00 3.325577e+01 
4.066330e+00 3.269759e+01 
4.101420e+00 3.214562e+01 
4.136200e+00 3.161157e+01 
4.170810e+00 3.109222e+01 
4.206250e+00 3.057268e+01 
4.241580e+00 3.006660e+01 
4.276300e+00 2.958108e+01 
4.310970e+00 2.910733e+01 
4.346120e+00 2.863792e+01 
4.380600e+00 2.818805e+01 
4.414730e+00 2.775227e+01 
4.450350e+00 2.730824e+01 
4.485320e+00 2.688173e+01 
4.519810e+00 2.647058e+01 
4.555430e+00 2.605522e+01 
4.590870e+00 2.565109e+01 
4.625480e+00 2.526533e+01 
4.659910e+00 2.488941e+01 
4.695230e+00 2.451264e+01 
4.729960e+00 2.414986e+01 
4.764450e+00 2.379719e+01 
4.799530e+00 2.344629e+01 
4.834910e+00 2.309950e+01 
4.869700e+00 2.276622e+01 
4.904370e+00 2.244074e+01 
4.939450e+00 2.211817e+01 
4.973940e+00 2.180800e+01 
5.008430e+00 2.150374e+01 
5.043810e+00 2.119819e+01 
5.078840e+00 2.090180e+01 
5.113500e+00 2.061407e+01 
5.148890e+00 2.032700e+01 
5.184210e+00 2.004595e+01 
5.219060e+00 1.977408e+01 
5.253660e+00 1.950987e+01 
5.288570e+00 1.924813e+01 
5.323420e+00 1.899208e+01 
5.358440e+00 1.873995e+01 
5.393590e+00 1.849145e+01 
5.428310e+00 1.825112e+01 
5.462800e+00 1.801697e+01 
5.497640e+00 1.778458e+01 
5.532670e+00 1.755578e+01 
5.567280e+00 1.733388e+01 
5.602000e+00 1.711509e+01 
5.637270e+00 1.689745e+01 
5.672410e+00 1.668453e+01 
5.707020e+00 1.647836e+01 
5.742040e+00 1.627410e+01 
5.777430e+00 1.607134e+01 
5.812210e+00 1.587540e+01 
5.846820e+00 1.568428e+01 
5.881610e+00 1.549546e+01 
5.916510e+00 1.530914e+01 
5.951600e+00 1.512551e+01 
5.986560e+00 1.494581e+01 
6.021830e+00 1.476745e+01 
6.056490e+00 1.459547e+01 
6.091160e+00 1.442657e+01 
6.125830e+00 1.426032e+01 
6.161090e+00 1.409414e+01 
6.195760e+00 1.393383e+01 
6.230420e+00 1.377603e+01 
6.265690e+00 1.361796e+01 
6.300950e+00 1.346316e+01 
6.335620e+00 1.331327e+01 
6.370880e+00 1.316314e+01 
6.405550e+00 1.301827e+01 
6.440220e+00 1.287576e+01 
6.475480e+00 1.273299e+01 
6.510150e+00 1.259490e+01 
6.544810e+00 1.245933e+01 
6.580080e+00 1.232341e+01 
6.614750e+00 1.219176e+01 
6.649410e+00 1.206265e+01 
6.684080e+00 1.193546e+01 
6.719340e+00 1.180798e+01 
6.754010e+00 1.168460e+01 
6.788680e+00 1.156337e+01 
6.823940e+00 1.144183e+01 
6.859800e+00 1.131999e+01 
6.894470e+00 1.120427e+01 
6.929140e+00 1.109029e+01 
6.963800e+00 1.097792e+01 
6.999070e+00 1.086519e+01 
7.033730e+00 1.075639e+01 
7.068400e+00 1.064903e+01 
7.103660e+00 1.054133e+01 
7.138330e+00 1.043704e+01 
7.173600e+00 1.033273e+01 
7.208260e+00 1.023161e+01 
7.243530e+00 1.013008e+01 
7.277600e+00 1.003354e+01 
7.312860e+00 9.935165e+00 
7.348120e+00 9.838098e+00 
7.382790e+00 9.743909e+00 
7.417460e+00 9.651226e+00 
7.452720e+00 9.558340e+00 
7.487390e+00 9.468191e+00 
7.522650e+00 9.377688e+00 
7.557320e+00 9.290088e+00 
7.591990e+00 9.203689e+00 
7.627250e+00 9.116936e+00 
7.662510e+00 9.031290e+00 
7.697180e+00 8.948421e+00 
7.731850e+00 8.866691e+00 
7.766510e+00 8.785996e+00 
7.801180e+00 8.706273e+00 
7.836440e+00 8.626411e+00 
7.871110e+00 8.548987e+00 
7.906380e+00 8.471190e+00 
7.941040e+00 8.395671e+00 
7.976310e+00 8.319877e+00 
8.011570e+00 8.245170e+00 
8.046240e+00 8.172600e+00 
8.080900e+00 8.100914e+00 
8.115570e+00 8.030118e+00 
8.150830e+00 7.959204e+00 
8.185500e+00 7.890302e+00 
8.220770e+00 7.821037e+00 
8.255430e+00 7.753770e+00 
8.290100e+00 7.687504e+00 
8.324770e+00 7.622033e+00 
8.359430e+00 7.557334e+00 
8.394700e+00 7.492259e+00 
8.429960e+00 7.428084e+00 
8.464630e+00 7.365835e+00 
8.499890e+00 7.303249e+00 
8.534560e+00 7.242412e+00 
8.569200e+00 7.182311e+00 
