# Parameters:
# omega_b = 0.022791, omega_m = 0.149764, n_s = 0.935039, h = 75.314961, w = -1.000000, sigma_8 = 0.712598
# z = 1.100000
#
# k[1/Mpc] # P(k):
8.694000e-04 3.723760e+03 
2.077466e-03 7.794162e+03 
3.285532e-03 1.095779e+04 
4.493598e-03 1.340455e+04 
5.701664e-03 1.523813e+04 
6.909730e-03 1.655877e+04 
8.117797e-03 1.747884e+04 
9.325863e-03 1.805551e+04 
1.053393e-02 1.834504e+04 
1.174199e-02 1.839847e+04 
1.295006e-02 1.824926e+04 
1.415813e-02 1.794227e+04 
1.536619e-02 1.751420e+04 
1.657426e-02 1.698650e+04 
1.778233e-02 1.635602e+04 
1.899039e-02 1.564086e+04 
2.019846e-02 1.490924e+04 
2.140652e-02 1.421104e+04 
2.261459e-02 1.354174e+04 
2.382266e-02 1.290223e+04 
2.503072e-02 1.229934e+04 
2.623879e-02 1.173666e+04 
2.744685e-02 1.121583e+04 
2.865492e-02 1.073928e+04 
2.986299e-02 1.030623e+04 
3.100100e-02 9.937508e+03 
3.220400e-02 9.587170e+03 
3.288100e-02 9.407744e+03 
3.424300e-02 9.081451e+03 
3.555100e-02 8.806297e+03 
3.686000e-02 8.564669e+03 
3.795000e-02 8.384682e+03 
3.929100e-02 8.187045e+03 
4.039800e-02 8.038172e+03 
4.164000e-02 7.881927e+03 
4.294400e-02 7.724648e+03 
4.415000e-02 7.582550e+03 
4.542900e-02 7.428324e+03 
4.660900e-02 7.283738e+03 
4.782300e-02 7.123588e+03 
4.892900e-02 6.972018e+03 
5.031200e-02 6.771149e+03 
5.155900e-02 6.578188e+03 
5.238100e-02 6.446122e+03 
5.378200e-02 6.213993e+03 
5.513400e-02 5.982102e+03 
5.627600e-02 5.782720e+03 
5.735300e-02 5.594295e+03 
5.870100e-02 5.360378e+03 
5.988700e-02 5.159398e+03 
6.113500e-02 4.954710e+03 
6.225900e-02 4.778487e+03 
6.340100e-02 4.609347e+03 
6.480200e-02 4.416537e+03 
6.601100e-02 4.265283e+03 
6.725500e-02 4.124303e+03 
6.829100e-02 4.019284e+03 
6.958600e-02 3.900481e+03 
7.071100e-02 3.809318e+03 
7.192300e-02 3.721812e+03 
7.307400e-02 3.647902e+03 
7.412300e-02 3.587334e+03 
7.550400e-02 3.516844e+03 
7.663100e-02 3.464852e+03 
7.791200e-02 3.411813e+03 
7.912700e-02 3.365428e+03 
8.027600e-02 3.323697e+03 
8.138400e-02 3.284658e+03 
8.272200e-02 3.238184e+03 
8.406100e-02 3.191446e+03 
8.534100e-02 3.145137e+03 
8.653800e-02 3.099734e+03 
8.759800e-02 3.058228e+03 
8.900300e-02 3.000763e+03 
9.009000e-02 2.953919e+03 
9.113300e-02 2.906639e+03 
9.239600e-02 2.847970e+03 
9.358000e-02 2.790880e+03 
9.496100e-02 2.721399e+03 
9.608400e-02 2.664126e+03 
9.727500e-02 2.603234e+03 
9.852600e-02 2.537381e+03 
9.973800e-02 2.474517e+03 
1.009000e-01 2.415220e+03 
1.020900e-01 2.355258e+03 
1.034000e-01 2.291562e+03 
1.046000e-01 2.235325e+03 
1.057200e-01 2.185700e+03 
1.069100e-01 2.135228e+03 
1.082500e-01 2.082531e+03 
1.093900e-01 2.041030e+03 
1.105400e-01 2.001450e+03 
1.116900e-01 1.966108e+03 
1.129600e-01 1.929303e+03 
1.142000e-01 1.897438e+03 
1.153300e-01 1.870412e+03 
1.166400e-01 1.841847e+03 
1.177800e-01 1.819252e+03 
1.190000e-01 1.796421e+03 
1.201200e-01 1.777208e+03 
1.213400e-01 1.756996e+03 
1.227100e-01 1.735636e+03 
1.238900e-01 1.717658e+03 
1.250700e-01 1.699858e+03 
1.263200e-01 1.681103e+03 
1.275500e-01 1.662322e+03 
1.287500e-01 1.643762e+03 
1.299900e-01 1.623976e+03 
1.311300e-01 1.605333e+03 
1.323500e-01 1.584528e+03 
1.335900e-01 1.562890e+03 
1.347100e-01 1.542488e+03 
1.359800e-01 1.519074e+03 
1.372100e-01 1.495340e+03 
1.384300e-01 1.471792e+03 
1.395700e-01 1.448968e+03 
1.407700e-01 1.425354e+03 
1.420300e-01 1.399859e+03 
1.432800e-01 1.375176e+03 
1.444500e-01 1.352018e+03 
1.456300e-01 1.329190e+03 
1.468900e-01 1.305619e+03 
1.480500e-01 1.284485e+03 
1.491700e-01 1.264909e+03 
1.503800e-01 1.244715e+03 
1.516400e-01 1.224423e+03 
1.528200e-01 1.206996e+03 
1.540200e-01 1.189637e+03 
1.551900e-01 1.174333e+03 
1.564300e-01 1.158746e+03 
1.576600e-01 1.144247e+03 
1.588700e-01 1.131045e+03 
1.600900e-01 1.118041e+03 
1.612700e-01 1.106708e+03 
1.625400e-01 1.094736e+03 
1.637600e-01 1.083752e+03 
1.649500e-01 1.073406e+03 
1.662200e-01 1.062555e+03 
1.674000e-01 1.052597e+03 
1.685000e-01 1.043467e+03 
1.697500e-01 1.033001e+03 
1.710300e-01 1.022209e+03 
1.722200e-01 1.012354e+03 
1.734400e-01 1.001630e+03 
1.746400e-01 9.912317e+02 
1.758700e-01 9.804850e+02 
1.770900e-01 9.694571e+02 
1.782700e-01 9.589737e+02 
1.794600e-01 9.481729e+02 
1.807000e-01 9.368402e+02 
1.819100e-01 9.259752e+02 
1.830100e-01 9.159213e+02 
1.842200e-01 9.049865e+02 
1.855000e-01 8.936180e+02 
1.867000e-01 8.830082e+02 
1.879200e-01 8.724061e+02 
1.890900e-01 8.624262e+02 
1.902800e-01 8.525300e+02 
1.915200e-01 8.423913e+02 
1.926900e-01 8.330467e+02 
1.939000e-01 8.237449e+02 
1.951700e-01 8.141446e+02 
1.963100e-01 8.057502e+02 
1.975100e-01 7.972756e+02 
1.987800e-01 7.884512e+02 
2.000100e-01 7.801375e+02 
2.012500e-01 7.721073e+02 
2.023400e-01 7.651528e+02 
2.036100e-01 7.572188e+02 
2.048900e-01 7.495372e+02 
2.060400e-01 7.427393e+02 
2.072200e-01 7.358749e+02 
2.084200e-01 7.291295e+02 
2.096900e-01 7.220970e+02 
2.109200e-01 7.153883e+02 
2.121100e-01 7.090409e+02 
2.132700e-01 7.029422e+02 
2.145200e-01 6.964636e+02 
2.157200e-01 6.903397e+02 
2.168800e-01 6.845042e+02 
2.180700e-01 6.785994e+02 
2.193400e-01 6.723822e+02 
2.206000e-01 6.662950e+02 
2.217500e-01 6.608155e+02 
2.229500e-01 6.551740e+02 
2.241400e-01 6.496532e+02 
2.253500e-01 6.441151e+02 
2.264900e-01 6.389660e+02 
2.277100e-01 6.335425e+02 
2.289900e-01 6.279474e+02 
2.301500e-01 6.229447e+02 
2.313600e-01 6.177945e+02 
2.325600e-01 6.128135e+02 
2.337700e-01 6.078564e+02 
2.350000e-01 6.028832e+02 
2.362000e-01 5.981330e+02 
2.374100e-01 5.934502e+02 
2.386500e-01 5.887132e+02 
2.399100e-01 5.839627e+02 
2.410400e-01 5.798229e+02 
2.422500e-01 5.754520e+02 
2.435000e-01 5.709937e+02 
2.447300e-01 5.666757e+02 
2.458700e-01 5.627754e+02 
2.470600e-01 5.587520e+02 
2.483300e-01 5.545110e+02 
2.495600e-01 5.504674e+02 
2.507600e-01 5.465870e+02 
2.519600e-01 5.427526e+02 
2.532200e-01 5.387751e+02 
2.543700e-01 5.351873e+02 
2.555500e-01 5.315474e+02 
2.568000e-01 5.277370e+02 
2.580100e-01 5.240924e+02 
2.592400e-01 5.204091e+02 
2.604100e-01 5.169363e+02 
2.616100e-01 5.134147e+02 
2.628400e-01 5.098466e+02 
2.640600e-01 5.063117e+02 
2.652200e-01 5.029738e+02 
2.664300e-01 4.995308e+02 
2.676500e-01 4.960987e+02 
2.688400e-01 4.927553e+02 
2.700700e-01 4.893174e+02 
2.712400e-01 4.860835e+02 
2.724800e-01 4.826942e+02 
2.736700e-01 4.794538e+02 
2.748800e-01 4.761703e+02 
2.761000e-01 4.728965e+02 
2.773200e-01 4.696588e+02 
2.785400e-01 4.664444e+02 
2.797000e-01 4.633946e+02 
2.808900e-01 4.602990e+02 
2.821400e-01 4.570829e+02 
2.833900e-01 4.539013e+02 
2.845500e-01 4.509509e+02 
2.857800e-01 4.478556e+02 
2.870300e-01 4.447444e+02 
2.882100e-01 4.418388e+02 
2.893900e-01 4.389503e+02 
2.906300e-01 4.359402e+02 
2.918900e-01 4.329147e+02 
2.930500e-01 4.301586e+02 
2.942500e-01 4.273333e+02 
2.954200e-01 4.245967e+02 
2.966500e-01 4.217493e+02 
2.978900e-01 4.189091e+02 
2.990400e-01 4.163018e+02 
3.002700e-01 4.135353e+02 
3.015100e-01 4.107726e+02 
3.026800e-01 4.081922e+02 
3.038500e-01 4.056371e+02 
3.050300e-01 4.030855e+02 
3.062600e-01 4.004486e+02 
3.075000e-01 3.978174e+02 
3.087000e-01 3.952968e+02 
3.099100e-01 3.927804e+02 
3.111200e-01 3.902897e+02 
3.123100e-01 3.878657e+02 
3.135300e-01 3.854048e+02 
3.147300e-01 3.830080e+02 
3.159900e-01 3.805163e+02 
3.171800e-01 3.781887e+02 
3.183700e-01 3.758847e+02 
3.196300e-01 3.734691e+02 
3.208400e-01 3.711721e+02 
3.220300e-01 3.689345e+02 
3.232000e-01 3.667600e+02 
3.244300e-01 3.644975e+02 
3.256700e-01 3.622386e+02 
3.269200e-01 3.599837e+02 
3.280800e-01 3.579106e+02 
3.292500e-01 3.558458e+02 
3.304800e-01 3.536975e+02 
3.317100e-01 3.515694e+02 
3.328900e-01 3.495466e+02 
3.340700e-01 3.475420e+02 
3.353600e-01 3.453798e+02 
3.365300e-01 3.434403e+02 
3.377100e-01 3.415015e+02 
3.389200e-01 3.395312e+02 
3.401600e-01 3.375306e+02 
3.413700e-01 3.356052e+02 
3.425300e-01 3.337818e+02 
3.437700e-01 3.318500e+02 
3.449800e-01 3.299819e+02 
3.461800e-01 3.281456e+02 
3.473600e-01 3.263595e+02 
3.485800e-01 3.245386e+02 
3.498100e-01 3.227190e+02 
3.510200e-01 3.209448e+02 
3.522000e-01 3.192294e+02 
3.533900e-01 3.175142e+02 
3.546400e-01 3.157421e+02 
3.558400e-01 3.140565e+02 
3.570600e-01 3.123575e+02 
3.582700e-01 3.106868e+02 
3.595000e-01 3.090031e+02 
3.607100e-01 3.073684e+02 
3.618900e-01 3.057933e+02 
3.631200e-01 3.041651e+02 
3.643200e-01 3.025901e+02 
3.655500e-01 3.009893e+02 
3.667300e-01 2.994662e+02 
3.679500e-01 2.979186e+02 
3.691900e-01 2.963587e+02 
3.703600e-01 2.948990e+02 
3.715700e-01 2.934016e+02 
3.727700e-01 2.919286e+02 
3.739900e-01 2.904479e+02 
3.752000e-01 2.889998e+02 
3.763900e-01 2.875869e+02 
3.775800e-01 2.861853e+02 
3.788200e-01 2.847365e+02 
3.800300e-01 2.833343e+02 
3.812100e-01 2.819835e+02 
3.824200e-01 2.806132e+02 
3.836100e-01 2.792761e+02 
3.848600e-01 2.778827e+02 
3.860400e-01 2.765778e+02 
3.872400e-01 2.752610e+02 
3.884600e-01 2.739405e+02 
3.896500e-01 2.726653e+02 
3.908700e-01 2.713681e+02 
3.920600e-01 2.701125e+02 
3.933100e-01 2.688038e+02 
3.945300e-01 2.675366e+02 
3.957200e-01 2.663173e+02 
3.969300e-01 2.650890e+02 
3.981700e-01 2.638399e+02 
3.993500e-01 2.626602e+02 
4.094840e-01 2.529005e+02 
4.272360e-01 2.373565e+02 
4.454600e-01 2.230896e+02 
4.630560e-01 2.106860e+02 
4.804610e-01 1.995529e+02 
4.980690e-01 1.892835e+02 
5.159230e-01 1.797669e+02 
5.317440e-01 1.720028e+02 
5.489640e-01 1.642010e+02 
5.671990e-01 1.566031e+02 
5.838690e-01 1.501912e+02 
6.018840e-01 1.437865e+02 
6.202330e-01 1.377748e+02 
6.379250e-01 1.324036e+02 
6.545410e-01 1.277303e+02 
6.714560e-01 1.232876e+02 
6.892080e-01 1.189428e+02 
7.066010e-01 1.149806e+02 
7.240540e-01 1.112585e+02 
7.420450e-01 1.076805e+02 
7.593780e-01 1.044520e+02 
7.764720e-01 1.014560e+02 
7.942840e-01 9.851908e+01 
8.116170e-01 9.583108e+01 
8.288310e-01 9.331346e+01 
8.462240e-01 9.090550e+01 
8.631980e-01 8.867969e+01 
8.810700e-01 8.645585e+01 
8.989410e-01 8.434753e+01 
9.166330e-01 8.236321e+01 
9.345640e-01 8.044936e+01 
9.515980e-01 7.871652e+01 
9.688720e-01 7.703662e+01 
9.865640e-01 7.539167e+01 
1.031870e+00 7.148546e+01 
1.063490e+00 6.899224e+01 
1.097920e+00 6.646851e+01 
1.134370e+00 6.398360e+01 
1.167730e+00 6.186419e+01 
1.203830e+00 5.971260e+01 
1.240470e+00 5.766860e+01 
1.275790e+00 5.581493e+01 
1.309140e+00 5.416377e+01 
1.342970e+00 5.257162e+01 
1.378420e+00 5.099340e+01 
1.413200e+00 4.952189e+01 
1.448110e+00 4.811556e+01 
1.484090e+00 4.673889e+01 
1.518820e+00 4.547090e+01 
1.552880e+00 4.428038e+01 
1.588630e+00 4.308498e+01 
1.623230e+00 4.197953e+01 
1.657720e+00 4.092305e+01 
1.692450e+00 3.990204e+01 
1.726400e+00 3.894123e+01 
1.762200e+00 3.796781e+01 
1.797880e+00 3.703541e+01 
1.833270e+00 3.614656e+01 
1.869070e+00 3.528086e+01 
1.903200e+00 3.448501e+01 
1.937740e+00 3.370794e+01 
1.973190e+00 3.293808e+01 
2.007440e+00 3.221975e+01 
2.042160e+00 3.151541e+01 
2.077900e+00 3.081472e+01 
2.112390e+00 3.016095e+01 
2.146220e+00 2.953934e+01 
2.181600e+00 2.890919e+01 
2.216930e+00 2.830016e+01 
2.250760e+00 2.773497e+01 
2.286500e+00 2.715613e+01 
2.321770e+00 2.660255e+01 
2.355950e+00 2.608141e+01 
2.391280e+00 2.555778e+01 
2.426240e+00 2.505458e+01 
2.460670e+00 2.457348e+01 
2.495640e+00 2.409925e+01 
2.531080e+00 2.363093e+01 
2.566220e+00 2.317955e+01 
2.600830e+00 2.274731e+01 
2.635080e+00 2.233117e+01 
2.670340e+00 2.191289e+01 
2.705970e+00 2.150204e+01 
2.740040e+00 2.111992e+01 
2.774520e+00 2.074254e+01 
2.809730e+00 2.036659e+01 
2.844390e+00 2.000619e+01 
2.879960e+00 1.964532e+01 
2.914860e+00 1.930014e+01 
2.949410e+00 1.896725e+01 
2.984440e+00 1.863709e+01 
3.019760e+00 1.831270e+01 
3.054730e+00 1.799993e+01 
3.089030e+00 1.769893e+01 
3.124060e+00 1.739931e+01 
3.159560e+00 1.710305e+01 
3.194710e+00 1.681615e+01 
3.229010e+00 1.654307e+01 
3.263320e+00 1.627500e+01 
3.297930e+00 1.601118e+01 
3.332830e+00 1.575112e+01 
3.368040e+00 1.549447e+01 
3.403300e+00 1.524331e+01 
3.438450e+00 1.499801e+01 
3.473060e+00 1.476227e+01 
3.508440e+00 1.452593e+01 
3.543110e+00 1.429986e+01 
3.577470e+00 1.407986e+01 
3.613040e+00 1.385738e+01 
3.648120e+00 1.364247e+01 
3.682910e+00 1.343399e+01 
3.718050e+00 1.322753e+01 
3.753320e+00 1.302482e+01 
3.787980e+00 1.282965e+01 
3.822290e+00 1.264041e+01 
3.857020e+00 1.245250e+01 
3.891920e+00 1.226757e+01 
3.926650e+00 1.208700e+01 
3.961970e+00 1.190724e+01 
3.997360e+00 1.173058e+01 
4.031670e+00 1.156294e+01 
4.066330e+00 1.139657e+01 
4.101420e+00 1.123179e+01 
4.136200e+00 1.107121e+01 
4.170810e+00 1.091483e+01 
4.206250e+00 1.075754e+01 
4.241580e+00 1.060401e+01 
4.276300e+00 1.045583e+01 
4.310970e+00 1.031065e+01 
4.346120e+00 1.016634e+01 
4.380600e+00 1.002737e+01 
4.414730e+00 9.892580e+00 
4.450350e+00 9.754160e+00 
4.485320e+00 9.621050e+00 
4.519810e+00 9.492009e+00 
4.555430e+00 9.361240e+00 
4.590870e+00 9.233637e+00 
4.625480e+00 9.111230e+00 
4.659910e+00 8.991819e+00 
4.695230e+00 8.871294e+00 
4.729960e+00 8.755019e+00 
4.764450e+00 8.641595e+00 
4.799530e+00 8.528172e+00 
4.834910e+00 8.415969e+00 
4.869700e+00 8.307492e+00 
4.904370e+00 8.201366e+00 
4.939450e+00 8.095913e+00 
4.973940e+00 7.993964e+00 
5.008430e+00 7.893868e+00 
5.043810e+00 7.792882e+00 
5.078840e+00 7.694619e+00 
5.113500e+00 7.599148e+00 
5.148890e+00 7.503226e+00 
5.184210e+00 7.409216e+00 
5.219060e+00 7.318069e+00 
5.253660e+00 7.229042e+00 
5.288570e+00 7.140786e+00 
5.323420e+00 7.054161e+00 
5.358440e+00 6.968561e+00 
5.393590e+00 6.884131e+00 
5.428310e+00 6.802088e+00 
5.462800e+00 6.721924e+00 
5.497640e+00 6.642309e+00 
5.532670e+00 6.563527e+00 
5.567280e+00 6.486963e+00 
5.602000e+00 6.411427e+00 
5.637270e+00 6.335946e+00 
5.672410e+00 6.261986e+00 
5.707020e+00 6.190335e+00 
5.742040e+00 6.118963e+00 
5.777430e+00 6.048005e+00 
5.812210e+00 5.979401e+00 
5.846820e+00 5.912198e+00 
5.881610e+00 5.845711e+00 
5.916510e+00 5.780070e+00 
5.951600e+00 5.715110e+00 
5.986560e+00 5.651408e+00 
6.021830e+00 5.588150e+00 
6.056490e+00 5.526970e+00 
6.091160e+00 5.466726e+00 
6.125830e+00 5.407402e+00 
6.161090e+00 5.348002e+00 
6.195760e+00 5.290509e+00 
6.230420e+00 5.233896e+00 
6.265690e+00 5.177156e+00 
6.300950e+00 5.121316e+00 
6.335620e+00 5.067230e+00 
6.370880e+00 5.013040e+00 
6.405550e+00 4.960593e+00 
6.440220e+00 4.908930e+00 
6.475480e+00 4.857156e+00 
6.510150e+00 4.806999e+00 
6.544810e+00 4.757596e+00 
6.580080e+00 4.708048e+00 
6.614750e+00 4.660041e+00 
6.649410e+00 4.612824e+00 
6.684080e+00 4.566277e+00 
6.719340e+00 4.519607e+00 
6.754010e+00 4.474378e+00 
6.788680e+00 4.429811e+00 
6.823940e+00 4.385117e+00 
6.859800e+00 4.340304e+00 
6.894470e+00 4.297648e+00 
6.929140e+00 4.255596e+00 
6.963800e+00 4.214126e+00 
6.999070e+00 4.172505e+00 
7.033730e+00 4.132218e+00 
7.068400e+00 4.092457e+00 
7.103660e+00 4.052563e+00 
7.138330e+00 4.013896e+00 
7.173600e+00 3.975159e+00 
7.208260e+00 3.937596e+00 
7.243530e+00 3.899874e+00 
7.277600e+00 3.863958e+00 
7.312860e+00 3.827313e+00 
7.348120e+00 3.791148e+00 
7.382790e+00 3.756048e+00 
7.417460e+00 3.721454e+00 
7.452720e+00 3.686752e+00 
7.487390e+00 3.653066e+00 
7.522650e+00 3.619242e+00 
7.557320e+00 3.586472e+00 
7.591990e+00 3.554137e+00 
7.627250e+00 3.521663e+00 
7.662510e+00 3.489598e+00 
7.697180e+00 3.458532e+00 
7.731850e+00 3.427875e+00 
7.766510e+00 3.397601e+00 
7.801180e+00 3.367687e+00 
7.836440e+00 3.337709e+00 
7.871110e+00 3.308637e+00 
7.906380e+00 3.279420e+00 
7.941040e+00 3.251054e+00 
7.976310e+00 3.222569e+00 
8.011570e+00 3.194476e+00 
8.046240e+00 3.167181e+00 
8.080900e+00 3.140215e+00 
8.115570e+00 3.113579e+00 
8.150830e+00 3.086890e+00 
8.185500e+00 3.060955e+00 
8.220770e+00 3.034878e+00 
8.255430e+00 3.009550e+00 
8.290100e+00 2.984582e+00 
8.324770e+00 2.959907e+00 
8.359430e+00 2.935520e+00 
8.394700e+00 2.910987e+00 
8.429960e+00 2.886796e+00 
8.464630e+00 2.863334e+00 
8.499890e+00 2.839741e+00 
8.534560e+00 2.816803e+00 
8.569200e+00 2.794140e+00 
