# Parameters:
# omega_b = 0.021768, omega_m = 0.121654, n_s = 0.968110, h = 75.787402, w = -1.000000, sigma_8 = 0.736220
# z = 1.100000
#
# k[1/Mpc] # P(k):
8.694000e-04 6.611908e+03 
2.077466e-03 1.390024e+04 
3.285532e-03 1.937356e+04 
4.493598e-03 2.337483e+04 
5.701664e-03 2.617395e+04 
6.909730e-03 2.799738e+04 
8.117797e-03 2.908017e+04 
9.325863e-03 2.954518e+04 
1.053393e-02 2.951201e+04 
1.174199e-02 2.908829e+04 
1.295006e-02 2.834268e+04 
1.415813e-02 2.736374e+04 
1.536619e-02 2.622537e+04 
1.657426e-02 2.497799e+04 
1.778233e-02 2.366333e+04 
1.899039e-02 2.233949e+04 
2.019846e-02 2.104194e+04 
2.140652e-02 1.980383e+04 
2.261459e-02 1.863936e+04 
2.382266e-02 1.756316e+04 
2.503072e-02 1.658319e+04 
2.623879e-02 1.569967e+04 
2.744685e-02 1.491281e+04 
2.865492e-02 1.421683e+04 
2.986299e-02 1.360445e+04 
3.100100e-02 1.310022e+04 
3.220400e-02 1.263461e+04 
3.288100e-02 1.240159e+04 
3.424300e-02 1.198464e+04 
3.555100e-02 1.163733e+04 
3.686000e-02 1.133258e+04 
3.795000e-02 1.110300e+04 
3.929100e-02 1.084276e+04 
4.039800e-02 1.063822e+04 
4.164000e-02 1.041418e+04 
4.294400e-02 1.017346e+04 
4.415000e-02 9.947513e+03 
4.542900e-02 9.692176e+03 
4.660900e-02 9.448941e+03 
4.782300e-02 9.177629e+03 
4.892900e-02 8.922542e+03 
5.031200e-02 8.589691e+03 
5.155900e-02 8.277856e+03 
5.238100e-02 8.069197e+03 
5.378200e-02 7.711454e+03 
5.513400e-02 7.366770e+03 
5.627600e-02 7.080323e+03 
5.735300e-02 6.817555e+03 
5.870100e-02 6.501897e+03 
5.988700e-02 6.239294e+03 
6.113500e-02 5.979715e+03 
6.225900e-02 5.762511e+03 
6.340100e-02 5.558935e+03 
6.480200e-02 5.331376e+03 
6.601100e-02 5.156968e+03 
6.725500e-02 4.997291e+03 
6.829100e-02 4.880693e+03 
6.958600e-02 4.750591e+03 
7.071100e-02 4.652711e+03 
7.192300e-02 4.560316e+03 
7.307400e-02 4.483462e+03 
7.412300e-02 4.421166e+03 
7.550400e-02 4.349123e+03 
7.663100e-02 4.295774e+03 
7.791200e-02 4.240037e+03 
7.912700e-02 4.188939e+03 
8.027600e-02 4.140512e+03 
8.138400e-02 4.092776e+03 
8.272200e-02 4.032263e+03 
8.406100e-02 3.967452e+03 
8.534100e-02 3.899016e+03 
8.653800e-02 3.829123e+03 
8.759800e-02 3.763955e+03 
8.900300e-02 3.672329e+03 
9.009000e-02 3.597160e+03 
9.113300e-02 3.521694e+03 
9.239600e-02 3.428875e+03 
9.358000e-02 3.340015e+03 
9.496100e-02 3.234992e+03 
9.608400e-02 3.150680e+03 
9.727500e-02 3.062918e+03 
9.852600e-02 2.972944e+03 
9.973800e-02 2.889508e+03 
1.009000e-01 2.812784e+03 
1.020900e-01 2.739989e+03 
1.034000e-01 2.664815e+03 
1.046000e-01 2.600650e+03 
1.057200e-01 2.547426e+03 
1.069100e-01 2.494395e+03 
1.082500e-01 2.442130e+03 
1.093900e-01 2.402549e+03 
1.105400e-01 2.365740e+03 
1.116900e-01 2.334522e+03 
1.129600e-01 2.302409e+03 
1.142000e-01 2.275309e+03 
1.153300e-01 2.252137e+03 
1.166400e-01 2.227366e+03 
1.177800e-01 2.206606e+03 
1.190000e-01 2.185053e+03 
1.201200e-01 2.164422e+03 
1.213400e-01 2.142249e+03 
1.227100e-01 2.114488e+03 
1.238900e-01 2.090252e+03 
1.250700e-01 2.063497e+03 
1.263200e-01 2.034513e+03 
1.275500e-01 2.003765e+03 
1.287500e-01 1.973061e+03 
1.299900e-01 1.939850e+03 
1.311300e-01 1.908977e+03 
1.323500e-01 1.875119e+03 
1.335900e-01 1.840928e+03 
1.347100e-01 1.809948e+03 
1.359800e-01 1.775495e+03 
1.372100e-01 1.742617e+03 
1.384300e-01 1.710932e+03 
1.395700e-01 1.682307e+03 
1.407700e-01 1.652969e+03 
1.420300e-01 1.623914e+03 
1.432800e-01 1.595781e+03 
1.444500e-01 1.571443e+03 
1.456300e-01 1.547427e+03 
1.468900e-01 1.523586e+03 
1.480500e-01 1.502474e+03 
1.491700e-01 1.483117e+03 
1.503800e-01 1.463412e+03 
1.516400e-01 1.443550e+03 
1.528200e-01 1.426337e+03 
1.540200e-01 1.409171e+03 
1.551900e-01 1.393479e+03 
1.564300e-01 1.377343e+03 
1.576600e-01 1.361871e+03 
1.588700e-01 1.347209e+03 
1.600900e-01 1.332706e+03 
1.612700e-01 1.318993e+03 
1.625400e-01 1.304508e+03 
1.637600e-01 1.290644e+03 
1.649500e-01 1.277242e+03 
1.662200e-01 1.263105e+03 
1.674000e-01 1.249671e+03 
1.685000e-01 1.237359e+03 
1.697500e-01 1.223218e+03 
1.710300e-01 1.208615e+03 
1.722200e-01 1.195285e+03 
1.734400e-01 1.181090e+03 
1.746400e-01 1.167345e+03 
1.758700e-01 1.153316e+03 
1.770900e-01 1.139262e+03 
1.782700e-01 1.125908e+03 
1.794600e-01 1.112475e+03 
1.807000e-01 1.098592e+03 
1.819100e-01 1.085285e+03 
1.830100e-01 1.073355e+03 
1.842200e-01 1.060444e+03 
1.855000e-01 1.047037e+03 
1.867000e-01 1.034881e+03 
1.879200e-01 1.022732e+03 
1.890900e-01 1.011333e+03 
1.902800e-01 1.000228e+03 
1.915200e-01 9.888484e+02 
1.926900e-01 9.783860e+02 
1.939000e-01 9.680641e+02 
1.951700e-01 9.574077e+02 
1.963100e-01 9.480913e+02 
1.975100e-01 9.386953e+02 
1.987800e-01 9.289086e+02 
2.000100e-01 9.196657e+02 
2.012500e-01 9.106892e+02 
2.023400e-01 9.029135e+02 
2.036100e-01 8.940140e+02 
2.048900e-01 8.852923e+02 
2.060400e-01 8.775728e+02 
2.072200e-01 8.697653e+02 
2.084200e-01 8.619531e+02 
2.096900e-01 8.538079e+02 
2.109200e-01 8.460370e+02 
2.121100e-01 8.385376e+02 
2.132700e-01 8.313244e+02 
2.145200e-01 8.236620e+02 
2.157200e-01 8.163225e+02 
2.168800e-01 8.092844e+02 
2.180700e-01 8.021631e+02 
2.193400e-01 7.946175e+02 
2.206000e-01 7.871410e+02 
2.217500e-01 7.804119e+02 
2.229500e-01 7.734849e+02 
2.241400e-01 7.665871e+02 
2.253500e-01 7.596661e+02 
2.264900e-01 7.532326e+02 
2.277100e-01 7.463980e+02 
2.289900e-01 7.392825e+02 
2.301500e-01 7.329223e+02 
2.313600e-01 7.263754e+02 
2.325600e-01 7.199290e+02 
2.337700e-01 7.135157e+02 
2.350000e-01 7.070841e+02 
2.362000e-01 7.008956e+02 
2.374100e-01 6.947408e+02 
2.386500e-01 6.885173e+02 
2.399100e-01 6.822789e+02 
2.410400e-01 6.767847e+02 
2.422500e-01 6.709789e+02 
2.435000e-01 6.650595e+02 
2.447300e-01 6.593237e+02 
2.458700e-01 6.541237e+02 
2.470600e-01 6.487617e+02 
2.483300e-01 6.431124e+02 
2.495600e-01 6.377406e+02 
2.507600e-01 6.326047e+02 
2.519600e-01 6.275316e+02 
2.532200e-01 6.222715e+02 
2.543700e-01 6.175724e+02 
2.555500e-01 6.128364e+02 
2.568000e-01 6.078802e+02 
2.580100e-01 6.031413e+02 
2.592400e-01 5.984282e+02 
2.604100e-01 5.940180e+02 
2.616100e-01 5.895470e+02 
2.628400e-01 5.850183e+02 
2.640600e-01 5.806149e+02 
2.652200e-01 5.764899e+02 
2.664300e-01 5.722358e+02 
2.676500e-01 5.679961e+02 
2.688400e-01 5.639296e+02 
2.700700e-01 5.597878e+02 
2.712400e-01 5.558923e+02 
2.724800e-01 5.518102e+02 
2.736700e-01 5.479475e+02 
2.748800e-01 5.440744e+02 
2.761000e-01 5.402129e+02 
2.773200e-01 5.363945e+02 
2.785400e-01 5.326215e+02 
2.797000e-01 5.290790e+02 
2.808900e-01 5.254835e+02 
2.821400e-01 5.217482e+02 
2.833900e-01 5.180545e+02 
2.845500e-01 5.146626e+02 
2.857800e-01 5.111042e+02 
2.870300e-01 5.075276e+02 
2.882100e-01 5.041873e+02 
2.893900e-01 5.008809e+02 
2.906300e-01 4.974426e+02 
2.918900e-01 4.939869e+02 
2.930500e-01 4.908388e+02 
2.942500e-01 4.876147e+02 
2.954200e-01 4.845013e+02 
2.966500e-01 4.812620e+02 
2.978900e-01 4.780307e+02 
2.990400e-01 4.750644e+02 
3.002700e-01 4.719227e+02 
3.015100e-01 4.687879e+02 
3.026800e-01 4.658600e+02 
3.038500e-01 4.629608e+02 
3.050300e-01 4.600654e+02 
3.062600e-01 4.570795e+02 
3.075000e-01 4.541001e+02 
3.087000e-01 4.512457e+02 
3.099100e-01 4.483960e+02 
3.111200e-01 4.455773e+02 
3.123100e-01 4.428368e+02 
3.135300e-01 4.400547e+02 
3.147300e-01 4.373450e+02 
3.159900e-01 4.345279e+02 
3.171800e-01 4.318992e+02 
3.183700e-01 4.292991e+02 
3.196300e-01 4.265729e+02 
3.208400e-01 4.239804e+02 
3.220300e-01 4.214550e+02 
3.232000e-01 4.190028e+02 
3.244300e-01 4.164522e+02 
3.256700e-01 4.139055e+02 
3.269200e-01 4.113632e+02 
3.280800e-01 4.090259e+02 
3.292500e-01 4.066999e+02 
3.304800e-01 4.042803e+02 
3.317100e-01 4.018835e+02 
3.328900e-01 3.996052e+02 
3.340700e-01 3.973474e+02 
3.353600e-01 3.949131e+02 
3.365300e-01 3.927299e+02 
3.377100e-01 3.905474e+02 
3.389200e-01 3.883294e+02 
3.401600e-01 3.860771e+02 
3.413700e-01 3.839095e+02 
3.425300e-01 3.818567e+02 
3.437700e-01 3.796817e+02 
3.449800e-01 3.775784e+02 
3.461800e-01 3.755107e+02 
3.473600e-01 3.734994e+02 
3.485800e-01 3.714484e+02 
3.498100e-01 3.693988e+02 
3.510200e-01 3.674002e+02 
3.522000e-01 3.654679e+02 
3.533900e-01 3.635356e+02 
3.546400e-01 3.615375e+02 
3.558400e-01 3.596367e+02 
3.570600e-01 3.577207e+02 
3.582700e-01 3.558367e+02 
3.595000e-01 3.539379e+02 
3.607100e-01 3.520931e+02 
3.618900e-01 3.503146e+02 
3.631200e-01 3.484761e+02 
3.643200e-01 3.466976e+02 
3.655500e-01 3.448899e+02 
3.667300e-01 3.431700e+02 
3.679500e-01 3.414194e+02 
3.691900e-01 3.396551e+02 
3.703600e-01 3.380040e+02 
3.715700e-01 3.363101e+02 
3.727700e-01 3.346439e+02 
3.739900e-01 3.329679e+02 
3.752000e-01 3.313267e+02 
3.763900e-01 3.297255e+02 
3.775800e-01 3.281370e+02 
3.788200e-01 3.264950e+02 
3.800300e-01 3.249058e+02 
3.812100e-01 3.233731e+02 
3.824200e-01 3.218170e+02 
3.836100e-01 3.202988e+02 
3.848600e-01 3.187166e+02 
3.860400e-01 3.172348e+02 
3.872400e-01 3.157395e+02 
3.884600e-01 3.142377e+02 
3.896500e-01 3.127868e+02 
3.908700e-01 3.113107e+02 
3.920600e-01 3.098820e+02 
3.933100e-01 3.083930e+02 
3.945300e-01 3.069510e+02 
3.957200e-01 3.055615e+02 
3.969300e-01 3.041612e+02 
3.981700e-01 3.027372e+02 
3.993500e-01 3.013923e+02 
4.094840e-01 2.902562e+02 
4.272360e-01 2.724747e+02 
4.454600e-01 2.561351e+02 
4.630560e-01 2.419285e+02 
4.804610e-01 2.291886e+02 
4.980690e-01 2.174550e+02 
5.159230e-01 2.066000e+02 
5.317440e-01 1.977568e+02 
5.489640e-01 1.888806e+02 
5.671990e-01 1.802463e+02 
5.838690e-01 1.729631e+02 
6.018840e-01 1.656877e+02 
6.202330e-01 1.588556e+02 
6.379250e-01 1.527503e+02 
6.545410e-01 1.474315e+02 
6.714560e-01 1.423699e+02 
6.892080e-01 1.374157e+02 
7.066010e-01 1.328892e+02 
7.240540e-01 1.286336e+02 
7.420450e-01 1.245336e+02 
7.593780e-01 1.208279e+02 
7.764720e-01 1.173843e+02 
7.942840e-01 1.140042e+02 
8.116170e-01 1.109044e+02 
8.288310e-01 1.079955e+02 
8.462240e-01 1.052097e+02 
8.631980e-01 1.026296e+02 
8.810700e-01 1.000489e+02 
8.989410e-01 9.759847e+01 
9.166330e-01 9.528908e+01 
9.345640e-01 9.305930e+01 
9.515980e-01 9.103654e+01 
9.688720e-01 8.907327e+01 
9.865640e-01 8.714827e+01 
1.031870e+00 8.257058e+01 
1.063490e+00 7.964253e+01 
1.097920e+00 7.667436e+01 
1.134370e+00 7.374838e+01 
1.167730e+00 7.124927e+01 
1.203830e+00 6.871049e+01 
1.240470e+00 6.629693e+01 
1.275790e+00 6.410675e+01 
1.309140e+00 6.215583e+01 
1.342970e+00 6.027432e+01 
1.378420e+00 5.840851e+01 
1.413200e+00 5.666909e+01 
1.448110e+00 5.500786e+01 
1.484090e+00 5.338103e+01 
1.518820e+00 5.188373e+01 
1.552880e+00 5.047881e+01 
1.588630e+00 4.906926e+01 
1.623230e+00 4.776576e+01 
1.657720e+00 4.652053e+01 
1.692450e+00 4.531876e+01 
1.726400e+00 4.418841e+01 
1.762200e+00 4.304353e+01 
1.797880e+00 4.194852e+01 
1.833270e+00 4.090472e+01 
1.869070e+00 3.988900e+01 
1.903200e+00 3.895646e+01 
1.937740e+00 3.804652e+01 
1.973190e+00 3.714549e+01 
2.007440e+00 3.630575e+01 
2.042160e+00 3.548337e+01 
2.077900e+00 3.466546e+01 
2.112390e+00 3.390347e+01 
2.146220e+00 3.317906e+01 
2.181600e+00 3.244573e+01 
2.216930e+00 3.173765e+01 
2.250760e+00 3.108101e+01 
2.286500e+00 3.040897e+01 
2.321770e+00 2.976679e+01 
2.355950e+00 2.916309e+01 
2.391280e+00 2.855691e+01 
2.426240e+00 2.797504e+01 
2.460670e+00 2.741920e+01 
2.495640e+00 2.687160e+01 
2.531080e+00 2.633123e+01 
2.566220e+00 2.581095e+01 
2.600830e+00 2.531324e+01 
2.635080e+00 2.483454e+01 
2.670340e+00 2.435413e+01 
2.705970e+00 2.388243e+01 
2.740040e+00 2.344387e+01 
2.774520e+00 2.301095e+01 
2.809730e+00 2.258034e+01 
2.844390e+00 2.216796e+01 
2.879960e+00 2.175551e+01 
2.914860e+00 2.136111e+01 
2.949410e+00 2.098097e+01 
2.984440e+00 2.060457e+01 
3.019760e+00 2.023481e+01 
3.054730e+00 1.987839e+01 
3.089030e+00 1.953610e+01 
3.124060e+00 1.919546e+01 
3.159560e+00 1.885873e+01 
3.194710e+00 1.853308e+01 
3.229010e+00 1.822332e+01 
3.263320e+00 1.791970e+01 
3.297930e+00 1.762097e+01 
3.332830e+00 1.732660e+01 
3.368040e+00 1.703636e+01 
3.403300e+00 1.675254e+01 
3.438450e+00 1.647570e+01 
3.473060e+00 1.620976e+01 
3.508440e+00 1.594336e+01 
3.543110e+00 1.568864e+01 
3.577470e+00 1.544111e+01 
3.613040e+00 1.519087e+01 
3.648120e+00 1.494922e+01 
3.682910e+00 1.471496e+01 
3.718050e+00 1.448322e+01 
3.753320e+00 1.425581e+01 
3.787980e+00 1.403703e+01 
3.822290e+00 1.382503e+01 
3.857020e+00 1.361467e+01 
3.891920e+00 1.340777e+01 
3.926650e+00 1.320591e+01 
3.961970e+00 1.300507e+01 
3.997360e+00 1.280783e+01 
4.031670e+00 1.262074e+01 
4.066330e+00 1.243524e+01 
4.101420e+00 1.225155e+01 
4.136200e+00 1.207270e+01 
4.170810e+00 1.189857e+01 
4.206250e+00 1.172353e+01 
4.241580e+00 1.155270e+01 
4.276300e+00 1.138800e+01 
4.310970e+00 1.122675e+01 
4.346120e+00 1.106652e+01 
4.380600e+00 1.091232e+01 
4.414730e+00 1.076278e+01 
4.450350e+00 1.060937e+01 
4.485320e+00 1.046186e+01 
4.519810e+00 1.031899e+01 
4.555430e+00 1.017426e+01 
4.590870e+00 1.003309e+01 
4.625480e+00 9.897755e+00 
4.659910e+00 9.765749e+00 
4.695230e+00 9.632634e+00 
4.729960e+00 9.504245e+00 
4.764450e+00 9.379064e+00 
4.799530e+00 9.253969e+00 
4.834910e+00 9.130235e+00 
4.869700e+00 9.010695e+00 
4.904370e+00 8.893769e+00 
4.939450e+00 8.777625e+00 
4.973940e+00 8.665420e+00 
5.008430e+00 8.555266e+00 
5.043810e+00 8.444190e+00 
5.078840e+00 8.336146e+00 
5.113500e+00 8.231182e+00 
5.148890e+00 8.125835e+00 
5.184210e+00 8.022603e+00 
5.219060e+00 7.922538e+00 
5.253660e+00 7.824854e+00 
5.288570e+00 7.728024e+00 
5.323420e+00 7.633019e+00 
5.358440e+00 7.539177e+00 
5.393590e+00 7.446626e+00 
5.428310e+00 7.356748e+00 
5.462800e+00 7.268962e+00 
5.497640e+00 7.181785e+00 
5.532670e+00 7.095575e+00 
5.567280e+00 7.011816e+00 
5.602000e+00 6.929188e+00 
5.637270e+00 6.846659e+00 
5.672410e+00 6.765809e+00 
5.707020e+00 6.687488e+00 
5.742040e+00 6.609526e+00 
5.777430e+00 6.532031e+00 
5.812210e+00 6.457112e+00 
5.846820e+00 6.383761e+00 
5.881610e+00 6.311205e+00 
5.916510e+00 6.239577e+00 
5.951600e+00 6.168725e+00 
5.986560e+00 6.099263e+00 
6.021830e+00 6.030290e+00 
6.056490e+00 5.963606e+00 
6.091160e+00 5.897962e+00 
6.125830e+00 5.833324e+00 
6.161090e+00 5.768619e+00 
6.195760e+00 5.706020e+00 
6.230420e+00 5.644382e+00 
6.265690e+00 5.582612e+00 
6.300950e+00 5.521853e+00 
6.335620e+00 5.463006e+00 
6.370880e+00 5.404050e+00 
6.405550e+00 5.347010e+00 
6.440220e+00 5.290833e+00 
6.475480e+00 5.234539e+00 
6.510150e+00 5.180014e+00 
6.544810e+00 5.126329e+00 
6.580080e+00 5.072490e+00 
6.614750e+00 5.020328e+00 
6.649410e+00 4.969043e+00 
6.684080e+00 4.918491e+00 
6.719340e+00 4.867807e+00 
6.754010e+00 4.818700e+00 
6.788680e+00 4.770333e+00 
6.823940e+00 4.721830e+00 
6.859800e+00 4.673199e+00 
6.894470e+00 4.626921e+00 
6.929140e+00 4.581305e+00 
6.963800e+00 4.536321e+00 
6.999070e+00 4.491176e+00 
7.033730e+00 4.447492e+00 
7.068400e+00 4.404380e+00 
7.103660e+00 4.361125e+00 
7.138330e+00 4.319208e+00 
7.173600e+00 4.277226e+00 
7.208260e+00 4.236516e+00 
7.243530e+00 4.195638e+00 
7.277600e+00 4.156726e+00 
7.312860e+00 4.117035e+00 
7.348120e+00 4.077864e+00 
7.382790e+00 4.039849e+00 
7.417460e+00 4.002389e+00 
7.452720e+00 3.964818e+00 
7.487390e+00 3.928347e+00 
7.522650e+00 3.891729e+00 
7.557320e+00 3.856260e+00 
7.591990e+00 3.821264e+00 
7.627250e+00 3.786120e+00 
7.662510e+00 3.751420e+00 
7.697180e+00 3.717808e+00 
7.731850e+00 3.684642e+00 
7.766510e+00 3.651891e+00 
7.801180e+00 3.619530e+00 
7.836440e+00 3.587104e+00 
7.871110e+00 3.555660e+00 
7.906380e+00 3.524059e+00 
7.941040e+00 3.493380e+00 
7.976310e+00 3.462579e+00 
8.011570e+00 3.432208e+00 
8.046240e+00 3.402701e+00 
8.080900e+00 3.373550e+00 
8.115570e+00 3.344756e+00 
8.150830e+00 3.315908e+00 
8.185500e+00 3.287874e+00 
8.220770e+00 3.259689e+00 
8.255430e+00 3.232314e+00 
8.290100e+00 3.205338e+00 
8.324770e+00 3.178682e+00 
8.359430e+00 3.152337e+00 
8.394700e+00 3.125835e+00 
8.429960e+00 3.099703e+00 
8.464630e+00 3.074360e+00 
8.499890e+00 3.048876e+00 
8.534560e+00 3.024101e+00 
8.569200e+00 2.999623e+00 
