# Parameters:
# omega_b = 0.021563, omega_m = 0.132953, n_s = 0.957087, h = 83.582677, w = -1.000000, sigma_8 = 0.892126
# z = 1.100000
#
# k[1/Mpc] # P(k):
8.694000e-04 6.987675e+03 
2.077466e-03 1.469503e+04 
3.285532e-03 2.059719e+04 
4.493598e-03 2.502815e+04 
5.701664e-03 2.823223e+04 
6.909730e-03 3.042553e+04 
8.117797e-03 3.184028e+04 
9.325863e-03 3.259701e+04 
1.053393e-02 3.281389e+04 
1.174199e-02 3.259805e+04 
1.295006e-02 3.201903e+04 
1.415813e-02 3.116806e+04 
1.536619e-02 3.011983e+04 
1.657426e-02 2.891824e+04 
1.778233e-02 2.755978e+04 
1.899039e-02 2.607423e+04 
2.019846e-02 2.459128e+04 
2.140652e-02 2.320856e+04 
2.261459e-02 2.191912e+04 
2.382266e-02 2.072047e+04 
2.503072e-02 1.962001e+04 
2.623879e-02 1.861983e+04 
2.744685e-02 1.772153e+04 
2.865492e-02 1.692152e+04 
2.986299e-02 1.621334e+04 
3.100100e-02 1.562712e+04 
3.220400e-02 1.508392e+04 
3.288100e-02 1.481166e+04 
3.424300e-02 1.432485e+04 
3.555100e-02 1.392092e+04 
3.686000e-02 1.356919e+04 
3.795000e-02 1.330682e+04 
3.929100e-02 1.301381e+04 
4.039800e-02 1.278665e+04 
4.164000e-02 1.254030e+04 
4.294400e-02 1.227820e+04 
4.415000e-02 1.203269e+04 
4.542900e-02 1.175449e+04 
4.660900e-02 1.148804e+04 
4.782300e-02 1.118763e+04 
4.892900e-02 1.090263e+04 
5.031200e-02 1.052652e+04 
5.155900e-02 1.016970e+04 
5.238100e-02 9.928730e+03 
5.378200e-02 9.511745e+03 
5.513400e-02 9.104994e+03 
5.627600e-02 8.763125e+03 
5.735300e-02 8.446337e+03 
5.870100e-02 8.061332e+03 
5.988700e-02 7.737253e+03 
6.113500e-02 7.413507e+03 
6.225900e-02 7.140197e+03 
6.340100e-02 6.882622e+03 
6.480200e-02 6.594001e+03 
6.601100e-02 6.372807e+03 
6.725500e-02 6.170925e+03 
6.829100e-02 6.024101e+03 
6.958600e-02 5.860923e+03 
7.071100e-02 5.738706e+03 
7.192300e-02 5.623736e+03 
7.307400e-02 5.528434e+03 
7.412300e-02 5.451453e+03 
7.550400e-02 5.362907e+03 
7.663100e-02 5.297717e+03 
7.791200e-02 5.230399e+03 
7.912700e-02 5.169580e+03 
8.027600e-02 5.112679e+03 
8.138400e-02 5.057225e+03 
8.272200e-02 4.987759e+03 
8.406100e-02 4.914093e+03 
8.534100e-02 4.836889e+03 
8.653800e-02 4.758244e+03 
8.759800e-02 4.684888e+03 
8.900300e-02 4.581535e+03 
9.009000e-02 4.496383e+03 
9.113300e-02 4.410348e+03 
9.239600e-02 4.303935e+03 
9.358000e-02 4.201244e+03 
9.496100e-02 4.078474e+03 
9.608400e-02 3.978999e+03 
9.727500e-02 3.874700e+03 
9.852600e-02 3.765973e+03 
9.973800e-02 3.664284e+03 
1.009000e-01 3.570064e+03 
1.020900e-01 3.479072e+03 
1.034000e-01 3.384402e+03 
1.046000e-01 3.302864e+03 
1.057200e-01 3.234189e+03 
1.069100e-01 3.165426e+03 
1.082500e-01 3.096750e+03 
1.093900e-01 3.044340e+03 
1.105400e-01 2.995348e+03 
1.116900e-01 2.953486e+03 
1.129600e-01 2.910388e+03 
1.142000e-01 2.874104e+03 
1.153300e-01 2.843310e+03 
1.166400e-01 2.810762e+03 
1.177800e-01 2.784141e+03 
1.190000e-01 2.756816e+03 
1.201200e-01 2.731638e+03 
1.213400e-01 2.704747e+03 
1.227100e-01 2.672307e+03 
1.238900e-01 2.644165e+03 
1.250700e-01 2.613611e+03 
1.263200e-01 2.580595e+03 
1.275500e-01 2.545743e+03 
1.287500e-01 2.510887e+03 
1.299900e-01 2.473108e+03 
1.311300e-01 2.437792e+03 
1.323500e-01 2.398789e+03 
1.335900e-01 2.359092e+03 
1.347100e-01 2.322744e+03 
1.359800e-01 2.282017e+03 
1.372100e-01 2.242587e+03 
1.384300e-01 2.204322e+03 
1.395700e-01 2.169163e+03 
1.407700e-01 2.133040e+03 
1.420300e-01 2.096511e+03 
1.432800e-01 2.061130e+03 
1.444500e-01 2.029904e+03 
1.456300e-01 1.999090e+03 
1.468900e-01 1.968205e+03 
1.480500e-01 1.940764e+03 
1.491700e-01 1.915549e+03 
1.503800e-01 1.889810e+03 
1.516400e-01 1.863890e+03 
1.528200e-01 1.841521e+03 
1.540200e-01 1.819215e+03 
1.551900e-01 1.799065e+03 
1.564300e-01 1.778406e+03 
1.576600e-01 1.758772e+03 
1.588700e-01 1.740380e+03 
1.600900e-01 1.722206e+03 
1.612700e-01 1.705388e+03 
1.625400e-01 1.687621e+03 
1.637600e-01 1.670782e+03 
1.649500e-01 1.654599e+03 
1.662200e-01 1.637547e+03 
1.674000e-01 1.621459e+03 
1.685000e-01 1.606712e+03 
1.697500e-01 1.589760e+03 
1.710300e-01 1.572241e+03 
1.722200e-01 1.556244e+03 
1.734400e-01 1.539091e+03 
1.746400e-01 1.522471e+03 
1.758700e-01 1.505446e+03 
1.770900e-01 1.488273e+03 
1.782700e-01 1.471949e+03 
1.794600e-01 1.455421e+03 
1.807000e-01 1.438265e+03 
1.819100e-01 1.421817e+03 
1.830100e-01 1.406941e+03 
1.842200e-01 1.390817e+03 
1.855000e-01 1.374062e+03 
1.867000e-01 1.358757e+03 
1.879200e-01 1.343457e+03 
1.890900e-01 1.329084e+03 
1.902800e-01 1.315015e+03 
1.915200e-01 1.300595e+03 
1.926900e-01 1.287326e+03 
1.939000e-01 1.274204e+03 
1.951700e-01 1.260655e+03 
1.963100e-01 1.248805e+03 
1.975100e-01 1.236848e+03 
1.987800e-01 1.224392e+03 
2.000100e-01 1.212633e+03 
2.012500e-01 1.201228e+03 
2.023400e-01 1.191347e+03 
2.036100e-01 1.180046e+03 
2.048900e-01 1.169003e+03 
2.060400e-01 1.159227e+03 
2.072200e-01 1.149342e+03 
2.084200e-01 1.139498e+03 
2.096900e-01 1.129233e+03 
2.109200e-01 1.119438e+03 
2.121100e-01 1.110038e+03 
2.132700e-01 1.100999e+03 
2.145200e-01 1.091395e+03 
2.157200e-01 1.082242e+03 
2.168800e-01 1.073484e+03 
2.180700e-01 1.064622e+03 
2.193400e-01 1.055257e+03 
2.206000e-01 1.046025e+03 
2.217500e-01 1.037715e+03 
2.229500e-01 1.029158e+03 
2.241400e-01 1.020727e+03 
2.253500e-01 1.012268e+03 
2.264900e-01 1.004402e+03 
2.277100e-01 9.960927e+02 
2.289900e-01 9.874924e+02 
2.301500e-01 9.798022e+02 
2.313600e-01 9.718843e+02 
2.325600e-01 9.641905e+02 
2.337700e-01 9.565329e+02 
2.350000e-01 9.488502e+02 
2.362000e-01 9.414995e+02 
2.374100e-01 9.342386e+02 
2.386500e-01 9.268931e+02 
2.399100e-01 9.195265e+02 
2.410400e-01 9.130942e+02 
2.422500e-01 9.063012e+02 
2.435000e-01 8.993720e+02 
2.447300e-01 8.926612e+02 
2.458700e-01 8.866015e+02 
2.470600e-01 8.803502e+02 
2.483300e-01 8.737608e+02 
2.495600e-01 8.674885e+02 
2.507600e-01 8.614840e+02 
2.519600e-01 8.555505e+02 
2.532200e-01 8.493954e+02 
2.543700e-01 8.438677e+02 
2.555500e-01 8.382761e+02 
2.568000e-01 8.324223e+02 
2.580100e-01 8.268228e+02 
2.592400e-01 8.212014e+02 
2.604100e-01 8.159172e+02 
2.616100e-01 8.105583e+02 
2.628400e-01 8.051284e+02 
2.640600e-01 7.997869e+02 
2.652200e-01 7.947577e+02 
2.664300e-01 7.895695e+02 
2.676500e-01 7.843973e+02 
2.688400e-01 7.793880e+02 
2.700700e-01 7.742552e+02 
2.712400e-01 7.694263e+02 
2.724800e-01 7.643646e+02 
2.736700e-01 7.595428e+02 
2.748800e-01 7.546747e+02 
2.761000e-01 7.498201e+02 
2.773200e-01 7.450185e+02 
2.785400e-01 7.402590e+02 
2.797000e-01 7.357601e+02 
2.808900e-01 7.311930e+02 
2.821400e-01 7.264471e+02 
2.833900e-01 7.217521e+02 
2.845500e-01 7.174155e+02 
2.857800e-01 7.128650e+02 
2.870300e-01 7.082903e+02 
2.882100e-01 7.040170e+02 
2.893900e-01 6.997774e+02 
2.906300e-01 6.953632e+02 
2.918900e-01 6.909257e+02 
2.930500e-01 6.868823e+02 
2.942500e-01 6.827391e+02 
2.954200e-01 6.787329e+02 
2.966500e-01 6.745636e+02 
2.978900e-01 6.704038e+02 
2.990400e-01 6.665844e+02 
3.002700e-01 6.625374e+02 
3.015100e-01 6.584981e+02 
3.026800e-01 6.547246e+02 
3.038500e-01 6.509873e+02 
3.050300e-01 6.472543e+02 
3.062600e-01 6.434043e+02 
3.075000e-01 6.395618e+02 
3.087000e-01 6.358799e+02 
3.099100e-01 6.322033e+02 
3.111200e-01 6.285659e+02 
3.123100e-01 6.250290e+02 
3.135300e-01 6.214376e+02 
3.147300e-01 6.179389e+02 
3.159900e-01 6.143010e+02 
3.171800e-01 6.109053e+02 
3.183700e-01 6.075459e+02 
3.196300e-01 6.040228e+02 
3.208400e-01 6.006719e+02 
3.220300e-01 5.974070e+02 
3.232000e-01 5.942351e+02 
3.244300e-01 5.909347e+02 
3.256700e-01 5.876389e+02 
3.269200e-01 5.843479e+02 
3.280800e-01 5.813218e+02 
3.292500e-01 5.783087e+02 
3.304800e-01 5.751736e+02 
3.317100e-01 5.720673e+02 
3.328900e-01 5.691141e+02 
3.340700e-01 5.661869e+02 
3.353600e-01 5.630277e+02 
3.365300e-01 5.601929e+02 
3.377100e-01 5.573585e+02 
3.389200e-01 5.544774e+02 
3.401600e-01 5.515514e+02 
3.413700e-01 5.487325e+02 
3.425300e-01 5.460610e+02 
3.437700e-01 5.432300e+02 
3.449800e-01 5.404917e+02 
3.461800e-01 5.377996e+02 
3.473600e-01 5.351791e+02 
3.485800e-01 5.325034e+02 
3.498100e-01 5.298291e+02 
3.510200e-01 5.272210e+02 
3.522000e-01 5.246990e+02 
3.533900e-01 5.221767e+02 
3.546400e-01 5.195632e+02 
3.558400e-01 5.170765e+02 
3.570600e-01 5.145695e+02 
3.582700e-01 5.121039e+02 
3.595000e-01 5.096186e+02 
3.607100e-01 5.072010e+02 
3.618900e-01 5.048679e+02 
3.631200e-01 5.024559e+02 
3.643200e-01 5.001222e+02 
3.655500e-01 4.977497e+02 
3.667300e-01 4.954922e+02 
3.679500e-01 4.931894e+02 
3.691900e-01 4.908681e+02 
3.703600e-01 4.886954e+02 
3.715700e-01 4.864662e+02 
3.727700e-01 4.842731e+02 
3.739900e-01 4.820652e+02 
3.752000e-01 4.799002e+02 
3.763900e-01 4.777877e+02 
3.775800e-01 4.756916e+02 
3.788200e-01 4.735247e+02 
3.800300e-01 4.714271e+02 
3.812100e-01 4.694013e+02 
3.824200e-01 4.673427e+02 
3.836100e-01 4.653337e+02 
3.848600e-01 4.632400e+02 
3.860400e-01 4.612788e+02 
3.872400e-01 4.592995e+02 
3.884600e-01 4.573084e+02 
3.896500e-01 4.553832e+02 
3.908700e-01 4.534245e+02 
3.920600e-01 4.515284e+02 
3.933100e-01 4.495520e+02 
3.945300e-01 4.476379e+02 
3.957200e-01 4.457906e+02 
3.969300e-01 4.439279e+02 
3.981700e-01 4.420335e+02 
3.993500e-01 4.402442e+02 
4.094840e-01 4.253998e+02 
4.272360e-01 4.015892e+02 
4.454600e-01 3.796011e+02 
4.630560e-01 3.603989e+02 
4.804610e-01 3.431117e+02 
4.980690e-01 3.271361e+02 
5.159230e-01 3.123069e+02 
5.317440e-01 3.001916e+02 
5.489640e-01 2.879931e+02 
5.671990e-01 2.760935e+02 
5.838690e-01 2.660289e+02 
6.018840e-01 2.559418e+02 
6.202330e-01 2.464359e+02 
6.379250e-01 2.379220e+02 
6.545410e-01 2.304768e+02 
6.714560e-01 2.233685e+02 
6.892080e-01 2.163937e+02 
7.066010e-01 2.099937e+02 
7.240540e-01 2.039617e+02 
7.420450e-01 1.981223e+02 
7.593780e-01 1.928231e+02 
7.764720e-01 1.878815e+02 
7.942840e-01 1.830133e+02 
8.116170e-01 1.785269e+02 
8.288310e-01 1.742962e+02 
8.462240e-01 1.702282e+02 
8.631980e-01 1.664410e+02 
8.810700e-01 1.626380e+02 
8.989410e-01 1.590090e+02 
9.166330e-01 1.555730e+02 
9.345640e-01 1.522411e+02 
9.515980e-01 1.492009e+02 
9.688720e-01 1.462360e+02 
9.865640e-01 1.433135e+02 
1.031870e+00 1.363116e+02 
1.063490e+00 1.317858e+02 
1.097920e+00 1.271611e+02 
1.134370e+00 1.225639e+02 
1.167730e+00 1.186052e+02 
1.203830e+00 1.145510e+02 
1.240470e+00 1.106717e+02 
1.275790e+00 1.071235e+02 
1.309140e+00 1.039494e+02 
1.342970e+00 1.008658e+02 
1.378420e+00 9.779429e+01 
1.413200e+00 9.491581e+01 
1.448110e+00 9.215541e+01 
1.484090e+00 8.944030e+01 
1.518820e+00 8.693229e+01 
1.552880e+00 8.457073e+01 
1.588630e+00 8.219513e+01 
1.623230e+00 7.999084e+01 
1.657720e+00 7.787989e+01 
1.692450e+00 7.583955e+01 
1.726400e+00 7.391501e+01 
1.762200e+00 7.196107e+01 
1.797880e+00 7.009068e+01 
1.833270e+00 6.830378e+01 
1.869070e+00 6.656216e+01 
1.903200e+00 6.496272e+01 
1.937740e+00 6.340021e+01 
1.973190e+00 6.185070e+01 
2.007440e+00 6.040618e+01 
2.042160e+00 5.899114e+01 
2.077900e+00 5.758190e+01 
2.112390e+00 5.626975e+01 
2.146220e+00 5.502037e+01 
2.181600e+00 5.375628e+01 
2.216930e+00 5.253539e+01 
2.250760e+00 5.140298e+01 
2.286500e+00 5.024385e+01 
2.321770e+00 4.913620e+01 
2.355950e+00 4.809578e+01 
2.391280e+00 4.705066e+01 
2.426240e+00 4.604823e+01 
2.460670e+00 4.509104e+01 
2.495640e+00 4.414810e+01 
2.531080e+00 4.321759e+01 
2.566220e+00 4.232231e+01 
2.600830e+00 4.146652e+01 
2.635080e+00 4.064412e+01 
2.670340e+00 3.981973e+01 
2.705970e+00 3.901042e+01 
2.740040e+00 3.825810e+01 
2.774520e+00 3.751559e+01 
2.809730e+00 3.677818e+01 
2.844390e+00 3.607275e+01 
2.879960e+00 3.536801e+01 
2.914860e+00 3.469426e+01 
2.949410e+00 3.404528e+01 
2.984440e+00 3.340385e+01 
3.019760e+00 3.277379e+01 
3.054730e+00 3.216669e+01 
3.089030e+00 3.158509e+01 
3.124060e+00 3.100648e+01 
3.159560e+00 3.043473e+01 
3.194710e+00 2.988272e+01 
3.229010e+00 2.935813e+01 
3.263320e+00 2.884500e+01 
3.297930e+00 2.834032e+01 
3.332830e+00 2.784310e+01 
3.368040e+00 2.735364e+01 
3.403300e+00 2.687564e+01 
3.438450e+00 2.641017e+01 
3.473060e+00 2.596337e+01 
3.508440e+00 2.551628e+01 
3.543110e+00 2.508909e+01 
3.577470e+00 2.467492e+01 
3.613040e+00 2.425639e+01 
3.648120e+00 2.385253e+01 
3.682910e+00 2.346143e+01 
3.718050e+00 2.307522e+01 
3.753320e+00 2.269659e+01 
3.787980e+00 2.233280e+01 
3.822290e+00 2.198065e+01 
3.857020e+00 2.163175e+01 
3.891920e+00 2.128892e+01 
3.926650e+00 2.095491e+01 
3.961970e+00 2.062288e+01 
3.997360e+00 2.029739e+01 
4.031670e+00 1.998882e+01 
4.066330e+00 1.968332e+01 
4.101420e+00 1.938092e+01 
4.136200e+00 1.908711e+01 
4.170810e+00 1.880113e+01 
4.206250e+00 1.851407e+01 
4.241580e+00 1.823407e+01 
4.276300e+00 1.796458e+01 
4.310970e+00 1.770105e+01 
4.346120e+00 1.743941e+01 
4.380600e+00 1.718795e+01 
4.414730e+00 1.694415e+01 
4.450350e+00 1.669463e+01 
4.485320e+00 1.645477e+01 
4.519810e+00 1.622282e+01 
4.555430e+00 1.598806e+01 
4.590870e+00 1.575924e+01 
4.625480e+00 1.554019e+01 
4.659910e+00 1.532658e+01 
4.695230e+00 1.511161e+01 
4.729960e+00 1.490438e+01 
4.764450e+00 1.470252e+01 
4.799530e+00 1.450110e+01 
4.834910e+00 1.430190e+01 
4.869700e+00 1.410979e+01 
4.904370e+00 1.392195e+01 
4.939450e+00 1.373551e+01 
4.973940e+00 1.355567e+01 
5.008430e+00 1.337915e+01 
5.043810e+00 1.320138e+01 
5.078840e+00 1.302861e+01 
5.113500e+00 1.286080e+01 
5.148890e+00 1.269272e+01 
5.184210e+00 1.252804e+01 
5.219060e+00 1.236852e+01 
5.253660e+00 1.221302e+01 
5.288570e+00 1.205889e+01 
5.323420e+00 1.190780e+01 
5.358440e+00 1.175871e+01 
5.393590e+00 1.161168e+01 
5.428310e+00 1.146910e+01 
5.462800e+00 1.132994e+01 
5.497640e+00 1.119176e+01 
5.532670e+00 1.105532e+01 
5.567280e+00 1.092282e+01 
5.602000e+00 1.079213e+01 
5.637270e+00 1.066175e+01 
5.672410e+00 1.053407e+01 
5.707020e+00 1.041039e+01 
5.742040e+00 1.028747e+01 
5.777430e+00 1.016533e+01 
5.812210e+00 1.004725e+01 
5.846820e+00 9.931778e+00 
5.881610e+00 9.817592e+00 
5.916510e+00 9.704875e+00 
5.951600e+00 9.593501e+00 
5.986560e+00 9.484368e+00 
6.021830e+00 9.376011e+00 
6.056490e+00 9.271334e+00 
6.091160e+00 9.168358e+00 
6.125830e+00 9.066967e+00 
6.161090e+00 8.965511e+00 
6.195760e+00 8.867430e+00 
6.230420e+00 8.770862e+00 
6.265690e+00 8.674094e+00 
6.300950e+00 8.579028e+00 
6.335620e+00 8.486957e+00 
6.370880e+00 8.394720e+00 
6.405550e+00 8.305537e+00 
6.440220e+00 8.217728e+00 
6.475480e+00 8.129740e+00 
6.510150e+00 8.044545e+00 
6.544810e+00 7.960730e+00 
6.580080e+00 7.876675e+00 
6.614750e+00 7.795243e+00 
6.649410e+00 7.715222e+00 
6.684080e+00 7.636357e+00 
6.719340e+00 7.557289e+00 
6.754010e+00 7.480699e+00 
6.788680e+00 7.405306e+00 
6.823940e+00 7.329703e+00 
6.859800e+00 7.253904e+00 
6.894470e+00 7.181795e+00 
6.929140e+00 7.110728e+00 
6.963800e+00 7.040648e+00 
6.999070e+00 6.970320e+00 
7.033730e+00 6.902300e+00 
7.068400e+00 6.835174e+00 
7.103660e+00 6.767826e+00 
7.138330e+00 6.702566e+00 
7.173600e+00 6.637212e+00 
7.208260e+00 6.573843e+00 
7.243530e+00 6.510210e+00 
7.277600e+00 6.449648e+00 
7.312860e+00 6.387880e+00 
7.348120e+00 6.326923e+00 
7.382790e+00 6.267765e+00 
7.417460e+00 6.209482e+00 
7.452720e+00 6.151030e+00 
7.487390e+00 6.094293e+00 
7.522650e+00 6.037326e+00 
7.557320e+00 5.982137e+00 
7.591990e+00 5.927682e+00 
7.627250e+00 5.872998e+00 
7.662510e+00 5.819004e+00 
7.697180e+00 5.766706e+00 
7.731850e+00 5.715101e+00 
7.766510e+00 5.664143e+00 
7.801180e+00 5.613792e+00 
7.836440e+00 5.563325e+00 
7.871110e+00 5.514378e+00 
7.906380e+00 5.465188e+00 
7.941040e+00 5.417435e+00 
7.976310e+00 5.369484e+00 
8.011570e+00 5.322195e+00 
8.046240e+00 5.276253e+00 
8.080900e+00 5.230867e+00 
8.115570e+00 5.186033e+00 
8.150830e+00 5.141093e+00 
8.185500e+00 5.097425e+00 
8.220770e+00 5.053521e+00 
8.255430e+00 5.010880e+00 
8.290100e+00 4.968845e+00 
8.324770e+00 4.927308e+00 
8.359430e+00 4.886256e+00 
8.394700e+00 4.844961e+00 
8.429960e+00 4.804228e+00 
8.464630e+00 4.764707e+00 
8.499890e+00 4.724969e+00 
8.534560e+00 4.686337e+00 
8.569200e+00 4.648169e+00 
