# Parameters:
# omega_b = 0.022933, omega_m = 0.138189, n_s = 1.031102, h = 59.488189, w = -1.000000, sigma_8 = 0.879528
# z = 1.100000
#
# k[1/Mpc] # P(k):
8.694000e-04 5.471096e+03 
2.077466e-03 1.234930e+04 
3.285532e-03 1.797763e+04 
4.493598e-03 2.247107e+04 
5.701664e-03 2.592075e+04 
6.909730e-03 2.846063e+04 
8.117797e-03 3.026982e+04 
9.325863e-03 3.143800e+04 
1.053393e-02 3.205999e+04 
1.174199e-02 3.222690e+04 
1.295006e-02 3.199744e+04 
1.415813e-02 3.145594e+04 
1.536619e-02 3.067733e+04 
1.657426e-02 2.971892e+04 
1.778233e-02 2.865988e+04 
1.899039e-02 2.760425e+04 
2.019846e-02 2.653230e+04 
2.140652e-02 2.542824e+04 
2.261459e-02 2.432315e+04 
2.382266e-02 2.325592e+04 
2.503072e-02 2.224747e+04 
2.623879e-02 2.130553e+04 
2.744685e-02 2.043368e+04 
2.865492e-02 1.963585e+04 
2.986299e-02 1.891031e+04 
3.100100e-02 1.829147e+04 
3.220400e-02 1.770125e+04 
3.288100e-02 1.739703e+04 
3.424300e-02 1.683909e+04 
3.555100e-02 1.636146e+04 
3.686000e-02 1.593331e+04 
3.795000e-02 1.560747e+04 
3.929100e-02 1.523858e+04 
4.039800e-02 1.495313e+04 
4.164000e-02 1.464716e+04 
4.294400e-02 1.433265e+04 
4.415000e-02 1.404707e+04 
4.542900e-02 1.373866e+04 
4.660900e-02 1.345279e+04 
4.782300e-02 1.314456e+04 
4.892900e-02 1.285909e+04 
5.031200e-02 1.249119e+04 
5.155900e-02 1.214814e+04 
5.238100e-02 1.191814e+04 
5.378200e-02 1.152153e+04 
5.513400e-02 1.113426e+04 
5.627600e-02 1.080711e+04 
5.735300e-02 1.050206e+04 
5.870100e-02 1.012822e+04 
5.988700e-02 9.810205e+03 
6.113500e-02 9.488023e+03 
6.225900e-02 9.210199e+03 
6.340100e-02 8.940995e+03 
6.480200e-02 8.628819e+03 
6.601100e-02 8.376132e+03 
6.725500e-02 8.132643e+03 
6.829100e-02 7.943971e+03 
6.958600e-02 7.723817e+03 
7.071100e-02 7.548367e+03 
7.192300e-02 7.374700e+03 
7.307400e-02 7.223860e+03 
7.412300e-02 7.097557e+03 
7.550400e-02 6.947457e+03 
7.663100e-02 6.835470e+03 
7.791200e-02 6.720640e+03 
7.912700e-02 6.620979e+03 
8.027600e-02 6.532468e+03 
8.138400e-02 6.450930e+03 
8.272200e-02 6.355842e+03 
8.406100e-02 6.262301e+03 
8.534100e-02 6.171587e+03 
8.653800e-02 6.083832e+03 
8.759800e-02 6.004113e+03 
8.900300e-02 5.894334e+03 
9.009000e-02 5.805169e+03 
9.113300e-02 5.715414e+03 
9.239600e-02 5.604322e+03 
9.358000e-02 5.496667e+03 
9.496100e-02 5.366717e+03 
9.608400e-02 5.260400e+03 
9.727500e-02 5.147998e+03 
9.852600e-02 5.028627e+03 
9.973800e-02 4.915602e+03 
1.009000e-01 4.809711e+03 
1.020900e-01 4.704527e+03 
1.034000e-01 4.593326e+03 
1.046000e-01 4.495714e+03 
1.057200e-01 4.410093e+03 
1.069100e-01 4.322924e+03 
1.082500e-01 4.231654e+03 
1.093900e-01 4.159099e+03 
1.105400e-01 4.089476e+03 
1.116900e-01 4.025769e+03 
1.129600e-01 3.958695e+03 
1.142000e-01 3.898542e+03 
1.153300e-01 3.846452e+03 
1.166400e-01 3.789687e+03 
1.177800e-01 3.743034e+03 
1.190000e-01 3.695014e+03 
1.201200e-01 3.652785e+03 
1.213400e-01 3.608015e+03 
1.227100e-01 3.559048e+03 
1.238900e-01 3.517727e+03 
1.250700e-01 3.476603e+03 
1.263200e-01 3.433556e+03 
1.275500e-01 3.391074e+03 
1.287500e-01 3.349846e+03 
1.299900e-01 3.307054e+03 
1.311300e-01 3.267766e+03 
1.323500e-01 3.225402e+03 
1.335900e-01 3.182506e+03 
1.347100e-01 3.143524e+03 
1.359800e-01 3.099677e+03 
1.372100e-01 3.056951e+03 
1.384300e-01 3.015116e+03 
1.395700e-01 2.975904e+03 
1.407700e-01 2.935413e+03 
1.420300e-01 2.892969e+03 
1.432800e-01 2.851801e+03 
1.444500e-01 2.813694e+03 
1.456300e-01 2.776054e+03 
1.468900e-01 2.736914e+03 
1.480500e-01 2.701692e+03 
1.491700e-01 2.668609e+03 
1.503800e-01 2.633908e+03 
1.516400e-01 2.598694e+03 
1.528200e-01 2.567142e+03 
1.540200e-01 2.535680e+03 
1.551900e-01 2.506441e+03 
1.564300e-01 2.476256e+03 
1.576600e-01 2.447338e+03 
1.588700e-01 2.419959e+03 
1.600900e-01 2.392912e+03 
1.612700e-01 2.367927e+03 
1.625400e-01 2.341539e+03 
1.637600e-01 2.316902e+03 
1.649500e-01 2.293442e+03 
1.662200e-01 2.268872e+03 
1.674000e-01 2.246506e+03 
1.685000e-01 2.226005e+03 
1.697500e-01 2.202988e+03 
1.710300e-01 2.179733e+03 
1.722200e-01 2.158495e+03 
1.734400e-01 2.136676e+03 
1.746400e-01 2.115566e+03 
1.758700e-01 2.094153e+03 
1.770900e-01 2.072980e+03 
1.782700e-01 2.052844e+03 
1.794600e-01 2.032647e+03 
1.807000e-01 2.011802e+03 
1.819100e-01 1.991804e+03 
1.830100e-01 1.973704e+03 
1.842200e-01 1.954071e+03 
1.855000e-01 1.933648e+03 
1.867000e-01 1.914735e+03 
1.879200e-01 1.895817e+03 
1.890900e-01 1.877971e+03 
1.902800e-01 1.860151e+03 
1.915200e-01 1.841877e+03 
1.926900e-01 1.824949e+03 
1.939000e-01 1.807855e+03 
1.951700e-01 1.790197e+03 
1.963100e-01 1.774643e+03 
1.975100e-01 1.758655e+03 
1.987800e-01 1.741996e+03 
2.000100e-01 1.726185e+03 
2.012500e-01 1.710657e+03 
2.023400e-01 1.697203e+03 
2.036100e-01 1.681787e+03 
2.048900e-01 1.666626e+03 
2.060400e-01 1.653203e+03 
2.072200e-01 1.639631e+03 
2.084200e-01 1.626125e+03 
2.096900e-01 1.612039e+03 
2.109200e-01 1.598597e+03 
2.121100e-01 1.585766e+03 
2.132700e-01 1.573429e+03 
2.145200e-01 1.560319e+03 
2.157200e-01 1.547858e+03 
2.168800e-01 1.535949e+03 
2.180700e-01 1.523896e+03 
2.193400e-01 1.511140e+03 
2.206000e-01 1.498531e+03 
2.217500e-01 1.487178e+03 
2.229500e-01 1.475487e+03 
2.241400e-01 1.463804e+03 
2.253500e-01 1.452077e+03 
2.264900e-01 1.441171e+03 
2.277100e-01 1.429496e+03 
2.289900e-01 1.417244e+03 
2.301500e-01 1.406289e+03 
2.313600e-01 1.395005e+03 
2.325600e-01 1.383642e+03 
2.337700e-01 1.372334e+03 
2.350000e-01 1.360990e+03 
2.362000e-01 1.349941e+03 
2.374100e-01 1.338794e+03 
2.386500e-01 1.327520e+03 
2.399100e-01 1.316216e+03 
2.410400e-01 1.306035e+03 
2.422500e-01 1.295246e+03 
2.435000e-01 1.284244e+03 
2.447300e-01 1.273544e+03 
2.458700e-01 1.263692e+03 
2.470600e-01 1.253532e+03 
2.483300e-01 1.242827e+03 
2.495600e-01 1.232607e+03 
2.507600e-01 1.222781e+03 
2.519600e-01 1.213075e+03 
2.532200e-01 1.203011e+03 
2.543700e-01 1.194030e+03 
2.555500e-01 1.184986e+03 
2.568000e-01 1.175520e+03 
2.580100e-01 1.166469e+03 
2.592400e-01 1.157539e+03 
2.604100e-01 1.149214e+03 
2.616100e-01 1.140774e+03 
2.628400e-01 1.132225e+03 
2.640600e-01 1.124027e+03 
2.652200e-01 1.116393e+03 
2.664300e-01 1.108518e+03 
2.676500e-01 1.100670e+03 
2.688400e-01 1.093251e+03 
2.700700e-01 1.085763e+03 
2.712400e-01 1.078718e+03 
2.724800e-01 1.071335e+03 
2.736700e-01 1.064429e+03 
2.748800e-01 1.057586e+03 
2.761000e-01 1.050761e+03 
2.773200e-01 1.044012e+03 
2.785400e-01 1.037384e+03 
2.797000e-01 1.031249e+03 
2.808900e-01 1.025021e+03 
2.821400e-01 1.018548e+03 
2.833900e-01 1.012151e+03 
2.845500e-01 1.006366e+03 
2.857800e-01 1.000296e+03 
2.870300e-01 9.941933e+02 
2.882100e-01 9.884920e+02 
2.893900e-01 9.828893e+02 
2.906300e-01 9.770841e+02 
2.918900e-01 9.712476e+02 
2.930500e-01 9.659290e+02 
2.942500e-01 9.604886e+02 
2.954200e-01 9.552597e+02 
2.966500e-01 9.498174e+02 
2.978900e-01 9.443869e+02 
2.990400e-01 9.394001e+02 
3.002700e-01 9.341284e+02 
3.015100e-01 9.288723e+02 
3.026800e-01 9.239615e+02 
3.038500e-01 9.190973e+02 
3.050300e-01 9.142382e+02 
3.062600e-01 9.092282e+02 
3.075000e-01 9.042275e+02 
3.087000e-01 8.994352e+02 
3.099100e-01 8.946492e+02 
3.111200e-01 8.899110e+02 
3.123100e-01 8.852987e+02 
3.135300e-01 8.806148e+02 
3.147300e-01 8.760513e+02 
3.159900e-01 8.713056e+02 
3.171800e-01 8.668683e+02 
3.183700e-01 8.624732e+02 
3.196300e-01 8.578635e+02 
3.208400e-01 8.534786e+02 
3.220300e-01 8.492057e+02 
3.232000e-01 8.450447e+02 
3.244300e-01 8.407111e+02 
3.256700e-01 8.363830e+02 
3.269200e-01 8.320608e+02 
3.280800e-01 8.280861e+02 
3.292500e-01 8.241194e+02 
3.304800e-01 8.199888e+02 
3.317100e-01 8.158959e+02 
3.328900e-01 8.120043e+02 
3.340700e-01 8.081466e+02 
3.353600e-01 8.039743e+02 
3.365300e-01 8.002268e+02 
3.377100e-01 7.964796e+02 
3.389200e-01 7.926704e+02 
3.401600e-01 7.888013e+02 
3.413700e-01 7.850689e+02 
3.425300e-01 7.815280e+02 
3.437700e-01 7.777753e+02 
3.449800e-01 7.741453e+02 
3.461800e-01 7.705761e+02 
3.473600e-01 7.671001e+02 
3.485800e-01 7.635470e+02 
3.498100e-01 7.599956e+02 
3.510200e-01 7.565317e+02 
3.522000e-01 7.531818e+02 
3.533900e-01 7.498313e+02 
3.546400e-01 7.463569e+02 
3.558400e-01 7.430505e+02 
3.570600e-01 7.397169e+02 
3.582700e-01 7.364381e+02 
3.595000e-01 7.331329e+02 
3.607100e-01 7.299174e+02 
3.618900e-01 7.268141e+02 
3.631200e-01 7.236055e+02 
3.643200e-01 7.205008e+02 
3.655500e-01 7.173445e+02 
3.667300e-01 7.143408e+02 
3.679500e-01 7.112784e+02 
3.691900e-01 7.081911e+02 
3.703600e-01 7.053014e+02 
3.715700e-01 7.023364e+02 
3.727700e-01 6.994191e+02 
3.739900e-01 6.964832e+02 
3.752000e-01 6.936062e+02 
3.763900e-01 6.907989e+02 
3.775800e-01 6.880132e+02 
3.788200e-01 6.851333e+02 
3.800300e-01 6.823453e+02 
3.812100e-01 6.796547e+02 
3.824200e-01 6.769220e+02 
3.836100e-01 6.742550e+02 
3.848600e-01 6.714754e+02 
3.860400e-01 6.688716e+02 
3.872400e-01 6.662436e+02 
3.884600e-01 6.636023e+02 
3.896500e-01 6.610492e+02 
3.908700e-01 6.584515e+02 
3.920600e-01 6.559368e+02 
3.933100e-01 6.533154e+02 
3.945300e-01 6.507764e+02 
3.957200e-01 6.483303e+02 
3.969300e-01 6.458649e+02 
3.981700e-01 6.433573e+02 
3.993500e-01 6.409888e+02 
4.094840e-01 6.213354e+02 
4.272360e-01 5.898618e+02 
4.454600e-01 5.607573e+02 
4.630560e-01 5.352576e+02 
4.804610e-01 5.121917e+02 
4.980690e-01 4.907602e+02 
5.159230e-01 4.707514e+02 
5.317440e-01 4.543258e+02 
5.489640e-01 4.377071e+02 
5.671990e-01 4.214320e+02 
5.838690e-01 4.076278e+02 
6.018840e-01 3.937523e+02 
6.202330e-01 3.806433e+02 
6.379250e-01 3.688913e+02 
6.545410e-01 3.585948e+02 
6.714560e-01 3.487460e+02 
6.892080e-01 3.390772e+02 
7.066010e-01 3.301822e+02 
7.240540e-01 3.217889e+02 
7.420450e-01 3.136367e+02 
7.593780e-01 3.062156e+02 
7.764720e-01 2.992751e+02 
7.942840e-01 2.924162e+02 
8.116170e-01 2.860642e+02 
8.288310e-01 2.800428e+02 
8.462240e-01 2.742259e+02 
8.631980e-01 2.687782e+02 
8.810700e-01 2.632804e+02 
8.989410e-01 2.580014e+02 
9.166330e-01 2.529725e+02 
9.345640e-01 2.480670e+02 
9.515980e-01 2.435567e+02 
9.688720e-01 2.391289e+02 
9.865640e-01 2.347317e+02 
1.031870e+00 2.240855e+02 
1.063490e+00 2.171011e+02 
1.097920e+00 2.098808e+02 
1.134370e+00 2.026204e+02 
1.167730e+00 1.962973e+02 
1.203830e+00 1.897483e+02 
1.240470e+00 1.834278e+02 
1.275790e+00 1.775855e+02 
1.309140e+00 1.723288e+02 
1.342970e+00 1.671749e+02 
1.378420e+00 1.620142e+02 
1.413200e+00 1.571465e+02 
1.448110e+00 1.524550e+02 
1.484090e+00 1.478191e+02 
1.518820e+00 1.435192e+02 
1.552880e+00 1.394547e+02 
1.588630e+00 1.353552e+02 
1.623230e+00 1.315398e+02 
1.657720e+00 1.278778e+02 
1.692450e+00 1.243331e+02 
1.726400e+00 1.209822e+02 
1.762200e+00 1.175744e+02 
1.797880e+00 1.143107e+02 
1.833270e+00 1.111883e+02 
1.869070e+00 1.081432e+02 
1.903200e+00 1.053474e+02 
1.937740e+00 1.026150e+02 
1.973190e+00 9.990448e+01 
2.007440e+00 9.737895e+01 
2.042160e+00 9.490638e+01 
2.077900e+00 9.244381e+01 
2.112390e+00 9.015345e+01 
2.146220e+00 8.797272e+01 
2.181600e+00 8.576920e+01 
2.216930e+00 8.364284e+01 
2.250760e+00 8.167245e+01 
2.286500e+00 7.965755e+01 
2.321770e+00 7.773431e+01 
2.355950e+00 7.593076e+01 
2.391280e+00 7.412113e+01 
2.426240e+00 7.238846e+01 
2.460670e+00 7.073642e+01 
2.495640e+00 6.911092e+01 
2.531080e+00 6.750936e+01 
2.566220e+00 6.597109e+01 
2.600830e+00 6.450331e+01 
2.635080e+00 6.309535e+01 
2.670340e+00 6.168730e+01 
2.705970e+00 6.030701e+01 
2.740040e+00 5.902573e+01 
2.774520e+00 5.776321e+01 
2.809730e+00 5.651249e+01 
2.844390e+00 5.531831e+01 
2.879960e+00 5.412799e+01 
2.914860e+00 5.299203e+01 
2.949410e+00 5.189967e+01 
2.984440e+00 5.082296e+01 
3.019760e+00 4.976698e+01 
3.054730e+00 4.875089e+01 
3.089030e+00 4.778097e+01 
3.124060e+00 4.681741e+01 
3.159560e+00 4.586687e+01 
3.194710e+00 4.495171e+01 
3.229010e+00 4.408344e+01 
3.263320e+00 4.323698e+01 
3.297930e+00 4.240549e+01 
3.332830e+00 4.158767e+01 
3.368040e+00 4.078473e+01 
3.403300e+00 4.000230e+01 
3.438450e+00 3.924257e+01 
3.473060e+00 3.851428e+01 
3.508440e+00 3.778760e+01 
3.543110e+00 3.709419e+01 
3.577470e+00 3.642426e+01 
3.613040e+00 3.574816e+01 
3.648120e+00 3.509713e+01 
3.682910e+00 3.446787e+01 
3.718050e+00 3.384821e+01 
3.753320e+00 3.324183e+01 
3.787980e+00 3.266056e+01 
3.822290e+00 3.209901e+01 
3.857020e+00 3.154411e+01 
3.891920e+00 3.099978e+01 
3.926650e+00 3.047078e+01 
3.961970e+00 2.994578e+01 
3.997360e+00 2.943264e+01 
4.031670e+00 2.894678e+01 
4.066330e+00 2.846710e+01 
4.101420e+00 2.799268e+01 
4.136200e+00 2.753338e+01 
4.170810e+00 2.708665e+01 
4.206250e+00 2.663953e+01 
4.241580e+00 2.620391e+01 
4.276300e+00 2.578579e+01 
4.310970e+00 2.537768e+01 
4.346120e+00 2.497319e+01 
4.380600e+00 2.458536e+01 
4.414730e+00 2.420964e+01 
4.450350e+00 2.382654e+01 
4.485320e+00 2.345852e+01 
4.519810e+00 2.310358e+01 
4.555430e+00 2.274490e+01 
4.590870e+00 2.239584e+01 
4.625480e+00 2.206250e+01 
4.659910e+00 2.173762e+01 
4.695230e+00 2.141180e+01 
4.729960e+00 2.109804e+01 
4.764450e+00 2.079292e+01 
4.799530e+00 2.048920e+01 
4.834910e+00 2.018900e+01 
4.869700e+00 1.990035e+01 
4.904370e+00 1.961841e+01 
4.939450e+00 1.933891e+01 
4.973940e+00 1.907004e+01 
5.008430e+00 1.880627e+01 
5.043810e+00 1.854126e+01 
5.078840e+00 1.828411e+01 
5.113500e+00 1.803447e+01 
5.148890e+00 1.778525e+01 
5.184210e+00 1.754123e+01 
5.219060e+00 1.730513e+01 
5.253660e+00 1.707558e+01 
5.288570e+00 1.684816e+01 
5.323420e+00 1.662560e+01 
5.358440e+00 1.640639e+01 
5.393590e+00 1.619032e+01 
5.428310e+00 1.598127e+01 
5.462800e+00 1.577754e+01 
5.497640e+00 1.557532e+01 
5.532670e+00 1.537614e+01 
5.567280e+00 1.518293e+01 
5.602000e+00 1.499242e+01 
5.637270e+00 1.480283e+01 
5.672410e+00 1.461732e+01 
5.707020e+00 1.443769e+01 
5.742040e+00 1.425964e+01 
5.777430e+00 1.408286e+01 
5.812210e+00 1.391204e+01 
5.846820e+00 1.374534e+01 
5.881610e+00 1.358064e+01 
5.916510e+00 1.341811e+01 
5.951600e+00 1.325786e+01 
5.986560e+00 1.310101e+01 
6.021830e+00 1.294532e+01 
6.056490e+00 1.279517e+01 
6.091160e+00 1.264766e+01 
6.125830e+00 1.250247e+01 
6.161090e+00 1.235732e+01 
6.195760e+00 1.221725e+01 
6.230420e+00 1.207938e+01 
6.265690e+00 1.194127e+01 
6.300950e+00 1.180594e+01 
6.335620e+00 1.167491e+01 
6.370880e+00 1.154367e+01 
6.405550e+00 1.141699e+01 
6.440220e+00 1.129236e+01 
6.475480e+00 1.116751e+01 
6.510150e+00 1.104673e+01 
6.544810e+00 1.092812e+01 
6.580080e+00 1.080920e+01 
6.614750e+00 1.069401e+01 
6.649410e+00 1.058102e+01 
6.684080e+00 1.046971e+01 
6.719340e+00 1.035814e+01 
6.754010e+00 1.025014e+01 
6.788680e+00 1.014401e+01 
6.823940e+00 1.003760e+01 
6.859800e+00 9.930929e+00 
6.894470e+00 9.829597e+00 
6.929140e+00 9.729790e+00 
6.963800e+00 9.631386e+00 
6.999070e+00 9.532661e+00 
7.033730e+00 9.437352e+00 
7.068400e+00 9.343310e+00 
7.103660e+00 9.248971e+00 
7.138330e+00 9.157613e+00 
7.173600e+00 9.066228e+00 
7.208260e+00 8.977630e+00 
7.243530e+00 8.888678e+00 
7.277600e+00 8.804095e+00 
7.312860e+00 8.717897e+00 
7.348120e+00 8.632844e+00 
7.382790e+00 8.550312e+00 
7.417460e+00 8.469091e+00 
7.452720e+00 8.387687e+00 
7.487390e+00 8.308681e+00 
7.522650e+00 8.229365e+00 
7.557320e+00 8.152592e+00 
7.591990e+00 8.076872e+00 
7.627250e+00 8.000841e+00 
7.662510e+00 7.925779e+00 
7.697180e+00 7.853148e+00 
7.731850e+00 7.781513e+00 
7.766510e+00 7.710784e+00 
7.801180e+00 7.640906e+00 
7.836440e+00 7.570910e+00 
7.871110e+00 7.503051e+00 
7.906380e+00 7.434864e+00 
7.941040e+00 7.368675e+00 
7.976310e+00 7.302245e+00 
8.011570e+00 7.236771e+00 
8.046240e+00 7.173168e+00 
8.080900e+00 7.110340e+00 
8.115570e+00 7.048292e+00 
8.150830e+00 6.986144e+00 
8.185500e+00 6.925760e+00 
8.220770e+00 6.865055e+00 
8.255430e+00 6.806102e+00 
8.290100e+00 6.748033e+00 
8.324770e+00 6.690660e+00 
8.359430e+00 6.633963e+00 
8.394700e+00 6.576937e+00 
8.429960e+00 6.520703e+00 
8.464630e+00 6.466161e+00 
8.499890e+00 6.411324e+00 
8.534560e+00 6.358018e+00 
8.569200e+00 6.305357e+00 
