# Parameters:
# omega_b = 0.022193, omega_m = 0.124409, n_s = 0.924016, h = 79.094488, w = -1.000000, sigma_8 = 0.794488
# z = 1.100000
#
# k[1/Mpc] # P(k):
8.694000e-04 8.738759e+03 
2.077466e-03 1.774582e+04 
3.285532e-03 2.432525e+04 
4.493598e-03 2.904044e+04 
5.701664e-03 3.226511e+04 
6.909730e-03 3.430472e+04 
8.117797e-03 3.546054e+04 
9.325863e-03 3.588795e+04 
1.053393e-02 3.573312e+04 
1.174199e-02 3.512456e+04 
1.295006e-02 3.414518e+04 
1.415813e-02 3.290064e+04 
1.536619e-02 3.147721e+04 
1.657426e-02 2.993054e+04 
1.778233e-02 2.829095e+04 
1.899039e-02 2.661745e+04 
2.019846e-02 2.498674e+04 
2.140652e-02 2.345574e+04 
2.261459e-02 2.202930e+04 
2.382266e-02 2.071552e+04 
2.503072e-02 1.952122e+04 
2.623879e-02 1.844556e+04 
2.744685e-02 1.748796e+04 
2.865492e-02 1.664116e+04 
2.986299e-02 1.589603e+04 
3.100100e-02 1.528229e+04 
3.220400e-02 1.471545e+04 
3.288100e-02 1.443178e+04 
3.424300e-02 1.392450e+04 
3.555100e-02 1.350276e+04 
3.686000e-02 1.313382e+04 
3.795000e-02 1.285704e+04 
3.929100e-02 1.254533e+04 
4.039800e-02 1.230194e+04 
4.164000e-02 1.203688e+04 
4.294400e-02 1.175421e+04 
4.415000e-02 1.148985e+04 
4.542900e-02 1.119211e+04 
4.660900e-02 1.090881e+04 
4.782300e-02 1.059292e+04 
4.892900e-02 1.029577e+04 
5.031200e-02 9.907700e+03 
5.155900e-02 9.543675e+03 
5.238100e-02 9.299864e+03 
5.378200e-02 8.881469e+03 
5.513400e-02 8.477837e+03 
5.627600e-02 8.141973e+03 
5.735300e-02 7.833511e+03 
5.870100e-02 7.462429e+03 
5.988700e-02 7.153293e+03 
6.113500e-02 6.847403e+03 
6.225900e-02 6.591321e+03 
6.340100e-02 6.351416e+03 
6.480200e-02 6.083611e+03 
6.601100e-02 5.878824e+03 
6.725500e-02 5.691822e+03 
6.829100e-02 5.555595e+03 
6.958600e-02 5.403850e+03 
7.071100e-02 5.289842e+03 
7.192300e-02 5.182261e+03 
7.307400e-02 5.092748e+03 
7.412300e-02 5.020135e+03 
7.550400e-02 4.936055e+03 
7.663100e-02 4.873730e+03 
7.791200e-02 4.808608e+03 
7.912700e-02 4.749027e+03 
8.027600e-02 4.692732e+03 
8.138400e-02 4.637444e+03 
8.272200e-02 4.567700e+03 
8.406100e-02 4.493401e+03 
8.534100e-02 4.415388e+03 
8.653800e-02 4.336046e+03 
8.759800e-02 4.262233e+03 
8.900300e-02 4.158662e+03 
9.009000e-02 4.073812e+03 
9.113300e-02 3.988650e+03 
9.239600e-02 3.883892e+03 
9.358000e-02 3.783543e+03 
9.496100e-02 3.664746e+03 
9.608400e-02 3.569227e+03 
9.727500e-02 3.469678e+03 
9.852600e-02 3.367252e+03 
9.973800e-02 3.272102e+03 
1.009000e-01 3.184471e+03 
1.020900e-01 3.100981e+03 
1.034000e-01 3.014629e+03 
1.046000e-01 2.940780e+03 
1.057200e-01 2.879320e+03 
1.069100e-01 2.818028e+03 
1.082500e-01 2.757461e+03 
1.093900e-01 2.711542e+03 
1.105400e-01 2.668806e+03 
1.116900e-01 2.632544e+03 
1.129600e-01 2.595255e+03 
1.142000e-01 2.563854e+03 
1.153300e-01 2.537068e+03 
1.166400e-01 2.508537e+03 
1.177800e-01 2.484766e+03 
1.190000e-01 2.460155e+03 
1.201200e-01 2.436786e+03 
1.213400e-01 2.411703e+03 
1.227100e-01 2.380509e+03 
1.238900e-01 2.353303e+03 
1.250700e-01 2.323352e+03 
1.263200e-01 2.290919e+03 
1.275500e-01 2.256542e+03 
1.287500e-01 2.222210e+03 
1.299900e-01 2.185072e+03 
1.311300e-01 2.150530e+03 
1.323500e-01 2.112624e+03 
1.335900e-01 2.074316e+03 
1.347100e-01 2.039572e+03 
1.359800e-01 2.000905e+03 
1.372100e-01 1.963956e+03 
1.384300e-01 1.928323e+03 
1.395700e-01 1.896075e+03 
1.407700e-01 1.863018e+03 
1.420300e-01 1.830207e+03 
1.432800e-01 1.798437e+03 
1.444500e-01 1.770886e+03 
1.456300e-01 1.743702e+03 
1.468900e-01 1.716679e+03 
1.480500e-01 1.692739e+03 
1.491700e-01 1.670775e+03 
1.503800e-01 1.648401e+03 
1.516400e-01 1.625849e+03 
1.528200e-01 1.606297e+03 
1.540200e-01 1.586801e+03 
1.551900e-01 1.568989e+03 
1.564300e-01 1.550676e+03 
1.576600e-01 1.533131e+03 
1.588700e-01 1.516521e+03 
1.600900e-01 1.500093e+03 
1.612700e-01 1.484600e+03 
1.625400e-01 1.468236e+03 
1.637600e-01 1.452601e+03 
1.649500e-01 1.437505e+03 
1.662200e-01 1.421587e+03 
1.674000e-01 1.406498e+03 
1.685000e-01 1.392669e+03 
1.697500e-01 1.376802e+03 
1.710300e-01 1.360434e+03 
1.722200e-01 1.345493e+03 
1.734400e-01 1.329602e+03 
1.746400e-01 1.314215e+03 
1.758700e-01 1.298513e+03 
1.770900e-01 1.282788e+03 
1.782700e-01 1.267846e+03 
1.794600e-01 1.252814e+03 
1.807000e-01 1.237276e+03 
1.819100e-01 1.222383e+03 
1.830100e-01 1.209021e+03 
1.842200e-01 1.194559e+03 
1.855000e-01 1.179539e+03 
1.867000e-01 1.165906e+03 
1.879200e-01 1.152280e+03 
1.890900e-01 1.139491e+03 
1.902800e-01 1.127015e+03 
1.915200e-01 1.114230e+03 
1.926900e-01 1.102471e+03 
1.939000e-01 1.090857e+03 
1.951700e-01 1.078865e+03 
1.963100e-01 1.068378e+03 
1.975100e-01 1.057790e+03 
1.987800e-01 1.046761e+03 
2.000100e-01 1.036343e+03 
2.012500e-01 1.026221e+03 
2.023400e-01 1.017452e+03 
2.036100e-01 1.007417e+03 
2.048900e-01 9.975838e+02 
2.060400e-01 9.888809e+02 
2.072200e-01 9.800798e+02 
2.084200e-01 9.712853e+02 
2.096900e-01 9.621159e+02 
2.109200e-01 9.533678e+02 
2.121100e-01 9.449475e+02 
2.132700e-01 9.368496e+02 
2.145200e-01 9.282471e+02 
2.157200e-01 9.200304e+02 
2.168800e-01 9.121615e+02 
2.180700e-01 9.041994e+02 
2.193400e-01 8.957782e+02 
2.206000e-01 8.874621e+02 
2.217500e-01 8.799770e+02 
2.229500e-01 8.722712e+02 
2.241400e-01 8.646480e+02 
2.253500e-01 8.569999e+02 
2.264900e-01 8.498898e+02 
2.277100e-01 8.423623e+02 
2.289900e-01 8.345537e+02 
2.301500e-01 8.275732e+02 
2.313600e-01 8.203873e+02 
2.325600e-01 8.133656e+02 
2.337700e-01 8.063789e+02 
2.350000e-01 7.993711e+02 
2.362000e-01 7.926496e+02 
2.374100e-01 7.859902e+02 
2.386500e-01 7.792552e+02 
2.399100e-01 7.725027e+02 
2.410400e-01 7.665842e+02 
2.422500e-01 7.603323e+02 
2.435000e-01 7.539570e+02 
2.447300e-01 7.477817e+02 
2.458700e-01 7.421965e+02 
2.470600e-01 7.364361e+02 
2.483300e-01 7.303659e+02 
2.495600e-01 7.245924e+02 
2.507600e-01 7.190712e+02 
2.519600e-01 7.136165e+02 
2.532200e-01 7.079596e+02 
2.543700e-01 7.028946e+02 
2.555500e-01 6.977819e+02 
2.568000e-01 6.924306e+02 
2.580100e-01 6.873129e+02 
2.592400e-01 6.822021e+02 
2.604100e-01 6.774100e+02 
2.616100e-01 6.725512e+02 
2.628400e-01 6.676290e+02 
2.640600e-01 6.628169e+02 
2.652200e-01 6.582985e+02 
2.664300e-01 6.536381e+02 
2.676500e-01 6.489929e+02 
2.688400e-01 6.445168e+02 
2.700700e-01 6.399448e+02 
2.712400e-01 6.356443e+02 
2.724800e-01 6.311372e+02 
2.736700e-01 6.268585e+02 
2.748800e-01 6.225539e+02 
2.761000e-01 6.182619e+02 
2.773200e-01 6.140174e+02 
2.785400e-01 6.098168e+02 
2.797000e-01 6.058594e+02 
2.808900e-01 6.018425e+02 
2.821400e-01 5.976691e+02 
2.833900e-01 5.935415e+02 
2.845500e-01 5.897395e+02 
2.857800e-01 5.857506e+02 
2.870300e-01 5.817411e+02 
2.882100e-01 5.779963e+02 
2.893900e-01 5.742851e+02 
2.906300e-01 5.704234e+02 
2.918900e-01 5.665418e+02 
2.930500e-01 5.630056e+02 
2.942500e-01 5.593832e+02 
2.954200e-01 5.558831e+02 
2.966500e-01 5.522410e+02 
2.978900e-01 5.486078e+02 
2.990400e-01 5.452723e+02 
3.002700e-01 5.417390e+02 
3.015100e-01 5.382132e+02 
3.026800e-01 5.349200e+02 
3.038500e-01 5.316588e+02 
3.050300e-01 5.284018e+02 
3.062600e-01 5.250432e+02 
3.075000e-01 5.216918e+02 
3.087000e-01 5.184808e+02 
3.099100e-01 5.152750e+02 
3.111200e-01 5.121039e+02 
3.123100e-01 5.090212e+02 
3.135300e-01 5.058914e+02 
3.147300e-01 5.028429e+02 
3.159900e-01 4.996734e+02 
3.171800e-01 4.967162e+02 
3.183700e-01 4.937915e+02 
3.196300e-01 4.907246e+02 
3.208400e-01 4.878081e+02 
3.220300e-01 4.849668e+02 
3.232000e-01 4.822078e+02 
3.244300e-01 4.793378e+02 
3.256700e-01 4.764722e+02 
3.269200e-01 4.736113e+02 
3.280800e-01 4.709809e+02 
3.292500e-01 4.683632e+02 
3.304800e-01 4.656401e+02 
3.317100e-01 4.629425e+02 
3.328900e-01 4.603782e+02 
3.340700e-01 4.578367e+02 
3.353600e-01 4.550961e+02 
3.365300e-01 4.526379e+02 
3.377100e-01 4.501805e+02 
3.389200e-01 4.476829e+02 
3.401600e-01 4.451466e+02 
3.413700e-01 4.427049e+02 
3.425300e-01 4.403921e+02 
3.437700e-01 4.379415e+02 
3.449800e-01 4.355715e+02 
3.461800e-01 4.332416e+02 
3.473600e-01 4.309748e+02 
3.485800e-01 4.286625e+02 
3.498100e-01 4.263516e+02 
3.510200e-01 4.240982e+02 
3.522000e-01 4.219194e+02 
3.533900e-01 4.197406e+02 
3.546400e-01 4.174860e+02 
3.558400e-01 4.153412e+02 
3.570600e-01 4.131791e+02 
3.582700e-01 4.110530e+02 
3.595000e-01 4.089101e+02 
3.607100e-01 4.068274e+02 
3.618900e-01 4.048189e+02 
3.631200e-01 4.027427e+02 
3.643200e-01 4.007340e+02 
3.655500e-01 3.986923e+02 
3.667300e-01 3.967496e+02 
3.679500e-01 3.947710e+02 
3.691900e-01 3.927766e+02 
3.703600e-01 3.909102e+02 
3.715700e-01 3.889954e+02 
3.727700e-01 3.871117e+02 
3.739900e-01 3.852165e+02 
3.752000e-01 3.833597e+02 
3.763900e-01 3.815481e+02 
3.775800e-01 3.797508e+02 
3.788200e-01 3.778930e+02 
3.800300e-01 3.760947e+02 
3.812100e-01 3.743597e+02 
3.824200e-01 3.725978e+02 
3.836100e-01 3.708785e+02 
3.848600e-01 3.690868e+02 
3.860400e-01 3.674087e+02 
3.872400e-01 3.657152e+02 
3.884600e-01 3.640136e+02 
3.896500e-01 3.623691e+02 
3.908700e-01 3.606961e+02 
3.920600e-01 3.590767e+02 
3.933100e-01 3.573888e+02 
3.945300e-01 3.557543e+02 
3.957200e-01 3.541786e+02 
3.969300e-01 3.525903e+02 
3.981700e-01 3.509751e+02 
3.993500e-01 3.494496e+02 
4.094840e-01 3.368115e+02 
4.272360e-01 3.166077e+02 
4.454600e-01 2.980218e+02 
4.630560e-01 2.818480e+02 
4.804610e-01 2.673345e+02 
4.980690e-01 2.539613e+02 
5.159230e-01 2.415843e+02 
5.317440e-01 2.314976e+02 
5.489640e-01 2.213681e+02 
5.671990e-01 2.115114e+02 
5.838690e-01 2.031932e+02 
6.018840e-01 1.948776e+02 
6.202330e-01 1.870622e+02 
6.379250e-01 1.800748e+02 
6.545410e-01 1.739808e+02 
6.714560e-01 1.681755e+02 
6.892080e-01 1.624895e+02 
7.066010e-01 1.572862e+02 
7.240540e-01 1.523907e+02 
7.420450e-01 1.476655e+02 
7.593780e-01 1.433884e+02 
7.764720e-01 1.394086e+02 
7.942840e-01 1.354968e+02 
8.116170e-01 1.319026e+02 
8.288310e-01 1.285232e+02 
8.462240e-01 1.252819e+02 
8.631980e-01 1.222737e+02 
8.810700e-01 1.192603e+02 
8.989410e-01 1.163935e+02 
9.166330e-01 1.136869e+02 
9.345640e-01 1.110694e+02 
9.515980e-01 1.086894e+02 
9.688720e-01 1.063752e+02 
9.865640e-01 1.041016e+02 
1.031870e+00 9.868066e+01 
1.063490e+00 9.520002e+01 
1.097920e+00 9.166148e+01 
1.134370e+00 8.816356e+01 
1.167730e+00 8.516739e+01 
1.203830e+00 8.211591e+01 
1.240470e+00 7.920898e+01 
1.275790e+00 7.656467e+01 
1.309140e+00 7.420642e+01 
1.342970e+00 7.192750e+01 
1.378420e+00 6.966463e+01 
1.413200e+00 6.755226e+01 
1.448110e+00 6.553325e+01 
1.484090e+00 6.355367e+01 
1.518820e+00 6.173063e+01 
1.552880e+00 6.001903e+01 
1.588630e+00 5.830135e+01 
1.623230e+00 5.671174e+01 
1.657720e+00 5.519265e+01 
1.692450e+00 5.372697e+01 
1.726400e+00 5.234789e+01 
1.762200e+00 5.095065e+01 
1.797880e+00 4.961494e+01 
1.833270e+00 4.834125e+01 
1.869070e+00 4.710204e+01 
1.903200e+00 4.596501e+01 
1.937740e+00 4.485568e+01 
1.973190e+00 4.375729e+01 
2.007440e+00 4.273422e+01 
2.042160e+00 4.173292e+01 
2.077900e+00 4.073709e+01 
2.112390e+00 3.981017e+01 
2.146220e+00 3.892893e+01 
2.181600e+00 3.803764e+01 
2.216930e+00 3.717751e+01 
2.250760e+00 3.638024e+01 
2.286500e+00 3.556465e+01 
2.321770e+00 3.478576e+01 
2.355950e+00 3.405425e+01 
2.391280e+00 3.332008e+01 
2.426240e+00 3.261595e+01 
2.460670e+00 3.194378e+01 
2.495640e+00 3.128190e+01 
2.531080e+00 3.062915e+01 
2.566220e+00 3.000120e+01 
2.600830e+00 2.940096e+01 
2.635080e+00 2.882413e+01 
2.670340e+00 2.824594e+01 
2.705970e+00 2.767850e+01 
2.740040e+00 2.715114e+01 
2.774520e+00 2.663083e+01 
2.809730e+00 2.611394e+01 
2.844390e+00 2.561938e+01 
2.879960e+00 2.512522e+01 
2.914860e+00 2.465292e+01 
2.949410e+00 2.419797e+01 
2.984440e+00 2.374810e+01 
3.019760e+00 2.330632e+01 
3.054730e+00 2.288067e+01 
3.089030e+00 2.247262e+01 
3.124060e+00 2.206668e+01 
3.159560e+00 2.166560e+01 
3.194710e+00 2.127819e+01 
3.229010e+00 2.090991e+01 
3.263320e+00 2.054946e+01 
3.297930e+00 2.019497e+01 
3.332830e+00 1.984580e+01 
3.368040e+00 1.950188e+01 
3.403300e+00 1.916585e+01 
3.438450e+00 1.883848e+01 
3.473060e+00 1.852417e+01 
3.508440e+00 1.820961e+01 
3.543110e+00 1.790897e+01 
3.577470e+00 1.761727e+01 
3.613040e+00 1.732248e+01 
3.648120e+00 1.703799e+01 
3.682910e+00 1.676239e+01 
3.718050e+00 1.649006e+01 
3.753320e+00 1.622300e+01 
3.787980e+00 1.596631e+01 
3.822290e+00 1.571773e+01 
3.857020e+00 1.547132e+01 
3.891920e+00 1.522912e+01 
3.926650e+00 1.499304e+01 
3.961970e+00 1.475827e+01 
3.997360e+00 1.452797e+01 
4.031670e+00 1.430961e+01 
4.066330e+00 1.409334e+01 
4.101420e+00 1.387924e+01 
4.136200e+00 1.367103e+01 
4.170810e+00 1.346836e+01 
4.206250e+00 1.326482e+01 
4.241580e+00 1.306625e+01 
4.276300e+00 1.287501e+01 
4.310970e+00 1.268792e+01 
4.346120e+00 1.250212e+01 
4.380600e+00 1.232345e+01 
4.414730e+00 1.215021e+01 
4.450350e+00 1.197274e+01 
4.485320e+00 1.180214e+01 
4.519810e+00 1.163705e+01 
4.555430e+00 1.146991e+01 
4.590870e+00 1.130696e+01 
4.625480e+00 1.115088e+01 
4.659910e+00 1.099867e+01 
4.695230e+00 1.084537e+01 
4.729960e+00 1.069755e+01 
4.764450e+00 1.055352e+01 
4.799530e+00 1.040971e+01 
4.834910e+00 1.026749e+01 
4.869700e+00 1.013023e+01 
4.904370e+00 9.996006e+00 
4.939450e+00 9.862743e+00 
4.973940e+00 9.734121e+00 
5.008430e+00 9.607870e+00 
5.043810e+00 9.480659e+00 
5.078840e+00 9.356985e+00 
5.113500e+00 9.236854e+00 
5.148890e+00 9.116434e+00 
5.184210e+00 8.998454e+00 
5.219060e+00 8.884137e+00 
5.253660e+00 8.772633e+00 
5.288570e+00 8.662120e+00 
5.323420e+00 8.553748e+00 
5.358440e+00 8.446768e+00 
5.393590e+00 8.341273e+00 
5.428310e+00 8.238909e+00 
5.462800e+00 8.138977e+00 
5.497640e+00 8.039751e+00 
5.532670e+00 7.941710e+00 
5.567280e+00 7.846490e+00 
5.602000e+00 7.752566e+00 
5.637270e+00 7.658828e+00 
5.672410e+00 7.567020e+00 
5.707020e+00 7.478094e+00 
5.742040e+00 7.389656e+00 
5.777430e+00 7.301772e+00 
5.812210e+00 7.216817e+00 
5.846820e+00 7.133702e+00 
5.881610e+00 7.051508e+00 
5.916510e+00 6.970374e+00 
5.951600e+00 6.890175e+00 
5.986560e+00 6.811577e+00 
6.021830e+00 6.733539e+00 
6.056490e+00 6.658130e+00 
6.091160e+00 6.583932e+00 
6.125830e+00 6.510876e+00 
6.161090e+00 6.437769e+00 
6.195760e+00 6.367082e+00 
6.230420e+00 6.297486e+00 
6.265690e+00 6.227748e+00 
6.300950e+00 6.159209e+00 
6.335620e+00 6.092831e+00 
6.370880e+00 6.026335e+00 
6.405550e+00 5.962034e+00 
6.440220e+00 5.898723e+00 
6.475480e+00 5.835283e+00 
6.510150e+00 5.773855e+00 
6.544810e+00 5.713408e+00 
6.580080e+00 5.652791e+00 
6.614750e+00 5.594068e+00 
6.649410e+00 5.536361e+00 
6.684080e+00 5.479489e+00 
6.719340e+00 5.422472e+00 
6.754010e+00 5.367243e+00 
6.788680e+00 5.312875e+00 
6.823940e+00 5.258359e+00 
6.859800e+00 5.203702e+00 
6.894470e+00 5.151710e+00 
6.929140e+00 5.100472e+00 
6.963800e+00 5.049947e+00 
6.999070e+00 4.999244e+00 
7.033730e+00 4.950209e+00 
7.068400e+00 4.901819e+00 
7.103660e+00 4.853270e+00 
7.138330e+00 4.806232e+00 
7.173600e+00 4.759137e+00 
7.208260e+00 4.713473e+00 
7.243530e+00 4.667622e+00 
7.277600e+00 4.623990e+00 
7.312860e+00 4.579496e+00 
7.348120e+00 4.535588e+00 
7.382790e+00 4.492977e+00 
7.417460e+00 4.451003e+00 
7.452720e+00 4.408911e+00 
7.487390e+00 4.368055e+00 
7.522650e+00 4.327035e+00 
7.557320e+00 4.287313e+00 
7.591990e+00 4.248126e+00 
7.627250e+00 4.208774e+00 
7.662510e+00 4.169921e+00 
7.697180e+00 4.132299e+00 
7.731850e+00 4.095180e+00 
7.766510e+00 4.058528e+00 
7.801180e+00 4.022313e+00 
7.836440e+00 3.986031e+00 
7.871110e+00 3.950852e+00 
7.906380e+00 3.915499e+00 
7.941040e+00 3.881179e+00 
7.976310e+00 3.846728e+00 
8.011570e+00 3.812765e+00 
8.046240e+00 3.779770e+00 
8.080900e+00 3.747175e+00 
8.115570e+00 3.714981e+00 
8.150830e+00 3.682730e+00 
8.185500e+00 3.651393e+00 
8.220770e+00 3.619886e+00 
8.255430e+00 3.589286e+00 
8.290100e+00 3.559142e+00 
8.324770e+00 3.529357e+00 
8.359430e+00 3.499921e+00 
8.394700e+00 3.470311e+00 
8.429960e+00 3.441117e+00 
8.464630e+00 3.412805e+00 
8.499890e+00 3.384338e+00 
8.534560e+00 3.356663e+00 
8.569200e+00 3.329320e+00 
