# Parameters:
# omega_b = 0.021909, omega_m = 0.131299, n_s = 0.892520, h = 76.496063, w = -1.000000, sigma_8 = 0.881102
# z = 1.100000
#
# k[1/Mpc] # P(k):
8.694000e-04 1.054271e+04 
2.077466e-03 2.094901e+04 
3.285532e-03 2.847243e+04 
4.493598e-03 3.387139e+04 
5.701664e-03 3.758548e+04 
6.909730e-03 3.996617e+04 
8.117797e-03 4.135421e+04 
9.325863e-03 4.192394e+04 
1.053393e-02 4.183743e+04 
1.174199e-02 4.123624e+04 
1.295006e-02 4.021135e+04 
1.415813e-02 3.887916e+04 
1.536619e-02 3.733438e+04 
1.657426e-02 3.563634e+04 
1.778233e-02 3.380947e+04 
1.899039e-02 3.191565e+04 
2.019846e-02 3.005764e+04 
2.140652e-02 2.830971e+04 
2.261459e-02 2.667319e+04 
2.382266e-02 2.515521e+04 
2.503072e-02 2.376502e+04 
2.623879e-02 2.250327e+04 
2.744685e-02 2.136984e+04 
2.865492e-02 2.035912e+04 
2.986299e-02 1.946207e+04 
3.100100e-02 1.871592e+04 
3.220400e-02 1.802019e+04 
3.288100e-02 1.766879e+04 
3.424300e-02 1.703522e+04 
3.555100e-02 1.650335e+04 
3.686000e-02 1.603410e+04 
3.795000e-02 1.568036e+04 
3.929100e-02 1.528131e+04 
4.039800e-02 1.497094e+04 
4.164000e-02 1.463524e+04 
4.294400e-02 1.428263e+04 
4.415000e-02 1.395685e+04 
4.542900e-02 1.359625e+04 
4.660900e-02 1.325695e+04 
4.782300e-02 1.288413e+04 
4.892900e-02 1.253609e+04 
5.031200e-02 1.208492e+04 
5.155900e-02 1.166404e+04 
5.238100e-02 1.138281e+04 
5.378200e-02 1.090066e+04 
5.513400e-02 1.043518e+04 
5.627600e-02 1.004681e+04 
5.735300e-02 9.688772e+03 
5.870100e-02 9.255636e+03 
5.988700e-02 8.892270e+03 
6.113500e-02 8.529897e+03 
6.225900e-02 8.223741e+03 
6.340100e-02 7.934203e+03 
6.480200e-02 7.607809e+03 
6.601100e-02 7.354649e+03 
6.725500e-02 7.120380e+03 
6.829100e-02 6.946866e+03 
6.958600e-02 6.751051e+03 
7.071100e-02 6.601186e+03 
7.192300e-02 6.457398e+03 
7.307400e-02 6.335775e+03 
7.412300e-02 6.235778e+03 
7.550400e-02 6.118495e+03 
7.663100e-02 6.031102e+03 
7.791200e-02 5.940143e+03 
7.912700e-02 5.858420e+03 
8.027600e-02 5.782920e+03 
8.138400e-02 5.710488e+03 
8.272200e-02 5.621693e+03 
8.406100e-02 5.529775e+03 
8.534100e-02 5.435959e+03 
8.653800e-02 5.342284e+03 
8.759800e-02 5.255933e+03 
8.900300e-02 5.135718e+03 
9.009000e-02 5.037714e+03 
9.113300e-02 4.939465e+03 
9.239600e-02 4.818550e+03 
9.358000e-02 4.702525e+03 
9.496100e-02 4.564637e+03 
9.608400e-02 4.453331e+03 
9.727500e-02 4.336938e+03 
9.852600e-02 4.216269e+03 
9.973800e-02 4.103622e+03 
1.009000e-01 3.999417e+03 
1.020900e-01 3.899027e+03 
1.034000e-01 3.794562e+03 
1.046000e-01 3.704562e+03 
1.057200e-01 3.628486e+03 
1.069100e-01 3.552140e+03 
1.082500e-01 3.475289e+03 
1.093900e-01 3.416094e+03 
1.105400e-01 3.360419e+03 
1.116900e-01 3.311859e+03 
1.129600e-01 3.261471e+03 
1.142000e-01 3.217961e+03 
1.153300e-01 3.180596e+03 
1.166400e-01 3.140386e+03 
1.177800e-01 3.107018e+03 
1.190000e-01 3.072521e+03 
1.201200e-01 3.040692e+03 
1.213400e-01 3.006678e+03 
1.227100e-01 2.966281e+03 
1.238900e-01 2.931452e+03 
1.250700e-01 2.894380e+03 
1.263200e-01 2.854678e+03 
1.275500e-01 2.813534e+03 
1.287500e-01 2.772815e+03 
1.299900e-01 2.729325e+03 
1.311300e-01 2.689054e+03 
1.323500e-01 2.645123e+03 
1.335900e-01 2.600740e+03 
1.347100e-01 2.560514e+03 
1.359800e-01 2.515646e+03 
1.372100e-01 2.472608e+03 
1.384300e-01 2.430948e+03 
1.395700e-01 2.392935e+03 
1.407700e-01 2.353891e+03 
1.420300e-01 2.314594e+03 
1.432800e-01 2.276522e+03 
1.444500e-01 2.242901e+03 
1.456300e-01 2.209716e+03 
1.468900e-01 2.176277e+03 
1.480500e-01 2.146510e+03 
1.491700e-01 2.118988e+03 
1.503800e-01 2.090675e+03 
1.516400e-01 2.062066e+03 
1.528200e-01 2.036956e+03 
1.540200e-01 2.011919e+03 
1.551900e-01 1.988872e+03 
1.564300e-01 1.965133e+03 
1.576600e-01 1.942370e+03 
1.588700e-01 1.920794e+03 
1.600900e-01 1.899462e+03 
1.612700e-01 1.879459e+03 
1.625400e-01 1.858331e+03 
1.637600e-01 1.838304e+03 
1.649500e-01 1.819058e+03 
1.662200e-01 1.798814e+03 
1.674000e-01 1.779899e+03 
1.685000e-01 1.762565e+03 
1.697500e-01 1.742839e+03 
1.710300e-01 1.722648e+03 
1.722200e-01 1.704214e+03 
1.734400e-01 1.684875e+03 
1.746400e-01 1.666155e+03 
1.758700e-01 1.647105e+03 
1.770900e-01 1.628136e+03 
1.782700e-01 1.610107e+03 
1.794600e-01 1.592009e+03 
1.807000e-01 1.573328e+03 
1.819100e-01 1.555416e+03 
1.830100e-01 1.539326e+03 
1.842200e-01 1.521901e+03 
1.855000e-01 1.503795e+03 
1.867000e-01 1.487273e+03 
1.879200e-01 1.470755e+03 
1.890900e-01 1.455228e+03 
1.902800e-01 1.439969e+03 
1.915200e-01 1.424328e+03 
1.926900e-01 1.409908e+03 
1.939000e-01 1.395557e+03 
1.951700e-01 1.380738e+03 
1.963100e-01 1.367744e+03 
1.975100e-01 1.354537e+03 
1.987800e-01 1.340779e+03 
2.000100e-01 1.327759e+03 
2.012500e-01 1.315051e+03 
2.023400e-01 1.304042e+03 
2.036100e-01 1.291436e+03 
2.048900e-01 1.279059e+03 
2.060400e-01 1.268104e+03 
2.072200e-01 1.257025e+03 
2.084200e-01 1.245966e+03 
2.096900e-01 1.234436e+03 
2.109200e-01 1.223434e+03 
2.121100e-01 1.212880e+03 
2.132700e-01 1.202732e+03 
2.145200e-01 1.191950e+03 
2.157200e-01 1.181682e+03 
2.168800e-01 1.171862e+03 
2.180700e-01 1.161925e+03 
2.193400e-01 1.151424e+03 
2.206000e-01 1.141073e+03 
2.217500e-01 1.131756e+03 
2.229500e-01 1.122162e+03 
2.241400e-01 1.112683e+03 
2.253500e-01 1.103172e+03 
2.264900e-01 1.094329e+03 
2.277100e-01 1.084956e+03 
2.289900e-01 1.075222e+03 
2.301500e-01 1.066518e+03 
2.313600e-01 1.057558e+03 
2.325600e-01 1.048764e+03 
2.337700e-01 1.040012e+03 
2.350000e-01 1.031234e+03 
2.362000e-01 1.022790e+03 
2.374100e-01 1.014397e+03 
2.386500e-01 1.005908e+03 
2.399100e-01 9.973965e+02 
2.410400e-01 9.898932e+02 
2.422500e-01 9.819614e+02 
2.435000e-01 9.738724e+02 
2.447300e-01 9.660291e+02 
2.458700e-01 9.589045e+02 
2.470600e-01 9.515562e+02 
2.483300e-01 9.438122e+02 
2.495600e-01 9.364380e+02 
2.507600e-01 9.293737e+02 
2.519600e-01 9.223945e+02 
2.532200e-01 9.151562e+02 
2.543700e-01 9.086755e+02 
2.555500e-01 9.021338e+02 
2.568000e-01 8.952867e+02 
2.580100e-01 8.887382e+02 
2.592400e-01 8.822113e+02 
2.604100e-01 8.760971e+02 
2.616100e-01 8.698974e+02 
2.628400e-01 8.636166e+02 
2.640600e-01 8.574980e+02 
2.652200e-01 8.517610e+02 
2.664300e-01 8.458435e+02 
2.676500e-01 8.399450e+02 
2.688400e-01 8.342827e+02 
2.700700e-01 8.285122e+02 
2.712400e-01 8.230841e+02 
2.724800e-01 8.173949e+02 
2.736700e-01 8.120098e+02 
2.748800e-01 8.066083e+02 
2.761000e-01 8.012221e+02 
2.773200e-01 7.958952e+02 
2.785400e-01 7.906316e+02 
2.797000e-01 7.856906e+02 
2.808900e-01 7.806748e+02 
2.821400e-01 7.754631e+02 
2.833900e-01 7.703090e+02 
2.845500e-01 7.655804e+02 
2.857800e-01 7.606189e+02 
2.870300e-01 7.556311e+02 
2.882100e-01 7.509723e+02 
2.893900e-01 7.463640e+02 
2.906300e-01 7.415734e+02 
2.918900e-01 7.367577e+02 
2.930500e-01 7.323699e+02 
2.942500e-01 7.278766e+02 
2.954200e-01 7.235405e+02 
2.966500e-01 7.190282e+02 
2.978900e-01 7.145264e+02 
2.990400e-01 7.103929e+02 
3.002700e-01 7.060172e+02 
3.015100e-01 7.016516e+02 
3.026800e-01 6.975736e+02 
3.038500e-01 6.935347e+02 
3.050300e-01 6.895006e+02 
3.062600e-01 6.853419e+02 
3.075000e-01 6.811914e+02 
3.087000e-01 6.772145e+02 
3.099100e-01 6.732434e+02 
3.111200e-01 6.693147e+02 
3.123100e-01 6.654945e+02 
3.135300e-01 6.616155e+02 
3.147300e-01 6.578368e+02 
3.159900e-01 6.539077e+02 
3.171800e-01 6.502404e+02 
3.183700e-01 6.466122e+02 
3.196300e-01 6.428073e+02 
3.208400e-01 6.391885e+02 
3.220300e-01 6.356626e+02 
3.232000e-01 6.322362e+02 
3.244300e-01 6.286707e+02 
3.256700e-01 6.251102e+02 
3.269200e-01 6.215550e+02 
3.280800e-01 6.182861e+02 
3.292500e-01 6.150306e+02 
3.304800e-01 6.116431e+02 
3.317100e-01 6.082869e+02 
3.328900e-01 6.050961e+02 
3.340700e-01 6.019334e+02 
3.353600e-01 5.985201e+02 
3.365300e-01 5.954572e+02 
3.377100e-01 5.923949e+02 
3.389200e-01 5.892822e+02 
3.401600e-01 5.861210e+02 
3.413700e-01 5.830755e+02 
3.425300e-01 5.801890e+02 
3.437700e-01 5.771302e+02 
3.449800e-01 5.741717e+02 
3.461800e-01 5.712631e+02 
3.473600e-01 5.684322e+02 
3.485800e-01 5.655421e+02 
3.498100e-01 5.626537e+02 
3.510200e-01 5.598367e+02 
3.522000e-01 5.571128e+02 
3.533900e-01 5.543886e+02 
3.546400e-01 5.515669e+02 
3.558400e-01 5.488821e+02 
3.570600e-01 5.461755e+02 
3.582700e-01 5.435136e+02 
3.595000e-01 5.408306e+02 
3.607100e-01 5.382215e+02 
3.618900e-01 5.357043e+02 
3.631200e-01 5.331020e+02 
3.643200e-01 5.305842e+02 
3.655500e-01 5.280247e+02 
3.667300e-01 5.255893e+02 
3.679500e-01 5.231067e+02 
3.691900e-01 5.206043e+02 
3.703600e-01 5.182622e+02 
3.715700e-01 5.158592e+02 
3.727700e-01 5.134951e+02 
3.739900e-01 5.111158e+02 
3.752000e-01 5.087838e+02 
3.763900e-01 5.065084e+02 
3.775800e-01 5.042508e+02 
3.788200e-01 5.019170e+02 
3.800300e-01 4.996578e+02 
3.812100e-01 4.974773e+02 
3.824200e-01 4.952625e+02 
3.836100e-01 4.931010e+02 
3.848600e-01 4.908484e+02 
3.860400e-01 4.887385e+02 
3.872400e-01 4.866091e+02 
3.884600e-01 4.844684e+02 
3.896500e-01 4.823992e+02 
3.908700e-01 4.802939e+02 
3.920600e-01 4.782559e+02 
3.933100e-01 4.761316e+02 
3.945300e-01 4.740743e+02 
3.957200e-01 4.720908e+02 
3.969300e-01 4.700914e+02 
3.981700e-01 4.680579e+02 
3.993500e-01 4.661372e+02 
4.094840e-01 4.502123e+02 
4.272360e-01 4.247212e+02 
4.454600e-01 4.012218e+02 
4.630560e-01 3.807241e+02 
4.804610e-01 3.622850e+02 
4.980690e-01 3.452538e+02 
5.159230e-01 3.294524e+02 
5.317440e-01 3.165486e+02 
5.489640e-01 3.035610e+02 
5.671990e-01 2.909006e+02 
5.838690e-01 2.801993e+02 
6.018840e-01 2.694805e+02 
6.202330e-01 2.593866e+02 
6.379250e-01 2.503527e+02 
6.545410e-01 2.424572e+02 
6.714560e-01 2.349216e+02 
6.892080e-01 2.275321e+02 
7.066010e-01 2.207514e+02 
7.240540e-01 2.143628e+02 
7.420450e-01 2.081765e+02 
7.593780e-01 2.025610e+02 
7.764720e-01 1.973228e+02 
7.942840e-01 1.921608e+02 
8.116170e-01 1.873998e+02 
8.288310e-01 1.829062e+02 
8.462240e-01 1.785824e+02 
8.631980e-01 1.745525e+02 
8.810700e-01 1.705026e+02 
8.989410e-01 1.666341e+02 
9.166330e-01 1.629674e+02 
9.345640e-01 1.594083e+02 
9.515980e-01 1.561564e+02 
9.688720e-01 1.529817e+02 
9.865640e-01 1.498484e+02 
1.031870e+00 1.423314e+02 
1.063490e+00 1.374623e+02 
1.097920e+00 1.324786e+02 
1.134370e+00 1.275191e+02 
1.167730e+00 1.232426e+02 
1.203830e+00 1.188593e+02 
1.240470e+00 1.146627e+02 
1.275790e+00 1.108221e+02 
1.309140e+00 1.073860e+02 
1.342970e+00 1.040481e+02 
1.378420e+00 1.007232e+02 
1.413200e+00 9.760821e+01 
1.448110e+00 9.462308e+01 
1.484090e+00 9.168783e+01 
1.518820e+00 8.897893e+01 
1.552880e+00 8.643038e+01 
1.588630e+00 8.386941e+01 
1.623230e+00 8.149495e+01 
1.657720e+00 7.922301e+01 
1.692450e+00 7.703009e+01 
1.726400e+00 7.496407e+01 
1.762200e+00 7.286872e+01 
1.797880e+00 7.086596e+01 
1.833270e+00 6.895441e+01 
1.869070e+00 6.709416e+01 
1.903200e+00 6.538825e+01 
1.937740e+00 6.372368e+01 
1.973190e+00 6.207522e+01 
2.007440e+00 6.054073e+01 
2.042160e+00 5.903990e+01 
2.077900e+00 5.754704e+01 
2.112390e+00 5.615910e+01 
2.146220e+00 5.483930e+01 
2.181600e+00 5.350605e+01 
2.216930e+00 5.222031e+01 
2.250760e+00 5.102933e+01 
2.286500e+00 4.981184e+01 
2.321770e+00 4.865007e+01 
2.355950e+00 4.756049e+01 
2.391280e+00 4.646773e+01 
2.426240e+00 4.542110e+01 
2.460670e+00 4.442303e+01 
2.495640e+00 4.344101e+01 
2.531080e+00 4.247349e+01 
2.566220e+00 4.154394e+01 
2.600830e+00 4.065660e+01 
2.635080e+00 3.980499e+01 
2.670340e+00 3.895295e+01 
2.705970e+00 3.811746e+01 
2.740040e+00 3.734164e+01 
2.774520e+00 3.657691e+01 
2.809730e+00 3.581872e+01 
2.844390e+00 3.509432e+01 
2.879960e+00 3.437170e+01 
2.914860e+00 3.368174e+01 
2.949410e+00 3.301785e+01 
2.984440e+00 3.236280e+01 
3.019760e+00 3.172006e+01 
3.054730e+00 3.110129e+01 
3.089030e+00 3.050976e+01 
3.124060e+00 2.992180e+01 
3.159560e+00 2.934144e+01 
3.194710e+00 2.878200e+01 
3.229010e+00 2.825083e+01 
3.263320e+00 2.773222e+01 
3.297930e+00 2.722255e+01 
3.332830e+00 2.672103e+01 
3.368040e+00 2.622796e+01 
3.403300e+00 2.574693e+01 
3.438450e+00 2.527928e+01 
3.473060e+00 2.483069e+01 
3.508440e+00 2.438257e+01 
3.543110e+00 2.395467e+01 
3.577470e+00 2.354055e+01 
3.613040e+00 2.312236e+01 
3.648120e+00 2.271930e+01 
3.682910e+00 2.232934e+01 
3.718050e+00 2.194480e+01 
3.753320e+00 2.156816e+01 
3.787980e+00 2.120671e+01 
3.822290e+00 2.085716e+01 
3.857020e+00 2.051126e+01 
3.891920e+00 2.017167e+01 
3.926650e+00 1.984124e+01 
3.961970e+00 1.951301e+01 
3.997360e+00 1.919167e+01 
4.031670e+00 1.888723e+01 
4.066330e+00 1.858629e+01 
4.101420e+00 1.828852e+01 
4.136200e+00 1.799964e+01 
4.170810e+00 1.771858e+01 
4.206250e+00 1.743681e+01 
4.241580e+00 1.716214e+01 
4.276300e+00 1.689812e+01 
4.310970e+00 1.664018e+01 
4.346120e+00 1.638429e+01 
4.380600e+00 1.613862e+01 
4.414730e+00 1.590052e+01 
4.450350e+00 1.565723e+01 
4.485320e+00 1.542344e+01 
4.519810e+00 1.519763e+01 
4.555430e+00 1.496927e+01 
4.590870e+00 1.474684e+01 
4.625480e+00 1.453414e+01 
4.659910e+00 1.432678e+01 
4.695230e+00 1.411842e+01 
4.729960e+00 1.391765e+01 
4.764450e+00 1.372224e+01 
4.799530e+00 1.352745e+01 
4.834910e+00 1.333489e+01 
4.869700e+00 1.314940e+01 
4.904370e+00 1.296814e+01 
4.939450e+00 1.278832e+01 
4.973940e+00 1.261508e+01 
5.008430e+00 1.244509e+01 
5.043810e+00 1.227406e+01 
5.078840e+00 1.210796e+01 
5.113500e+00 1.194667e+01 
5.148890e+00 1.178536e+01 
5.184210e+00 1.162738e+01 
5.219060e+00 1.147442e+01 
5.253660e+00 1.132548e+01 
5.288570e+00 1.117789e+01 
5.323420e+00 1.103333e+01 
5.358440e+00 1.089079e+01 
5.393590e+00 1.075027e+01 
5.428310e+00 1.061413e+01 
5.462800e+00 1.048136e+01 
5.497640e+00 1.034955e+01 
5.532670e+00 1.021954e+01 
5.567280e+00 1.009335e+01 
5.602000e+00 9.968915e+00 
5.637270e+00 9.844912e+00 
5.672410e+00 9.723527e+00 
5.707020e+00 9.605977e+00 
5.742040e+00 9.489279e+00 
5.777430e+00 9.373374e+00 
5.812210e+00 9.261354e+00 
5.846820e+00 9.151917e+00 
5.881610e+00 9.043749e+00 
5.916510e+00 8.936995e+00 
5.951600e+00 8.831615e+00 
5.986560e+00 8.728413e+00 
6.021830e+00 8.625965e+00 
6.056490e+00 8.527071e+00 
6.091160e+00 8.429851e+00 
6.125830e+00 8.334144e+00 
6.161090e+00 8.238428e+00 
6.195760e+00 8.145986e+00 
6.230420e+00 8.054986e+00 
6.265690e+00 7.963818e+00 
6.300950e+00 7.874364e+00 
6.335620e+00 7.787744e+00 
6.370880e+00 7.700982e+00 
6.405550e+00 7.617169e+00 
6.440220e+00 7.534688e+00 
6.475480e+00 7.452051e+00 
6.510150e+00 7.372078e+00 
6.544810e+00 7.293474e+00 
6.580080e+00 7.214658e+00 
6.614750e+00 7.138313e+00 
6.649410e+00 7.063369e+00 
6.684080e+00 6.989530e+00 
6.719340e+00 6.915512e+00 
6.754010e+00 6.843850e+00 
6.788680e+00 6.773377e+00 
6.823940e+00 6.702719e+00 
6.859800e+00 6.631886e+00 
6.894470e+00 6.564563e+00 
6.929140e+00 6.498239e+00 
6.963800e+00 6.432845e+00 
6.999070e+00 6.367232e+00 
7.033730e+00 6.303843e+00 
7.068400e+00 6.241295e+00 
7.103660e+00 6.178547e+00 
7.138330e+00 6.117775e+00 
7.173600e+00 6.056969e+00 
7.208260e+00 5.998016e+00 
7.243530e+00 5.938826e+00 
7.277600e+00 5.882532e+00 
7.312860e+00 5.825155e+00 
7.348120e+00 5.768539e+00 
7.382790e+00 5.713599e+00 
7.417460e+00 5.659514e+00 
7.452720e+00 5.605299e+00 
7.487390e+00 5.552679e+00 
7.522650e+00 5.499851e+00 
7.557320e+00 5.448719e+00 
7.591990e+00 5.398288e+00 
7.627250e+00 5.347649e+00 
7.662510e+00 5.297655e+00 
7.697180e+00 5.249271e+00 
7.731850e+00 5.201549e+00 
7.766510e+00 5.154429e+00 
7.801180e+00 5.107875e+00 
7.836440e+00 5.061247e+00 
7.871110e+00 5.016046e+00 
7.906380e+00 4.970625e+00 
7.941040e+00 4.926534e+00 
7.976310e+00 4.882287e+00 
8.011570e+00 4.838683e+00 
8.046240e+00 4.796323e+00 
8.080900e+00 4.754479e+00 
8.115570e+00 4.713156e+00 
8.150830e+00 4.671772e+00 
8.185500e+00 4.631562e+00 
8.220770e+00 4.591138e+00 
8.255430e+00 4.551879e+00 
8.290100e+00 4.513224e+00 
8.324770e+00 4.475033e+00 
8.359430e+00 4.437292e+00 
8.394700e+00 4.399329e+00 
8.429960e+00 4.361904e+00 
8.464630e+00 4.325615e+00 
8.499890e+00 4.289128e+00 
8.534560e+00 4.253658e+00 
8.569200e+00 4.218617e+00 
