# Parameters:
# omega_b = 0.023421, omega_m = 0.140669, n_s = 0.988583, h = 72.007874, w = -1.000000, sigma_8 = 0.841732
# z = 1.100000
#
# k[1/Mpc] # P(k):
8.694000e-04 5.170660e+03 
2.077466e-03 1.128397e+04 
3.285532e-03 1.614204e+04 
4.493598e-03 1.993933e+04 
5.701664e-03 2.279284e+04 
6.909730e-03 2.484642e+04 
8.117797e-03 2.627186e+04 
9.325863e-03 2.715527e+04 
1.053393e-02 2.758221e+04 
1.174199e-02 2.763123e+04 
1.295006e-02 2.735496e+04 
1.415813e-02 2.682600e+04 
1.536619e-02 2.610523e+04 
1.657426e-02 2.523222e+04 
1.778233e-02 2.422419e+04 
1.899039e-02 2.313294e+04 
2.019846e-02 2.203373e+04 
2.140652e-02 2.097513e+04 
2.261459e-02 1.995829e+04 
2.382266e-02 1.899306e+04 
2.503072e-02 1.809103e+04 
2.623879e-02 1.725699e+04 
2.744685e-02 1.649352e+04 
2.865492e-02 1.580190e+04 
2.986299e-02 1.517935e+04 
3.100100e-02 1.465452e+04 
3.220400e-02 1.415990e+04 
3.288100e-02 1.390809e+04 
3.424300e-02 1.345182e+04 
3.555100e-02 1.306756e+04 
3.686000e-02 1.272901e+04 
3.795000e-02 1.247503e+04 
3.929100e-02 1.219178e+04 
4.039800e-02 1.197439e+04 
4.164000e-02 1.174195e+04 
4.294400e-02 1.150155e+04 
4.415000e-02 1.128101e+04 
4.542900e-02 1.103794e+04 
4.660900e-02 1.080886e+04 
4.782300e-02 1.055524e+04 
4.892900e-02 1.031639e+04 
5.031200e-02 1.000274e+04 
5.155900e-02 9.705250e+03 
5.238100e-02 9.503788e+03 
5.378200e-02 9.153538e+03 
5.513400e-02 8.808834e+03 
5.627600e-02 8.516274e+03 
5.735300e-02 8.242741e+03 
5.870100e-02 7.906935e+03 
5.988700e-02 7.621321e+03 
6.113500e-02 7.332920e+03 
6.225900e-02 7.086322e+03 
6.340100e-02 6.850642e+03 
6.480200e-02 6.582405e+03 
6.601100e-02 6.371836e+03 
6.725500e-02 6.175054e+03 
6.829100e-02 6.027849e+03 
6.958600e-02 5.860599e+03 
7.071100e-02 5.731626e+03 
7.192300e-02 5.607287e+03 
7.307400e-02 5.501825e+03 
7.412300e-02 5.415104e+03 
7.550400e-02 5.313760e+03 
7.663100e-02 5.238730e+03 
7.791200e-02 5.161765e+03 
7.912700e-02 5.093962e+03 
8.027600e-02 5.032462e+03 
8.138400e-02 4.974439e+03 
8.272200e-02 4.904592e+03 
8.406100e-02 4.833448e+03 
8.534100e-02 4.761843e+03 
8.653800e-02 4.690773e+03 
8.759800e-02 4.625336e+03 
8.900300e-02 4.534134e+03 
9.009000e-02 4.459456e+03 
9.113300e-02 4.384045e+03 
9.239600e-02 4.290614e+03 
9.358000e-02 4.200076e+03 
9.496100e-02 4.090938e+03 
9.608400e-02 4.001807e+03 
9.727500e-02 3.907738e+03 
9.852600e-02 3.808125e+03 
9.973800e-02 3.714073e+03 
1.009000e-01 3.626190e+03 
1.020900e-01 3.539493e+03 
1.034000e-01 3.448308e+03 
1.046000e-01 3.368750e+03 
1.057200e-01 3.299981e+03 
1.069100e-01 3.230440e+03 
1.082500e-01 3.159008e+03 
1.093900e-01 3.103242e+03 
1.105400e-01 3.050337e+03 
1.116900e-01 3.003445e+03 
1.129600e-01 2.954612e+03 
1.142000e-01 2.912191e+03 
1.153300e-01 2.875912e+03 
1.166400e-01 2.837107e+03 
1.177800e-01 2.805590e+03 
1.190000e-01 2.773335e+03 
1.201200e-01 2.744826e+03 
1.213400e-01 2.714578e+03 
1.227100e-01 2.680560e+03 
1.238900e-01 2.651562e+03 
1.250700e-01 2.621719e+03 
1.263200e-01 2.590022e+03 
1.275500e-01 2.557732e+03 
1.287500e-01 2.525858e+03 
1.299900e-01 2.491940e+03 
1.311300e-01 2.460370e+03 
1.323500e-01 2.425697e+03 
1.335900e-01 2.390296e+03 
1.347100e-01 2.357743e+03 
1.359800e-01 2.321017e+03 
1.372100e-01 2.284999e+03 
1.384300e-01 2.249752e+03 
1.395700e-01 2.216729e+03 
1.407700e-01 2.182679e+03 
1.420300e-01 2.147256e+03 
1.432800e-01 2.112930e+03 
1.444500e-01 2.081656e+03 
1.456300e-01 2.050788e+03 
1.468900e-01 2.019211e+03 
1.480500e-01 1.990960e+03 
1.491700e-01 1.964744e+03 
1.503800e-01 1.937649e+03 
1.516400e-01 1.910301e+03 
1.528200e-01 1.886408e+03 
1.540200e-01 1.862586e+03 
1.551900e-01 1.840975e+03 
1.564300e-01 1.818797e+03 
1.576600e-01 1.797766e+03 
1.588700e-01 1.778120e+03 
1.600900e-01 1.758724e+03 
1.612700e-01 1.741034e+03 
1.625400e-01 1.722348e+03 
1.637600e-01 1.704868e+03 
1.649500e-01 1.688202e+03 
1.662200e-01 1.670699e+03 
1.674000e-01 1.654506e+03 
1.685000e-01 1.639662e+03 
1.697500e-01 1.622757e+03 
1.710300e-01 1.605439e+03 
1.722200e-01 1.589625e+03 
1.734400e-01 1.572868e+03 
1.746400e-01 1.556636e+03 
1.758700e-01 1.540031e+03 
1.770900e-01 1.523327e+03 
1.782700e-01 1.507445e+03 
1.794600e-01 1.491347e+03 
1.807000e-01 1.474623e+03 
1.819100e-01 1.458584e+03 
1.830100e-01 1.443988e+03 
1.842200e-01 1.428148e+03 
1.855000e-01 1.411680e+03 
1.867000e-01 1.396479e+03 
1.879200e-01 1.381281e+03 
1.890900e-01 1.366975e+03 
1.902800e-01 1.352827e+03 
1.915200e-01 1.338323e+03 
1.926900e-01 1.324940e+03 
1.939000e-01 1.311585e+03 
1.951700e-01 1.297794e+03 
1.963100e-01 1.285703e+03 
1.975100e-01 1.273422e+03 
1.987800e-01 1.260627e+03 
2.000100e-01 1.248532e+03 
2.012500e-01 1.236762e+03 
2.023400e-01 1.226566e+03 
2.036100e-01 1.214903e+03 
2.048900e-01 1.203509e+03 
2.060400e-01 1.193422e+03 
2.072200e-01 1.183226e+03 
2.084200e-01 1.173111e+03 
2.096900e-01 1.162562e+03 
2.109200e-01 1.152497e+03 
2.121100e-01 1.142892e+03 
2.132700e-01 1.133656e+03 
2.145200e-01 1.123844e+03 
2.157200e-01 1.114520e+03 
2.168800e-01 1.105612e+03 
2.180700e-01 1.096596e+03 
2.193400e-01 1.087071e+03 
2.206000e-01 1.077687e+03 
2.217500e-01 1.069239e+03 
2.229500e-01 1.060540e+03 
2.241400e-01 1.051935e+03 
2.253500e-01 1.043301e+03 
2.264900e-01 1.035272e+03 
2.277100e-01 1.026753e+03 
2.289900e-01 1.017894e+03 
2.301500e-01 1.009973e+03 
2.313600e-01 1.001816e+03 
2.325600e-01 9.937876e+02 
2.337700e-01 9.857968e+02 
2.350000e-01 9.777802e+02 
2.362000e-01 9.700581e+02 
2.374100e-01 9.623685e+02 
2.386500e-01 9.545902e+02 
2.399100e-01 9.467900e+02 
2.410400e-01 9.398949e+02 
2.422500e-01 9.326029e+02 
2.435000e-01 9.251657e+02 
2.447300e-01 9.179500e+02 
2.458700e-01 9.113803e+02 
2.470600e-01 9.046037e+02 
2.483300e-01 8.974615e+02 
2.495600e-01 8.906518e+02 
2.507600e-01 8.841170e+02 
2.519600e-01 8.776602e+02 
2.532200e-01 8.709633e+02 
2.543700e-01 8.649587e+02 
2.555500e-01 8.588917e+02 
2.568000e-01 8.525410e+02 
2.580100e-01 8.464669e+02 
2.592400e-01 8.404033e+02 
2.604100e-01 8.347187e+02 
2.616100e-01 8.289545e+02 
2.628400e-01 8.231143e+02 
2.640600e-01 8.174192e+02 
2.652200e-01 8.120768e+02 
2.664300e-01 8.065660e+02 
2.676500e-01 8.010726e+02 
2.688400e-01 7.957958e+02 
2.700700e-01 7.904160e+02 
2.712400e-01 7.853550e+02 
2.724800e-01 7.800504e+02 
2.736700e-01 7.750280e+02 
2.748800e-01 7.699889e+02 
2.761000e-01 7.649639e+02 
2.773200e-01 7.599940e+02 
2.785400e-01 7.550830e+02 
2.797000e-01 7.504728e+02 
2.808900e-01 7.457927e+02 
2.821400e-01 7.409294e+02 
2.833900e-01 7.361198e+02 
2.845500e-01 7.317075e+02 
2.857800e-01 7.270775e+02 
2.870300e-01 7.224229e+02 
2.882100e-01 7.180751e+02 
2.893900e-01 7.137740e+02 
2.906300e-01 7.093024e+02 
2.918900e-01 7.048072e+02 
2.930500e-01 7.007112e+02 
2.942500e-01 6.965162e+02 
2.954200e-01 6.924665e+02 
2.966500e-01 6.882521e+02 
2.978900e-01 6.840472e+02 
2.990400e-01 6.801862e+02 
3.002700e-01 6.760969e+02 
3.015100e-01 6.720161e+02 
3.026800e-01 6.682038e+02 
3.038500e-01 6.644280e+02 
3.050300e-01 6.606564e+02 
3.062600e-01 6.567647e+02 
3.075000e-01 6.528806e+02 
3.087000e-01 6.491587e+02 
3.099100e-01 6.454421e+02 
3.111200e-01 6.417636e+02 
3.123100e-01 6.381843e+02 
3.135300e-01 6.345498e+02 
3.147300e-01 6.310090e+02 
3.159900e-01 6.273272e+02 
3.171800e-01 6.238875e+02 
3.183700e-01 6.204823e+02 
3.196300e-01 6.169113e+02 
3.208400e-01 6.135147e+02 
3.220300e-01 6.102052e+02 
3.232000e-01 6.069868e+02 
3.244300e-01 6.036368e+02 
3.256700e-01 6.002914e+02 
3.269200e-01 5.969509e+02 
3.280800e-01 5.938791e+02 
3.292500e-01 5.908177e+02 
3.304800e-01 5.876312e+02 
3.317100e-01 5.844740e+02 
3.328900e-01 5.814724e+02 
3.340700e-01 5.784971e+02 
3.353600e-01 5.752838e+02 
3.365300e-01 5.723996e+02 
3.377100e-01 5.695158e+02 
3.389200e-01 5.665846e+02 
3.401600e-01 5.636075e+02 
3.413700e-01 5.607387e+02 
3.425300e-01 5.580193e+02 
3.437700e-01 5.551375e+02 
3.449800e-01 5.523501e+02 
3.461800e-01 5.496097e+02 
3.473600e-01 5.469421e+02 
3.485800e-01 5.442182e+02 
3.498100e-01 5.414957e+02 
3.510200e-01 5.388405e+02 
3.522000e-01 5.362730e+02 
3.533900e-01 5.337051e+02 
3.546400e-01 5.310456e+02 
3.558400e-01 5.285150e+02 
3.570600e-01 5.259638e+02 
3.582700e-01 5.234547e+02 
3.595000e-01 5.209255e+02 
3.607100e-01 5.184663e+02 
3.618900e-01 5.160938e+02 
3.631200e-01 5.136411e+02 
3.643200e-01 5.112679e+02 
3.655500e-01 5.088554e+02 
3.667300e-01 5.065597e+02 
3.679500e-01 5.042206e+02 
3.691900e-01 5.018627e+02 
3.703600e-01 4.996558e+02 
3.715700e-01 4.973915e+02 
3.727700e-01 4.951638e+02 
3.739900e-01 4.929222e+02 
3.752000e-01 4.907260e+02 
3.763900e-01 4.885831e+02 
3.775800e-01 4.864569e+02 
3.788200e-01 4.842588e+02 
3.800300e-01 4.821310e+02 
3.812100e-01 4.800778e+02 
3.824200e-01 4.779927e+02 
3.836100e-01 4.759578e+02 
3.848600e-01 4.738370e+02 
3.860400e-01 4.718505e+02 
3.872400e-01 4.698456e+02 
3.884600e-01 4.678310e+02 
3.896500e-01 4.658838e+02 
3.908700e-01 4.639028e+02 
3.920600e-01 4.619851e+02 
3.933100e-01 4.599860e+02 
3.945300e-01 4.580500e+02 
3.957200e-01 4.561841e+02 
3.969300e-01 4.543033e+02 
3.981700e-01 4.523905e+02 
3.993500e-01 4.505838e+02 
4.094840e-01 4.356025e+02 
4.272360e-01 4.116219e+02 
4.454600e-01 3.894901e+02 
4.630560e-01 3.701529e+02 
4.804610e-01 3.527198e+02 
4.980690e-01 3.365780e+02 
5.159230e-01 3.215628e+02 
5.317440e-01 3.092735e+02 
5.489640e-01 2.968796e+02 
5.671990e-01 2.847723e+02 
5.838690e-01 2.745235e+02 
6.018840e-01 2.642462e+02 
6.202330e-01 2.545588e+02 
6.379250e-01 2.458818e+02 
6.545410e-01 2.382965e+02 
6.714560e-01 2.310558e+02 
6.892080e-01 2.239539e+02 
7.066010e-01 2.174404e+02 
7.240540e-01 2.113025e+02 
7.420450e-01 2.053635e+02 
7.593780e-01 1.999752e+02 
7.764720e-01 1.949507e+02 
7.942840e-01 1.900010e+02 
8.116170e-01 1.854393e+02 
8.288310e-01 1.811369e+02 
8.462240e-01 1.769982e+02 
8.631980e-01 1.731441e+02 
8.810700e-01 1.692716e+02 
8.989410e-01 1.655741e+02 
9.166330e-01 1.620707e+02 
9.345640e-01 1.586707e+02 
9.515980e-01 1.555660e+02 
9.688720e-01 1.525353e+02 
9.865640e-01 1.495448e+02 
1.031870e+00 1.423678e+02 
1.063490e+00 1.377178e+02 
1.097920e+00 1.329565e+02 
1.134370e+00 1.282138e+02 
1.167730e+00 1.241217e+02 
1.203830e+00 1.199212e+02 
1.240470e+00 1.158954e+02 
1.275790e+00 1.122051e+02 
1.309140e+00 1.088995e+02 
1.342970e+00 1.056817e+02 
1.378420e+00 1.024733e+02 
1.413200e+00 9.946181e+01 
1.448110e+00 9.656987e+01 
1.484090e+00 9.372287e+01 
1.518820e+00 9.108990e+01 
1.552880e+00 8.860795e+01 
1.588630e+00 8.610910e+01 
1.623230e+00 8.378897e+01 
1.657720e+00 8.156569e+01 
1.692450e+00 7.941507e+01 
1.726400e+00 7.738525e+01 
1.762200e+00 7.532359e+01 
1.797880e+00 7.334889e+01 
1.833270e+00 7.146183e+01 
1.869070e+00 6.962192e+01 
1.903200e+00 6.793163e+01 
1.937740e+00 6.627991e+01 
1.973190e+00 6.464170e+01 
2.007440e+00 6.311416e+01 
2.042160e+00 6.161747e+01 
2.077900e+00 6.012691e+01 
2.112390e+00 5.873873e+01 
2.146220e+00 5.741708e+01 
2.181600e+00 5.607972e+01 
2.216930e+00 5.478802e+01 
2.250760e+00 5.359001e+01 
2.286500e+00 5.236383e+01 
2.321770e+00 5.119218e+01 
2.355950e+00 5.009161e+01 
2.391280e+00 4.898626e+01 
2.426240e+00 4.792617e+01 
2.460670e+00 4.691405e+01 
2.495640e+00 4.591716e+01 
2.531080e+00 4.493367e+01 
2.566220e+00 4.398753e+01 
2.600830e+00 4.308326e+01 
2.635080e+00 4.221442e+01 
2.670340e+00 4.134359e+01 
2.705970e+00 4.048895e+01 
2.740040e+00 3.969473e+01 
2.774520e+00 3.891114e+01 
2.809730e+00 3.813304e+01 
2.844390e+00 3.738881e+01 
2.879960e+00 3.664549e+01 
2.914860e+00 3.593516e+01 
2.949410e+00 3.525115e+01 
2.984440e+00 3.457521e+01 
3.019760e+00 3.391153e+01 
3.054730e+00 3.327221e+01 
3.089030e+00 3.265992e+01 
3.124060e+00 3.205098e+01 
3.159560e+00 3.144949e+01 
3.194710e+00 3.086896e+01 
3.229010e+00 3.031737e+01 
3.263320e+00 2.977806e+01 
3.297930e+00 2.924776e+01 
3.332830e+00 2.872552e+01 
3.368040e+00 2.821163e+01 
3.403300e+00 2.770993e+01 
3.438450e+00 2.722156e+01 
3.473060e+00 2.675287e+01 
3.508440e+00 2.628415e+01 
3.543110e+00 2.583638e+01 
3.577470e+00 2.540246e+01 
3.613040e+00 2.496409e+01 
3.648120e+00 2.454129e+01 
3.682910e+00 2.413198e+01 
3.718050e+00 2.372793e+01 
3.753320e+00 2.333194e+01 
3.787980e+00 2.295161e+01 
3.822290e+00 2.258359e+01 
3.857020e+00 2.221912e+01 
3.891920e+00 2.186109e+01 
3.926650e+00 2.151241e+01 
3.961970e+00 2.116589e+01 
3.997360e+00 2.082638e+01 
4.031670e+00 2.050459e+01 
4.066330e+00 2.018616e+01 
4.101420e+00 1.987099e+01 
4.136200e+00 1.956499e+01 
4.170810e+00 1.926718e+01 
4.206250e+00 1.896843e+01 
4.241580e+00 1.867710e+01 
4.276300e+00 1.839682e+01 
4.310970e+00 1.812280e+01 
4.346120e+00 1.785084e+01 
4.380600e+00 1.758958e+01 
4.414730e+00 1.733632e+01 
4.450350e+00 1.707729e+01 
4.485320e+00 1.682832e+01 
4.519810e+00 1.658767e+01 
4.555430e+00 1.634417e+01 
4.590870e+00 1.610690e+01 
4.625480e+00 1.587987e+01 
4.659910e+00 1.565849e+01 
4.695230e+00 1.543585e+01 
4.729960e+00 1.522127e+01 
4.764450e+00 1.501231e+01 
4.799530e+00 1.480389e+01 
4.834910e+00 1.459780e+01 
4.869700e+00 1.439914e+01 
4.904370e+00 1.420496e+01 
4.939450e+00 1.401226e+01 
4.973940e+00 1.382647e+01 
5.008430e+00 1.364414e+01 
5.043810e+00 1.346060e+01 
5.078840e+00 1.328228e+01 
5.113500e+00 1.310909e+01 
5.148890e+00 1.293572e+01 
5.184210e+00 1.276589e+01 
5.219060e+00 1.260141e+01 
5.253660e+00 1.244115e+01 
5.288570e+00 1.228233e+01 
5.323420e+00 1.212670e+01 
5.358440e+00 1.197318e+01 
5.393590e+00 1.182180e+01 
5.428310e+00 1.167506e+01 
5.462800e+00 1.153188e+01 
5.497640e+00 1.138973e+01 
5.532670e+00 1.124941e+01 
5.567280e+00 1.111319e+01 
5.602000e+00 1.097884e+01 
5.637270e+00 1.084487e+01 
5.672410e+00 1.071371e+01 
5.707020e+00 1.058666e+01 
5.742040e+00 1.046045e+01 
5.777430e+00 1.033507e+01 
5.812210e+00 1.021387e+01 
5.846820e+00 1.009539e+01 
5.881610e+00 9.978257e+00 
5.916510e+00 9.862637e+00 
5.951600e+00 9.748444e+00 
5.986560e+00 9.636576e+00 
6.021830e+00 9.525510e+00 
6.056490e+00 9.418252e+00 
6.091160e+00 9.312769e+00 
6.125830e+00 9.208915e+00 
6.161090e+00 9.105014e+00 
6.195760e+00 9.004608e+00 
6.230420e+00 8.905755e+00 
6.265690e+00 8.806705e+00 
6.300950e+00 8.709452e+00 
6.335620e+00 8.615268e+00 
6.370880e+00 8.520919e+00 
6.405550e+00 8.429727e+00 
6.440220e+00 8.339957e+00 
6.475480e+00 8.250007e+00 
6.510150e+00 8.162932e+00 
6.544810e+00 8.077299e+00 
6.580080e+00 7.991426e+00 
6.614750e+00 7.908236e+00 
6.649410e+00 7.826521e+00 
6.684080e+00 7.745995e+00 
6.719340e+00 7.665266e+00 
6.754010e+00 7.587078e+00 
6.788680e+00 7.510139e+00 
6.823940e+00 7.432988e+00 
6.859800e+00 7.355640e+00 
6.894470e+00 7.282084e+00 
6.929140e+00 7.209601e+00 
6.963800e+00 7.138129e+00 
6.999070e+00 7.066407e+00 
7.033730e+00 6.997073e+00 
7.068400e+00 6.928652e+00 
7.103660e+00 6.860007e+00 
7.138330e+00 6.793500e+00 
7.173600e+00 6.726917e+00 
7.208260e+00 6.662357e+00 
7.243530e+00 6.597532e+00 
7.277600e+00 6.535847e+00 
7.312860e+00 6.472945e+00 
7.348120e+00 6.410872e+00 
7.382790e+00 6.350632e+00 
7.417460e+00 6.291301e+00 
7.452720e+00 6.231808e+00 
7.487390e+00 6.174061e+00 
7.522650e+00 6.116082e+00 
7.557320e+00 6.059927e+00 
7.591990e+00 6.004526e+00 
7.627250e+00 5.948893e+00 
7.662510e+00 5.893964e+00 
7.697180e+00 5.840774e+00 
7.731850e+00 5.788295e+00 
7.766510e+00 5.736477e+00 
7.801180e+00 5.685277e+00 
7.836440e+00 5.633970e+00 
7.871110e+00 5.584217e+00 
7.906380e+00 5.534218e+00 
7.941040e+00 5.485680e+00 
7.976310e+00 5.436947e+00 
8.011570e+00 5.388895e+00 
8.046240e+00 5.342213e+00 
8.080900e+00 5.296096e+00 
8.115570e+00 5.250544e+00 
8.150830e+00 5.204899e+00 
8.185500e+00 5.160545e+00 
8.220770e+00 5.115954e+00 
8.255430e+00 5.072645e+00 
8.290100e+00 5.029961e+00 
8.324770e+00 4.987783e+00 
8.359430e+00 4.946100e+00 
8.394700e+00 4.904170e+00 
8.429960e+00 4.862817e+00 
8.464630e+00 4.822701e+00 
8.499890e+00 4.782365e+00 
8.534560e+00 4.743153e+00 
8.569200e+00 4.704411e+00 
