# Parameters:
# omega_b = 0.022886, omega_m = 0.150315, n_s = 0.938189, h = 69.409449, w = -1.000000, sigma_8 = 0.816535
# z = 1.100000
#
# k[1/Mpc] # P(k):
8.694000e-04 5.028229e+03 
2.077466e-03 1.055401e+04 
3.285532e-03 1.484948e+04 
4.493598e-03 1.818108e+04 
5.701664e-03 2.068200e+04 
6.909730e-03 2.248800e+04 
8.117797e-03 2.375178e+04 
9.325863e-03 2.455016e+04 
1.053393e-02 2.495822e+04 
1.174199e-02 2.504400e+04 
1.295006e-02 2.485209e+04 
1.415813e-02 2.444321e+04 
1.536619e-02 2.386783e+04 
1.657426e-02 2.315744e+04 
1.778233e-02 2.232156e+04 
1.899039e-02 2.139854e+04 
2.019846e-02 2.045699e+04 
2.140652e-02 1.954430e+04 
2.261459e-02 1.865985e+04 
2.382266e-02 1.781100e+04 
2.503072e-02 1.700853e+04 
2.623879e-02 1.625759e+04 
2.744685e-02 1.556029e+04 
2.865492e-02 1.492027e+04 
2.986299e-02 1.433653e+04 
3.100100e-02 1.383717e+04 
3.220400e-02 1.336010e+04 
3.288100e-02 1.311418e+04 
3.424300e-02 1.266386e+04 
3.555100e-02 1.228015e+04 
3.686000e-02 1.193894e+04 
3.795000e-02 1.168180e+04 
3.929100e-02 1.139516e+04 
4.039800e-02 1.117676e+04 
4.164000e-02 1.094579e+04 
4.294400e-02 1.071236e+04 
4.415000e-02 1.050206e+04 
4.542900e-02 1.027627e+04 
4.660900e-02 1.006698e+04 
4.782300e-02 9.840008e+03 
4.892900e-02 9.628371e+03 
5.031200e-02 9.352857e+03 
5.155900e-02 9.092838e+03 
5.238100e-02 8.916880e+03 
5.378200e-02 8.610614e+03 
5.513400e-02 8.307806e+03 
5.627600e-02 8.049134e+03 
5.735300e-02 7.805549e+03 
5.870100e-02 7.503761e+03 
5.988700e-02 7.244437e+03 
6.113500e-02 6.979762e+03 
6.225900e-02 6.750780e+03 
6.340100e-02 6.529411e+03 
6.480200e-02 6.274667e+03 
6.601100e-02 6.071721e+03 
6.725500e-02 5.879599e+03 
6.829100e-02 5.733752e+03 
6.958600e-02 5.566280e+03 
7.071100e-02 5.435246e+03 
7.192300e-02 5.307364e+03 
7.307400e-02 5.197625e+03 
7.412300e-02 5.106533e+03 
7.550400e-02 4.999114e+03 
7.663100e-02 4.919282e+03 
7.791200e-02 4.837516e+03 
7.912700e-02 4.766336e+03 
8.027600e-02 4.702852e+03 
8.138400e-02 4.644103e+03 
8.272200e-02 4.575210e+03 
8.406100e-02 4.507094e+03 
8.534100e-02 4.440825e+03 
8.653800e-02 4.376702e+03 
8.759800e-02 4.318504e+03 
8.900300e-02 4.238487e+03 
9.009000e-02 4.173625e+03 
9.113300e-02 4.108412e+03 
9.239600e-02 4.027705e+03 
9.358000e-02 3.949431e+03 
9.496100e-02 3.854604e+03 
9.608400e-02 3.776711e+03 
9.727500e-02 3.694098e+03 
9.852600e-02 3.605403e+03 
9.973800e-02 3.520960e+03 
1.009000e-01 3.441478e+03 
1.020900e-01 3.361513e+03 
1.034000e-01 3.276601e+03 
1.046000e-01 3.201670e+03 
1.057200e-01 3.135434e+03 
1.069100e-01 3.067916e+03 
1.082500e-01 2.996988e+03 
1.093900e-01 2.940673e+03 
1.105400e-01 2.886684e+03 
1.116900e-01 2.837644e+03 
1.129600e-01 2.786223e+03 
1.142000e-01 2.740743e+03 
1.153300e-01 2.701733e+03 
1.166400e-01 2.659804e+03 
1.177800e-01 2.626012e+03 
1.190000e-01 2.591551e+03 
1.201200e-01 2.562030e+03 
1.213400e-01 2.530875e+03 
1.227100e-01 2.497678e+03 
1.238900e-01 2.469776e+03 
1.250700e-01 2.442332e+03 
1.263200e-01 2.413613e+03 
1.275500e-01 2.385287e+03 
1.287500e-01 2.357643e+03 
1.299900e-01 2.328708e+03 
1.311300e-01 2.301838e+03 
1.323500e-01 2.272418e+03 
1.335900e-01 2.242208e+03 
1.347100e-01 2.214212e+03 
1.359800e-01 2.182348e+03 
1.372100e-01 2.150560e+03 
1.384300e-01 2.119161e+03 
1.395700e-01 2.089073e+03 
1.407700e-01 2.057948e+03 
1.420300e-01 2.024606e+03 
1.432800e-01 1.992295e+03 
1.444500e-01 1.961988e+03 
1.456300e-01 1.932082e+03 
1.468900e-01 1.901005e+03 
1.480500e-01 1.873061e+03 
1.491700e-01 1.846980e+03 
1.503800e-01 1.819825e+03 
1.516400e-01 1.792409e+03 
1.528200e-01 1.768371e+03 
1.540200e-01 1.744417e+03 
1.551900e-01 1.722773e+03 
1.564300e-01 1.700588e+03 
1.576600e-01 1.679673e+03 
1.588700e-01 1.660283e+03 
1.600900e-01 1.641159e+03 
1.612700e-01 1.624056e+03 
1.625400e-01 1.605990e+03 
1.637600e-01 1.589312e+03 
1.649500e-01 1.573541e+03 
1.662200e-01 1.557022e+03 
1.674000e-01 1.541985e+03 
1.685000e-01 1.528200e+03 
1.697500e-01 1.512593e+03 
1.710300e-01 1.496693e+03 
1.722200e-01 1.482173e+03 
1.734400e-01 1.466850e+03 
1.746400e-01 1.452009e+03 
1.758700e-01 1.436812e+03 
1.770900e-01 1.421497e+03 
1.782700e-01 1.406936e+03 
1.794600e-01 1.392114e+03 
1.807000e-01 1.376677e+03 
1.819100e-01 1.361871e+03 
1.830100e-01 1.348288e+03 
1.842200e-01 1.333529e+03 
1.855000e-01 1.318177e+03 
1.867000e-01 1.303868e+03 
1.879200e-01 1.289562e+03 
1.890900e-01 1.276076e+03 
1.902800e-01 1.262632e+03 
1.915200e-01 1.248852e+03 
1.926900e-01 1.236114e+03 
1.939000e-01 1.223329e+03 
1.951700e-01 1.210128e+03 
1.963100e-01 1.198541e+03 
1.975100e-01 1.186731e+03 
1.987800e-01 1.174429e+03 
2.000100e-01 1.162797e+03 
2.012500e-01 1.151468e+03 
2.023400e-01 1.141655e+03 
2.036100e-01 1.130437e+03 
2.048900e-01 1.119500e+03 
2.060400e-01 1.109818e+03 
2.072200e-01 1.100037e+03 
2.084200e-01 1.090382e+03 
2.096900e-01 1.080314e+03 
2.109200e-01 1.070708e+03 
2.121100e-01 1.061602e+03 
2.132700e-01 1.052852e+03 
2.145200e-01 1.043555e+03 
2.157200e-01 1.034764e+03 
2.168800e-01 1.026384e+03 
2.180700e-01 1.017903e+03 
2.193400e-01 1.008964e+03 
2.206000e-01 1.000194e+03 
2.217500e-01 9.922989e+02 
2.229500e-01 9.841692e+02 
2.241400e-01 9.761682e+02 
2.253500e-01 9.681401e+02 
2.264900e-01 9.606749e+02 
2.277100e-01 9.527681e+02 
2.289900e-01 9.445621e+02 
2.301500e-01 9.372244e+02 
2.313600e-01 9.296687e+02 
2.325600e-01 9.222492e+02 
2.337700e-01 9.148648e+02 
2.350000e-01 9.074563e+02 
2.362000e-01 9.003243e+02 
2.374100e-01 8.932274e+02 
2.386500e-01 8.860484e+02 
2.399100e-01 8.788491e+02 
2.410400e-01 8.724862e+02 
2.422500e-01 8.657572e+02 
2.435000e-01 8.588940e+02 
2.447300e-01 8.522340e+02 
2.458700e-01 8.461659e+02 
2.470600e-01 8.399066e+02 
2.483300e-01 8.333095e+02 
2.495600e-01 8.270139e+02 
2.507600e-01 8.209650e+02 
2.519600e-01 8.149883e+02 
2.532200e-01 8.087892e+02 
2.543700e-01 8.032204e+02 
2.555500e-01 7.975865e+02 
2.568000e-01 7.916891e+02 
2.580100e-01 7.860486e+02 
2.592400e-01 7.804033e+02 
2.604100e-01 7.751044e+02 
2.616100e-01 7.697313e+02 
2.628400e-01 7.642875e+02 
2.640600e-01 7.589641e+02 
2.652200e-01 7.539647e+02 
2.664300e-01 7.488078e+02 
2.676500e-01 7.436672e+02 
2.688400e-01 7.387184e+02 
2.700700e-01 7.336662e+02 
2.712400e-01 7.289136e+02 
2.724800e-01 7.239323e+02 
2.736700e-01 7.192094e+02 
2.748800e-01 7.144643e+02 
2.761000e-01 7.097326e+02 
2.773200e-01 7.050528e+02 
2.785400e-01 7.004258e+02 
2.797000e-01 6.960761e+02 
2.808900e-01 6.916605e+02 
2.821400e-01 6.870724e+02 
2.833900e-01 6.825347e+02 
2.845500e-01 6.783663e+02 
2.857800e-01 6.739925e+02 
2.870300e-01 6.695955e+02 
2.882100e-01 6.654885e+02 
2.893900e-01 6.614232e+02 
2.906300e-01 6.571955e+02 
2.918900e-01 6.529455e+02 
2.930500e-01 6.490732e+02 
2.942500e-01 6.451067e+02 
2.954200e-01 6.412757e+02 
2.966500e-01 6.372889e+02 
2.978900e-01 6.333113e+02 
2.990400e-01 6.296593e+02 
3.002700e-01 6.257895e+02 
3.015100e-01 6.219272e+02 
3.026800e-01 6.183191e+02 
3.038500e-01 6.147457e+02 
3.050300e-01 6.111765e+02 
3.062600e-01 6.074910e+02 
3.075000e-01 6.038128e+02 
3.087000e-01 6.002884e+02 
3.099100e-01 5.967692e+02 
3.111200e-01 5.932854e+02 
3.123100e-01 5.898941e+02 
3.135300e-01 5.864507e+02 
3.147300e-01 5.830962e+02 
3.159900e-01 5.796083e+02 
3.171800e-01 5.763485e+02 
3.183700e-01 5.731208e+02 
3.196300e-01 5.697360e+02 
3.208400e-01 5.665167e+02 
3.220300e-01 5.633801e+02 
3.232000e-01 5.603289e+02 
3.244300e-01 5.571526e+02 
3.256700e-01 5.539808e+02 
3.269200e-01 5.508138e+02 
3.280800e-01 5.479018e+02 
3.292500e-01 5.449987e+02 
3.304800e-01 5.419769e+02 
3.317100e-01 5.389830e+02 
3.328900e-01 5.361367e+02 
3.340700e-01 5.333156e+02 
3.353600e-01 5.302688e+02 
3.365300e-01 5.275341e+02 
3.377100e-01 5.248000e+02 
3.389200e-01 5.220210e+02 
3.401600e-01 5.191986e+02 
3.413700e-01 5.164794e+02 
3.425300e-01 5.139020e+02 
3.437700e-01 5.111709e+02 
3.449800e-01 5.085294e+02 
3.461800e-01 5.059325e+02 
3.473600e-01 5.034051e+02 
3.485800e-01 5.008252e+02 
3.498100e-01 4.982469e+02 
3.510200e-01 4.957324e+02 
3.522000e-01 4.933010e+02 
3.533900e-01 4.908694e+02 
3.546400e-01 4.883529e+02 
3.558400e-01 4.859587e+02 
3.570600e-01 4.835450e+02 
3.582700e-01 4.811713e+02 
3.595000e-01 4.787787e+02 
3.607100e-01 4.764535e+02 
3.618900e-01 4.742115e+02 
3.631200e-01 4.718937e+02 
3.643200e-01 4.696512e+02 
3.655500e-01 4.673715e+02 
3.667300e-01 4.652023e+02 
3.679500e-01 4.629949e+02 
3.691900e-01 4.607698e+02 
3.703600e-01 4.586872e+02 
3.715700e-01 4.565505e+02 
3.727700e-01 4.544485e+02 
3.739900e-01 4.523343e+02 
3.752000e-01 4.502648e+02 
3.763900e-01 4.482455e+02 
3.775800e-01 4.462420e+02 
3.788200e-01 4.441708e+02 
3.800300e-01 4.421659e+02 
3.812100e-01 4.402331e+02 
3.824200e-01 4.382712e+02 
3.836100e-01 4.363568e+02 
3.848600e-01 4.343615e+02 
3.860400e-01 4.324927e+02 
3.872400e-01 4.306066e+02 
3.884600e-01 4.287133e+02 
3.896500e-01 4.268842e+02 
3.908700e-01 4.250233e+02 
3.920600e-01 4.232220e+02 
3.933100e-01 4.213443e+02 
3.945300e-01 4.195258e+02 
3.957200e-01 4.177752e+02 
3.969300e-01 4.160112e+02 
3.981700e-01 4.142172e+02 
3.993500e-01 4.125228e+02 
4.094840e-01 3.984844e+02 
4.272360e-01 3.760674e+02 
4.454600e-01 3.554174e+02 
4.630560e-01 3.373963e+02 
4.804610e-01 3.211592e+02 
4.980690e-01 3.061278e+02 
5.159230e-01 2.921469e+02 
5.317440e-01 2.807051e+02 
5.489640e-01 2.691687e+02 
5.671990e-01 2.579021e+02 
5.838690e-01 2.483695e+02 
6.018840e-01 2.388177e+02 
6.202330e-01 2.298229e+02 
6.379250e-01 2.217716e+02 
6.545410e-01 2.147423e+02 
6.714560e-01 2.080393e+02 
6.892080e-01 2.014705e+02 
7.066010e-01 1.954546e+02 
7.240540e-01 1.897900e+02 
7.420450e-01 1.843173e+02 
7.593780e-01 1.793581e+02 
7.764720e-01 1.747382e+02 
7.942840e-01 1.701915e+02 
8.116170e-01 1.660066e+02 
8.288310e-01 1.620644e+02 
8.462240e-01 1.582758e+02 
8.631980e-01 1.547518e+02 
8.810700e-01 1.512139e+02 
8.989410e-01 1.478394e+02 
9.166330e-01 1.446450e+02 
9.345640e-01 1.415472e+02 
9.515980e-01 1.387218e+02 
9.688720e-01 1.359663e+02 
9.865640e-01 1.332498e+02 
1.031870e+00 1.267388e+02 
1.063490e+00 1.225276e+02 
1.097920e+00 1.182212e+02 
1.134370e+00 1.139376e+02 
1.167730e+00 1.102465e+02 
1.203830e+00 1.064625e+02 
1.240470e+00 1.028398e+02 
1.275790e+00 9.952328e+01 
1.309140e+00 9.655441e+01 
1.342970e+00 9.366799e+01 
1.378420e+00 9.079231e+01 
1.413200e+00 8.809559e+01 
1.448110e+00 8.550766e+01 
1.484090e+00 8.296226e+01 
1.518820e+00 8.060975e+01 
1.552880e+00 7.839360e+01 
1.588630e+00 7.616357e+01 
1.623230e+00 7.409464e+01 
1.657720e+00 7.211316e+01 
1.692450e+00 7.019700e+01 
1.726400e+00 6.838975e+01 
1.762200e+00 6.655532e+01 
1.797880e+00 6.479862e+01 
1.833270e+00 6.312094e+01 
1.869070e+00 6.148604e+01 
1.903200e+00 5.998431e+01 
1.937740e+00 5.851741e+01 
1.973190e+00 5.706329e+01 
2.007440e+00 5.570771e+01 
2.042160e+00 5.437978e+01 
2.077900e+00 5.305802e+01 
2.112390e+00 5.182700e+01 
2.146220e+00 5.065576e+01 
2.181600e+00 4.947064e+01 
2.216930e+00 4.832633e+01 
2.250760e+00 4.726529e+01 
2.286500e+00 4.617960e+01 
2.321770e+00 4.514244e+01 
2.355950e+00 4.416820e+01 
2.391280e+00 4.319014e+01 
2.426240e+00 4.225218e+01 
2.460670e+00 4.135679e+01 
2.495640e+00 4.047507e+01 
2.531080e+00 3.960552e+01 
2.566220e+00 3.876905e+01 
2.600830e+00 3.796966e+01 
2.635080e+00 3.720161e+01 
2.670340e+00 3.643184e+01 
2.705970e+00 3.567657e+01 
2.740040e+00 3.497486e+01 
2.774520e+00 3.428274e+01 
2.809730e+00 3.359541e+01 
2.844390e+00 3.293799e+01 
2.879960e+00 3.228137e+01 
2.914860e+00 3.165411e+01 
2.949410e+00 3.105013e+01 
2.984440e+00 3.045321e+01 
3.019760e+00 2.986729e+01 
3.054730e+00 2.930297e+01 
3.089030e+00 2.876240e+01 
3.124060e+00 2.822487e+01 
3.159560e+00 2.769405e+01 
3.194710e+00 2.718168e+01 
3.229010e+00 2.669485e+01 
3.263320e+00 2.621881e+01 
3.297930e+00 2.575079e+01 
3.332830e+00 2.529002e+01 
3.368040e+00 2.483658e+01 
3.403300e+00 2.439388e+01 
3.438450e+00 2.396292e+01 
3.473060e+00 2.354932e+01 
3.508440e+00 2.313578e+01 
3.543110e+00 2.274073e+01 
3.577470e+00 2.235784e+01 
3.613040e+00 2.197105e+01 
3.648120e+00 2.159810e+01 
3.682910e+00 2.123702e+01 
3.718050e+00 2.088056e+01 
3.753320e+00 2.053121e+01 
3.787980e+00 2.019568e+01 
3.822290e+00 1.987100e+01 
3.857020e+00 1.954946e+01 
3.891920e+00 1.923360e+01 
3.926650e+00 1.892598e+01 
3.961970e+00 1.862027e+01 
3.997360e+00 1.832073e+01 
4.031670e+00 1.803683e+01 
4.066330e+00 1.775591e+01 
4.101420e+00 1.747787e+01 
4.136200e+00 1.720791e+01 
4.170810e+00 1.694518e+01 
4.206250e+00 1.668165e+01 
4.241580e+00 1.642468e+01 
4.276300e+00 1.617742e+01 
4.310970e+00 1.593567e+01 
4.346120e+00 1.569575e+01 
4.380600e+00 1.546528e+01 
4.414730e+00 1.524186e+01 
4.450350e+00 1.501334e+01 
4.485320e+00 1.479370e+01 
4.519810e+00 1.458139e+01 
4.555430e+00 1.436657e+01 
4.590870e+00 1.415725e+01 
4.625480e+00 1.395696e+01 
4.659910e+00 1.376166e+01 
4.695230e+00 1.356525e+01 
4.729960e+00 1.337594e+01 
4.764450e+00 1.319159e+01 
4.799530e+00 1.300770e+01 
4.834910e+00 1.282589e+01 
4.869700e+00 1.265063e+01 
4.904370e+00 1.247932e+01 
4.939450e+00 1.230932e+01 
4.973940e+00 1.214542e+01 
5.008430e+00 1.198456e+01 
5.043810e+00 1.182265e+01 
5.078840e+00 1.166535e+01 
5.113500e+00 1.151257e+01 
5.148890e+00 1.135962e+01 
5.184210e+00 1.120980e+01 
5.219060e+00 1.106470e+01 
5.253660e+00 1.092334e+01 
5.288570e+00 1.078324e+01 
5.323420e+00 1.064597e+01 
5.358440e+00 1.051055e+01 
5.393590e+00 1.037704e+01 
5.428310e+00 1.024761e+01 
5.462800e+00 1.012133e+01 
5.497640e+00 9.995948e+00 
5.532670e+00 9.872194e+00 
5.567280e+00 9.752051e+00 
5.602000e+00 9.633557e+00 
5.637270e+00 9.515416e+00 
5.672410e+00 9.399747e+00 
5.707020e+00 9.287719e+00 
5.742040e+00 9.176426e+00 
5.777430e+00 9.065866e+00 
5.812210e+00 8.959000e+00 
5.846820e+00 8.854541e+00 
5.881610e+00 8.751271e+00 
5.916510e+00 8.649340e+00 
5.951600e+00 8.548673e+00 
5.986560e+00 8.450059e+00 
6.021830e+00 8.352156e+00 
6.056490e+00 8.257614e+00 
6.091160e+00 8.164641e+00 
6.125830e+00 8.073108e+00 
6.161090e+00 7.981539e+00 
6.195760e+00 7.893058e+00 
6.230420e+00 7.805950e+00 
6.265690e+00 7.718672e+00 
6.300950e+00 7.632986e+00 
6.335620e+00 7.550007e+00 
6.370880e+00 7.466885e+00 
6.405550e+00 7.386556e+00 
6.440220e+00 7.307484e+00 
6.475480e+00 7.228258e+00 
6.510150e+00 7.151568e+00 
6.544810e+00 7.076156e+00 
6.580080e+00 7.000537e+00 
6.614750e+00 6.927282e+00 
6.649410e+00 6.855340e+00 
6.684080e+00 6.784448e+00 
6.719340e+00 6.713380e+00 
6.754010e+00 6.644555e+00 
6.788680e+00 6.576838e+00 
6.823940e+00 6.508937e+00 
6.859800e+00 6.440865e+00 
6.894470e+00 6.376144e+00 
6.929140e+00 6.312372e+00 
6.963800e+00 6.249492e+00 
6.999070e+00 6.186395e+00 
7.033730e+00 6.125414e+00 
7.068400e+00 6.065237e+00 
7.103660e+00 6.004864e+00 
7.138330e+00 5.946380e+00 
7.173600e+00 5.887842e+00 
7.208260e+00 5.831084e+00 
7.243530e+00 5.774094e+00 
7.277600e+00 5.719875e+00 
7.312860e+00 5.664593e+00 
7.348120e+00 5.610042e+00 
7.382790e+00 5.557103e+00 
7.417460e+00 5.504974e+00 
7.452720e+00 5.452708e+00 
7.487390e+00 5.401977e+00 
7.522650e+00 5.351044e+00 
7.557320e+00 5.301729e+00 
7.591990e+00 5.253082e+00 
7.627250e+00 5.204231e+00 
7.662510e+00 5.156001e+00 
7.697180e+00 5.109309e+00 
7.731850e+00 5.063248e+00 
7.766510e+00 5.017766e+00 
7.801180e+00 4.972828e+00 
7.836440e+00 4.927810e+00 
7.871110e+00 4.884163e+00 
7.906380e+00 4.840302e+00 
7.941040e+00 4.797723e+00 
7.976310e+00 4.754982e+00 
8.011570e+00 4.712847e+00 
8.046240e+00 4.671913e+00 
8.080900e+00 4.631476e+00 
8.115570e+00 4.591539e+00 
8.150830e+00 4.551535e+00 
8.185500e+00 4.512665e+00 
8.220770e+00 4.473586e+00 
8.255430e+00 4.435631e+00 
8.290100e+00 4.398239e+00 
8.324770e+00 4.361291e+00 
8.359430e+00 4.324777e+00 
8.394700e+00 4.288048e+00 
8.429960e+00 4.251834e+00 
8.464630e+00 4.216712e+00 
8.499890e+00 4.181399e+00 
8.534560e+00 4.147069e+00 
8.569200e+00 4.113152e+00 
