# Parameters:
# omega_b = 0.022508, omega_m = 0.144803, n_s = 0.974409, h = 73.425197, w = -1.000000, sigma_8 = 0.788189
# z = 1.100000
#
# k[1/Mpc] # P(k):
8.694000e-04 4.249619e+03 
2.077466e-03 9.187868e+03 
3.285532e-03 1.310819e+04 
4.493598e-03 1.617284e+04 
5.701664e-03 1.849083e+04 
6.909730e-03 2.017370e+04 
8.117797e-03 2.135415e+04 
9.325863e-03 2.210014e+04 
1.053393e-02 2.248106e+04 
1.174199e-02 2.256144e+04 
1.295006e-02 2.238315e+04 
1.415813e-02 2.200307e+04 
1.536619e-02 2.146893e+04 
1.657426e-02 2.081084e+04 
1.778233e-02 2.003813e+04 
1.899039e-02 1.918167e+04 
2.019846e-02 1.830465e+04 
2.140652e-02 1.745656e+04 
2.261459e-02 1.663926e+04 
2.382266e-02 1.585937e+04 
2.503072e-02 1.512646e+04 
2.623879e-02 1.444501e+04 
2.744685e-02 1.381728e+04 
2.865492e-02 1.324547e+04 
2.986299e-02 1.272807e+04 
3.100100e-02 1.228957e+04 
3.220400e-02 1.187448e+04 
3.288100e-02 1.166244e+04 
3.424300e-02 1.127738e+04 
3.555100e-02 1.095260e+04 
3.686000e-02 1.066660e+04 
3.795000e-02 1.045253e+04 
3.929100e-02 1.021514e+04 
4.039800e-02 1.003423e+04 
4.164000e-02 9.842151e+03 
4.294400e-02 9.645506e+03 
4.415000e-02 9.466131e+03 
4.542900e-02 9.269511e+03 
4.660900e-02 9.084506e+03 
4.782300e-02 8.879526e+03 
4.892900e-02 8.686019e+03 
5.031200e-02 8.430851e+03 
5.155900e-02 8.187442e+03 
5.238100e-02 8.021820e+03 
5.378200e-02 7.732439e+03 
5.513400e-02 7.445680e+03 
5.627600e-02 7.200832e+03 
5.735300e-02 6.970733e+03 
5.870100e-02 6.686687e+03 
5.988700e-02 6.443807e+03 
6.113500e-02 6.197357e+03 
6.225900e-02 5.985716e+03 
6.340100e-02 5.782781e+03 
6.480200e-02 5.551321e+03 
6.601100e-02 5.369405e+03 
6.725500e-02 5.199419e+03 
6.829100e-02 5.072399e+03 
6.958600e-02 4.928311e+03 
7.071100e-02 4.817419e+03 
7.192300e-02 4.710719e+03 
7.307400e-02 4.620401e+03 
7.412300e-02 4.546265e+03 
7.550400e-02 4.459832e+03 
7.663100e-02 4.395981e+03 
7.791200e-02 4.330709e+03 
7.912700e-02 4.273456e+03 
8.027600e-02 4.221761e+03 
8.138400e-02 4.173210e+03 
8.272200e-02 4.115097e+03 
8.406100e-02 4.056271e+03 
8.534100e-02 3.997490e+03 
8.653800e-02 3.939461e+03 
8.759800e-02 3.886189e+03 
8.900300e-02 3.812134e+03 
9.009000e-02 3.751588e+03 
9.113300e-02 3.690431e+03 
9.239600e-02 3.614576e+03 
9.358000e-02 3.540896e+03 
9.496100e-02 3.451646e+03 
9.608400e-02 3.378420e+03 
9.727500e-02 3.300850e+03 
9.852600e-02 3.217864e+03 
9.973800e-02 3.139082e+03 
1.009000e-01 3.065118e+03 
1.020900e-01 2.991252e+03 
1.034000e-01 2.913161e+03 
1.046000e-01 2.844609e+03 
1.057200e-01 2.784712e+03 
1.069100e-01 2.723947e+03 
1.082500e-01 2.660973e+03 
1.093900e-01 2.611558e+03 
1.105400e-01 2.564529e+03 
1.116900e-01 2.522640e+03 
1.129600e-01 2.478995e+03 
1.142000e-01 2.441100e+03 
1.153300e-01 2.408810e+03 
1.166400e-01 2.374453e+03 
1.177800e-01 2.346900e+03 
1.190000e-01 2.318871e+03 
1.201200e-01 2.294680e+03 
1.213400e-01 2.269120e+03 
1.227100e-01 2.241225e+03 
1.238900e-01 2.217593e+03 
1.250700e-01 2.193721e+03 
1.263200e-01 2.168469e+03 
1.275500e-01 2.142964e+03 
1.287500e-01 2.117787e+03 
1.299900e-01 2.090993e+03 
1.311300e-01 2.065926e+03 
1.323500e-01 2.038209e+03 
1.335900e-01 2.009675e+03 
1.347100e-01 1.983140e+03 
1.359800e-01 1.952966e+03 
1.372100e-01 1.922912e+03 
1.384300e-01 1.893304e+03 
1.395700e-01 1.865101e+03 
1.407700e-01 1.835969e+03 
1.420300e-01 1.805090e+03 
1.432800e-01 1.775177e+03 
1.444500e-01 1.747499e+03 
1.456300e-01 1.720194e+03 
1.468900e-01 1.692109e+03 
1.480500e-01 1.666945e+03 
1.491700e-01 1.643603e+03 
1.503800e-01 1.619486e+03 
1.516400e-01 1.595190e+03 
1.528200e-01 1.574125e+03 
1.540200e-01 1.553131e+03 
1.551900e-01 1.534338e+03 
1.564300e-01 1.515118e+03 
1.576600e-01 1.497057e+03 
1.588700e-01 1.480385e+03 
1.600900e-01 1.463942e+03 
1.612700e-01 1.449261e+03 
1.625400e-01 1.433752e+03 
1.637600e-01 1.419376e+03 
1.649500e-01 1.405747e+03 
1.662200e-01 1.391444e+03 
1.674000e-01 1.378268e+03 
1.685000e-01 1.366190e+03 
1.697500e-01 1.352397e+03 
1.710300e-01 1.338232e+03 
1.722200e-01 1.325295e+03 
1.734400e-01 1.311428e+03 
1.746400e-01 1.297989e+03 
1.758700e-01 1.284176e+03 
1.770900e-01 1.270153e+03 
1.782700e-01 1.256820e+03 
1.794600e-01 1.243200e+03 
1.807000e-01 1.228983e+03 
1.819100e-01 1.215349e+03 
1.830100e-01 1.202837e+03 
1.842200e-01 1.189241e+03 
1.855000e-01 1.175105e+03 
1.867000e-01 1.161978e+03 
1.879200e-01 1.148856e+03 
1.890900e-01 1.136501e+03 
1.902800e-01 1.124258e+03 
1.915200e-01 1.111710e+03 
1.926900e-01 1.100135e+03 
1.939000e-01 1.088591e+03 
1.951700e-01 1.076672e+03 
1.963100e-01 1.066233e+03 
1.975100e-01 1.055656e+03 
1.987800e-01 1.044640e+03 
2.000100e-01 1.034241e+03 
2.012500e-01 1.024156e+03 
2.023400e-01 1.015420e+03 
2.036100e-01 1.005440e+03 
2.048900e-01 9.957324e+02 
2.060400e-01 9.871398e+02 
2.072200e-01 9.784584e+02 
2.084200e-01 9.698881e+02 
2.096900e-01 9.609516e+02 
2.109200e-01 9.524251e+02 
2.121100e-01 9.443265e+02 
2.132700e-01 9.365426e+02 
2.145200e-01 9.282727e+02 
2.157200e-01 9.204385e+02 
2.168800e-01 9.129650e+02 
2.180700e-01 9.054017e+02 
2.193400e-01 8.974264e+02 
2.206000e-01 8.895965e+02 
2.217500e-01 8.825475e+02 
2.229500e-01 8.752892e+02 
2.241400e-01 8.681538e+02 
2.253500e-01 8.609944e+02 
2.264900e-01 8.543371e+02 
2.277100e-01 8.473011e+02 
2.289900e-01 8.400157e+02 
2.301500e-01 8.335011e+02 
2.313600e-01 8.267934e+02 
2.325600e-01 8.202518e+02 
2.337700e-01 8.137411e+02 
2.350000e-01 8.072090e+02 
2.362000e-01 8.009442e+02 
2.374100e-01 7.947381e+02 
2.386500e-01 7.884598e+02 
2.399100e-01 7.821636e+02 
2.410400e-01 7.766377e+02 
2.422500e-01 7.707984e+02 
2.435000e-01 7.648423e+02 
2.447300e-01 7.590683e+02 
2.458700e-01 7.538318e+02 
2.470600e-01 7.484299e+02 
2.483300e-01 7.427361e+02 
2.495600e-01 7.373064e+02 
2.507600e-01 7.320951e+02 
2.519600e-01 7.269456e+02 
2.532200e-01 7.216041e+02 
2.543700e-01 7.167990e+02 
2.555500e-01 7.119332e+02 
2.568000e-01 7.068395e+02 
2.580100e-01 7.019672e+02 
2.592400e-01 6.970712e+02 
2.604100e-01 6.924670e+02 
2.616100e-01 6.877980e+02 
2.628400e-01 6.830673e+02 
2.640600e-01 6.784144e+02 
2.652200e-01 6.740340e+02 
2.664300e-01 6.695154e+02 
2.676500e-01 6.650110e+02 
2.688400e-01 6.606509e+02 
2.700700e-01 6.561849e+02 
2.712400e-01 6.519836e+02 
2.724800e-01 6.475800e+02 
2.736700e-01 6.433881e+02 
2.748800e-01 6.391593e+02 
2.761000e-01 6.349424e+02 
2.773200e-01 6.307717e+02 
2.785400e-01 6.266396e+02 
2.797000e-01 6.227378e+02 
2.808900e-01 6.187768e+02 
2.821400e-01 6.146611e+02 
2.833900e-01 6.105899e+02 
2.845500e-01 6.068328e+02 
2.857800e-01 6.028907e+02 
2.870300e-01 5.989278e+02 
2.882100e-01 5.952262e+02 
2.893900e-01 5.915547e+02 
2.906300e-01 5.877325e+02 
2.918900e-01 5.838903e+02 
2.930500e-01 5.803895e+02 
2.942500e-01 5.768023e+02 
2.954200e-01 5.733329e+02 
2.966500e-01 5.697225e+02 
2.978900e-01 5.661205e+02 
2.990400e-01 5.628134e+02 
3.002700e-01 5.593073e+02 
3.015100e-01 5.558069e+02 
3.026800e-01 5.525371e+02 
3.038500e-01 5.492988e+02 
3.050300e-01 5.460644e+02 
3.062600e-01 5.427241e+02 
3.075000e-01 5.393906e+02 
3.087000e-01 5.361965e+02 
3.099100e-01 5.330072e+02 
3.111200e-01 5.298504e+02 
3.123100e-01 5.267781e+02 
3.135300e-01 5.236586e+02 
3.147300e-01 5.206198e+02 
3.159900e-01 5.174602e+02 
3.171800e-01 5.145081e+02 
3.183700e-01 5.115856e+02 
3.196300e-01 5.085209e+02 
3.208400e-01 5.056062e+02 
3.220300e-01 5.027664e+02 
3.232000e-01 5.000054e+02 
3.244300e-01 4.971318e+02 
3.256700e-01 4.942623e+02 
3.269200e-01 4.913973e+02 
3.280800e-01 4.887630e+02 
3.292500e-01 4.861379e+02 
3.304800e-01 4.834059e+02 
3.317100e-01 4.806993e+02 
3.328900e-01 4.781262e+02 
3.340700e-01 4.755758e+02 
3.353600e-01 4.728227e+02 
3.365300e-01 4.703519e+02 
3.377100e-01 4.678818e+02 
3.389200e-01 4.653711e+02 
3.401600e-01 4.628214e+02 
3.413700e-01 4.603655e+02 
3.425300e-01 4.580384e+02 
3.437700e-01 4.555725e+02 
3.449800e-01 4.531876e+02 
3.461800e-01 4.508429e+02 
3.473600e-01 4.485612e+02 
3.485800e-01 4.462327e+02 
3.498100e-01 4.439057e+02 
3.510200e-01 4.416362e+02 
3.522000e-01 4.394418e+02 
3.533900e-01 4.372473e+02 
3.546400e-01 4.349765e+02 
3.558400e-01 4.328162e+02 
3.570600e-01 4.306383e+02 
3.582700e-01 4.284965e+02 
3.595000e-01 4.263378e+02 
3.607100e-01 4.242398e+02 
3.618900e-01 4.222169e+02 
3.631200e-01 4.201257e+02 
3.643200e-01 4.181023e+02 
3.655500e-01 4.160455e+02 
3.667300e-01 4.140885e+02 
3.679500e-01 4.120966e+02 
3.691900e-01 4.100888e+02 
3.703600e-01 4.082096e+02 
3.715700e-01 4.062817e+02 
3.727700e-01 4.043850e+02 
3.739900e-01 4.024772e+02 
3.752000e-01 4.006094e+02 
3.763900e-01 3.987870e+02 
3.775800e-01 3.969788e+02 
3.788200e-01 3.951096e+02 
3.800300e-01 3.933002e+02 
3.812100e-01 3.915555e+02 
3.824200e-01 3.897843e+02 
3.836100e-01 3.880559e+02 
3.848600e-01 3.862546e+02 
3.860400e-01 3.845675e+02 
3.872400e-01 3.828648e+02 
3.884600e-01 3.811552e+02 
3.896500e-01 3.795034e+02 
3.908700e-01 3.778229e+02 
3.920600e-01 3.761962e+02 
3.933100e-01 3.745006e+02 
3.945300e-01 3.728586e+02 
3.957200e-01 3.712770e+02 
3.969300e-01 3.696831e+02 
3.981700e-01 3.680621e+02 
3.993500e-01 3.665311e+02 
4.094840e-01 3.538464e+02 
4.272360e-01 3.335780e+02 
4.454600e-01 3.149069e+02 
4.630560e-01 2.986197e+02 
4.804610e-01 2.839561e+02 
4.980690e-01 2.703938e+02 
5.159230e-01 2.577919e+02 
5.317440e-01 2.474870e+02 
5.489640e-01 2.371059e+02 
5.671990e-01 2.269735e+02 
5.838690e-01 2.184042e+02 
6.018840e-01 2.098222e+02 
6.202330e-01 2.017443e+02 
6.379250e-01 1.945142e+02 
6.545410e-01 1.882046e+02 
6.714560e-01 1.821906e+02 
6.892080e-01 1.762977e+02 
7.066010e-01 1.709050e+02 
7.240540e-01 1.658288e+02 
7.420450e-01 1.609298e+02 
7.593780e-01 1.564946e+02 
7.764720e-01 1.523666e+02 
7.942840e-01 1.483078e+02 
8.116170e-01 1.445777e+02 
8.288310e-01 1.410694e+02 
8.462240e-01 1.377023e+02 
8.631980e-01 1.345761e+02 
8.810700e-01 1.314421e+02 
8.989410e-01 1.284582e+02 
9.166330e-01 1.256386e+02 
9.345640e-01 1.229088e+02 
9.515980e-01 1.204247e+02 
9.688720e-01 1.180065e+02 
9.865640e-01 1.156277e+02 
1.031870e+00 1.099421e+02 
1.063490e+00 1.062800e+02 
1.097920e+00 1.025470e+02 
1.134370e+00 9.884499e+01 
1.167730e+00 9.566491e+01 
1.203830e+00 9.241409e+01 
1.240470e+00 8.930862e+01 
1.275790e+00 8.647318e+01 
1.309140e+00 8.393841e+01 
1.342970e+00 8.147924e+01 
1.378420e+00 7.903238e+01 
1.413200e+00 7.674101e+01 
1.448110e+00 7.454400e+01 
1.484090e+00 7.238541e+01 
1.518820e+00 7.039160e+01 
1.552880e+00 6.851447e+01 
1.588630e+00 6.662601e+01 
1.623230e+00 6.487488e+01 
1.657720e+00 6.319817e+01 
1.692450e+00 6.157635e+01 
1.726400e+00 6.004693e+01 
1.762200e+00 5.849462e+01 
1.797880e+00 5.700736e+01 
1.833270e+00 5.558711e+01 
1.869070e+00 5.420252e+01 
1.903200e+00 5.292989e+01 
1.937740e+00 5.168640e+01 
1.973190e+00 5.045329e+01 
2.007440e+00 4.930294e+01 
2.042160e+00 4.817523e+01 
2.077900e+00 4.705235e+01 
2.112390e+00 4.600565e+01 
2.146220e+00 4.500938e+01 
2.181600e+00 4.400036e+01 
2.216930e+00 4.302534e+01 
2.250760e+00 4.212066e+01 
2.286500e+00 4.119432e+01 
2.321770e+00 4.030870e+01 
2.355950e+00 3.947596e+01 
2.391280e+00 3.863928e+01 
2.426240e+00 3.783611e+01 
2.460670e+00 3.706876e+01 
2.495640e+00 3.631260e+01 
2.531080e+00 3.556617e+01 
2.566220e+00 3.484746e+01 
2.600830e+00 3.415995e+01 
2.635080e+00 3.349878e+01 
2.670340e+00 3.283524e+01 
2.705970e+00 3.218373e+01 
2.740040e+00 3.157802e+01 
2.774520e+00 3.098010e+01 
2.809730e+00 3.038554e+01 
2.844390e+00 2.981631e+01 
2.879960e+00 2.924713e+01 
2.914860e+00 2.870296e+01 
2.949410e+00 2.817858e+01 
2.984440e+00 2.765961e+01 
3.019760e+00 2.714985e+01 
3.054730e+00 2.665858e+01 
3.089030e+00 2.618715e+01 
3.124060e+00 2.571808e+01 
3.159560e+00 2.525453e+01 
3.194710e+00 2.480649e+01 
3.229010e+00 2.438048e+01 
3.263320e+00 2.396325e+01 
3.297930e+00 2.355283e+01 
3.332830e+00 2.314844e+01 
3.368040e+00 2.275004e+01 
3.403300e+00 2.236072e+01 
3.438450e+00 2.198121e+01 
3.473060e+00 2.161678e+01 
3.508440e+00 2.125194e+01 
3.543110e+00 2.090321e+01 
3.577470e+00 2.056468e+01 
3.613040e+00 2.022253e+01 
3.648120e+00 1.989232e+01 
3.682910e+00 1.957236e+01 
3.718050e+00 1.925611e+01 
3.753320e+00 1.894592e+01 
3.787980e+00 1.864770e+01 
3.822290e+00 1.835888e+01 
3.857020e+00 1.807255e+01 
3.891920e+00 1.779106e+01 
3.926650e+00 1.751662e+01 
3.961970e+00 1.724370e+01 
3.997360e+00 1.697596e+01 
4.031670e+00 1.672207e+01 
4.066330e+00 1.647052e+01 
4.101420e+00 1.622148e+01 
4.136200e+00 1.597932e+01 
4.170810e+00 1.574358e+01 
4.206250e+00 1.550684e+01 
4.241580e+00 1.527589e+01 
4.276300e+00 1.505340e+01 
4.310970e+00 1.483570e+01 
4.346120e+00 1.461949e+01 
4.380600e+00 1.441159e+01 
4.414730e+00 1.421000e+01 
4.450350e+00 1.400349e+01 
4.485320e+00 1.380495e+01 
4.519810e+00 1.361282e+01 
4.555430e+00 1.341829e+01 
4.590870e+00 1.322862e+01 
4.625480e+00 1.304696e+01 
4.659910e+00 1.286978e+01 
4.695230e+00 1.269133e+01 
4.729960e+00 1.251928e+01 
4.764450e+00 1.235161e+01 
4.799530e+00 1.218420e+01 
4.834910e+00 1.201864e+01 
4.869700e+00 1.185885e+01 
4.904370e+00 1.170261e+01 
4.939450e+00 1.154747e+01 
4.973940e+00 1.139773e+01 
5.008430e+00 1.125075e+01 
5.043810e+00 1.110267e+01 
5.078840e+00 1.095870e+01 
5.113500e+00 1.081886e+01 
5.148890e+00 1.067866e+01 
5.184210e+00 1.054129e+01 
5.219060e+00 1.040819e+01 
5.253660e+00 1.027838e+01 
5.288570e+00 1.014971e+01 
5.323420e+00 1.002355e+01 
5.358440e+00 9.899000e+00 
5.393590e+00 9.776177e+00 
5.428310e+00 9.656997e+00 
5.462800e+00 9.540646e+00 
5.497640e+00 9.425109e+00 
5.532670e+00 9.310953e+00 
5.567280e+00 9.200078e+00 
5.602000e+00 9.090707e+00 
5.637270e+00 8.981557e+00 
5.672410e+00 8.874651e+00 
5.707020e+00 8.771095e+00 
5.742040e+00 8.668107e+00 
5.777430e+00 8.565761e+00 
5.812210e+00 8.466820e+00 
5.846820e+00 8.370017e+00 
5.881610e+00 8.274283e+00 
5.916510e+00 8.179778e+00 
5.951600e+00 8.086364e+00 
5.986560e+00 7.994811e+00 
6.021830e+00 7.903907e+00 
6.056490e+00 7.816066e+00 
6.091160e+00 7.729632e+00 
6.125830e+00 7.644526e+00 
6.161090e+00 7.559351e+00 
6.195760e+00 7.476984e+00 
6.230420e+00 7.395886e+00 
6.265690e+00 7.314617e+00 
6.300950e+00 7.234745e+00 
6.335620e+00 7.157388e+00 
6.370880e+00 7.079888e+00 
6.405550e+00 7.004939e+00 
6.440220e+00 6.931137e+00 
6.475480e+00 6.857183e+00 
6.510150e+00 6.785567e+00 
6.544810e+00 6.715092e+00 
6.580080e+00 6.644415e+00 
6.614750e+00 6.575941e+00 
6.649410e+00 6.508643e+00 
6.684080e+00 6.442312e+00 
6.719340e+00 6.375810e+00 
6.754010e+00 6.311383e+00 
6.788680e+00 6.247948e+00 
6.823940e+00 6.184334e+00 
6.859800e+00 6.120554e+00 
6.894470e+00 6.059875e+00 
6.929140e+00 6.000070e+00 
6.963800e+00 5.941095e+00 
6.999070e+00 5.881910e+00 
7.033730e+00 5.824662e+00 
7.068400e+00 5.768165e+00 
7.103660e+00 5.711481e+00 
7.138330e+00 5.656551e+00 
7.173600e+00 5.601540e+00 
7.208260e+00 5.548198e+00 
7.243530e+00 5.494634e+00 
7.277600e+00 5.443650e+00 
7.312860e+00 5.391646e+00 
7.348120e+00 5.340324e+00 
7.382790e+00 5.290516e+00 
7.417460e+00 5.241443e+00 
7.452720e+00 5.192227e+00 
7.487390e+00 5.144453e+00 
7.522650e+00 5.096485e+00 
7.557320e+00 5.050018e+00 
7.591990e+00 5.004169e+00 
7.627250e+00 4.958126e+00 
7.662510e+00 4.912664e+00 
7.697180e+00 4.868629e+00 
7.731850e+00 4.825178e+00 
7.766510e+00 4.782271e+00 
7.801180e+00 4.739876e+00 
7.836440e+00 4.697388e+00 
7.871110e+00 4.656184e+00 
7.906380e+00 4.614775e+00 
7.941040e+00 4.574574e+00 
7.976310e+00 4.534206e+00 
8.011570e+00 4.494396e+00 
8.046240e+00 4.455720e+00 
8.080900e+00 4.417510e+00 
8.115570e+00 4.379767e+00 
8.150830e+00 4.341944e+00 
8.185500e+00 4.305191e+00 
8.220770e+00 4.268239e+00 
8.255430e+00 4.232348e+00 
8.290100e+00 4.196968e+00 
8.324770e+00 4.162006e+00 
8.359430e+00 4.127451e+00 
8.394700e+00 4.092692e+00 
8.429960e+00 4.058411e+00 
8.464630e+00 4.025156e+00 
8.499890e+00 3.991718e+00 
8.534560e+00 3.959210e+00 
8.569200e+00 3.927091e+00 
