# Parameters:
# omega_b = 0.022130, omega_m = 0.131024, n_s = 1.024803, h = 61.850394, w = -1.000000, sigma_8 = 0.744094
# z = 1.100000
#
# k[1/Mpc] # P(k):
8.694000e-04 4.655623e+03 
2.077466e-03 1.039780e+04 
3.285532e-03 1.501099e+04 
4.493598e-03 1.861064e+04 
5.701664e-03 2.131593e+04 
6.909730e-03 2.325258e+04 
8.117797e-03 2.457726e+04 
9.325863e-03 2.537121e+04 
1.053393e-02 2.572061e+04 
1.174199e-02 2.570768e+04 
1.295006e-02 2.538428e+04 
1.415813e-02 2.482158e+04 
1.536619e-02 2.408261e+04 
1.657426e-02 2.321617e+04 
1.778233e-02 2.229261e+04 
1.899039e-02 2.139132e+04 
2.019846e-02 2.048197e+04 
2.140652e-02 1.955119e+04 
2.261459e-02 1.862980e+04 
2.382266e-02 1.775031e+04 
2.503072e-02 1.692811e+04 
2.623879e-02 1.616804e+04 
2.744685e-02 1.547242e+04 
2.865492e-02 1.484199e+04 
2.986299e-02 1.427395e+04 
3.100100e-02 1.379410e+04 
3.220400e-02 1.334031e+04 
3.288100e-02 1.310814e+04 
3.424300e-02 1.268477e+04 
3.555100e-02 1.232439e+04 
3.686000e-02 1.200254e+04 
3.795000e-02 1.175774e+04 
3.929100e-02 1.147985e+04 
4.039800e-02 1.126349e+04 
4.164000e-02 1.102994e+04 
4.294400e-02 1.078660e+04 
4.415000e-02 1.056347e+04 
4.542900e-02 1.031934e+04 
4.660900e-02 1.009127e+04 
4.782300e-02 9.842919e+03 
4.892900e-02 9.611904e+03 
5.031200e-02 9.313074e+03 
5.155900e-02 9.034048e+03 
5.238100e-02 8.847072e+03 
5.378200e-02 8.525201e+03 
5.513400e-02 8.212248e+03 
5.627600e-02 7.949344e+03 
5.735300e-02 7.705612e+03 
5.870100e-02 7.409121e+03 
5.988700e-02 7.158989e+03 
6.113500e-02 6.907806e+03 
6.225900e-02 6.693378e+03 
6.340100e-02 6.487701e+03 
6.480200e-02 6.251655e+03 
6.601100e-02 6.063429e+03 
6.725500e-02 5.884443e+03 
6.829100e-02 5.747891e+03 
6.958600e-02 5.590378e+03 
7.071100e-02 5.466691e+03 
7.192300e-02 5.345742e+03 
7.307400e-02 5.241837e+03 
7.412300e-02 5.155534e+03 
7.550400e-02 5.053653e+03 
7.663100e-02 4.977774e+03 
7.791200e-02 4.899573e+03 
7.912700e-02 4.830699e+03 
8.027600e-02 4.768425e+03 
8.138400e-02 4.709926e+03 
8.272200e-02 4.639955e+03 
8.406100e-02 4.569226e+03 
8.534100e-02 4.498663e+03 
8.653800e-02 4.429123e+03 
8.759800e-02 4.365387e+03 
8.900300e-02 4.277009e+03 
9.009000e-02 4.205022e+03 
9.113300e-02 4.132702e+03 
9.239600e-02 4.043443e+03 
9.358000e-02 3.957388e+03 
9.496100e-02 3.854387e+03 
9.608400e-02 3.770710e+03 
9.727500e-02 3.682741e+03 
9.852600e-02 3.590486e+03 
9.973800e-02 3.503733e+03 
1.009000e-01 3.422952e+03 
1.020900e-01 3.343871e+03 
1.034000e-01 3.260856e+03 
1.046000e-01 3.188593e+03 
1.057200e-01 3.126212e+03 
1.069100e-01 3.063085e+03 
1.082500e-01 2.998059e+03 
1.093900e-01 2.947008e+03 
1.105400e-01 2.898401e+03 
1.116900e-01 2.854730e+03 
1.129600e-01 2.808997e+03 
1.142000e-01 2.768533e+03 
1.153300e-01 2.733587e+03 
1.166400e-01 2.695660e+03 
1.177800e-01 2.664362e+03 
1.190000e-01 2.632088e+03 
1.201200e-01 2.603172e+03 
1.213400e-01 2.572419e+03 
1.227100e-01 2.537660e+03 
1.238900e-01 2.508065e+03 
1.250700e-01 2.477751e+03 
1.263200e-01 2.445692e+03 
1.275500e-01 2.413333e+03 
1.287500e-01 2.381618e+03 
1.299900e-01 2.348214e+03 
1.311300e-01 2.317377e+03 
1.323500e-01 2.283877e+03 
1.335900e-01 2.249931e+03 
1.347100e-01 2.219044e+03 
1.359800e-01 2.184386e+03 
1.372100e-01 2.150759e+03 
1.384300e-01 2.117971e+03 
1.395700e-01 2.087534e+03 
1.407700e-01 2.056173e+03 
1.420300e-01 2.023809e+03 
1.432800e-01 1.992438e+03 
1.444500e-01 1.963961e+03 
1.456300e-01 1.935845e+03 
1.468900e-01 1.907024e+03 
1.480500e-01 1.881215e+03 
1.491700e-01 1.857170e+03 
1.503800e-01 1.832198e+03 
1.516400e-01 1.806926e+03 
1.528200e-01 1.784572e+03 
1.540200e-01 1.762285e+03 
1.551900e-01 1.741757e+03 
1.564300e-01 1.720611e+03 
1.576600e-01 1.700396e+03 
1.588700e-01 1.681310e+03 
1.600900e-01 1.662453e+03 
1.612700e-01 1.644995e+03 
1.625400e-01 1.626556e+03 
1.637600e-01 1.609239e+03 
1.649500e-01 1.592689e+03 
1.662200e-01 1.575316e+03 
1.674000e-01 1.559281e+03 
1.685000e-01 1.544585e+03 
1.697500e-01 1.527942e+03 
1.710300e-01 1.510985e+03 
1.722200e-01 1.495502e+03 
1.734400e-01 1.479337e+03 
1.746400e-01 1.463691e+03 
1.758700e-01 1.447763e+03 
1.770900e-01 1.431897e+03 
1.782700e-01 1.416812e+03 
1.794600e-01 1.401631e+03 
1.807000e-01 1.385932e+03 
1.819100e-01 1.370876e+03 
1.830100e-01 1.357264e+03 
1.842200e-01 1.342505e+03 
1.855000e-01 1.327162e+03 
1.867000e-01 1.313037e+03 
1.879200e-01 1.298913e+03 
1.890900e-01 1.285615e+03 
1.902800e-01 1.272450e+03 
1.915200e-01 1.258953e+03 
1.926900e-01 1.246486e+03 
1.939000e-01 1.234005e+03 
1.951700e-01 1.221116e+03 
1.963100e-01 1.209799e+03 
1.975100e-01 1.198256e+03 
1.987800e-01 1.186230e+03 
2.000100e-01 1.174843e+03 
2.012500e-01 1.163718e+03 
2.023400e-01 1.154079e+03 
2.036100e-01 1.143045e+03 
2.048900e-01 1.132222e+03 
2.060400e-01 1.122642e+03 
2.072200e-01 1.112956e+03 
2.084200e-01 1.103313e+03 
2.096900e-01 1.093257e+03 
2.109200e-01 1.083661e+03 
2.121100e-01 1.074475e+03 
2.132700e-01 1.065642e+03 
2.145200e-01 1.056257e+03 
2.157200e-01 1.047312e+03 
2.168800e-01 1.038752e+03 
2.180700e-01 1.030090e+03 
2.193400e-01 1.020917e+03 
2.206000e-01 1.011839e+03 
2.217500e-01 1.003667e+03 
2.229500e-01 9.952528e+02 
2.241400e-01 9.868429e+02 
2.253500e-01 9.784023e+02 
2.264900e-01 9.705544e+02 
2.277100e-01 9.621716e+02 
2.289900e-01 9.533937e+02 
2.301500e-01 9.455462e+02 
2.313600e-01 9.374658e+02 
2.325600e-01 9.293824e+02 
2.337700e-01 9.213394e+02 
2.350000e-01 9.132725e+02 
2.362000e-01 9.054453e+02 
2.374100e-01 8.975840e+02 
2.386500e-01 8.896345e+02 
2.399100e-01 8.816655e+02 
2.410400e-01 8.745402e+02 
2.422500e-01 8.669972e+02 
2.435000e-01 8.593068e+02 
2.447300e-01 8.518376e+02 
2.458700e-01 8.449958e+02 
2.470600e-01 8.379414e+02 
2.483300e-01 8.305096e+02 
2.495600e-01 8.234255e+02 
2.507600e-01 8.166284e+02 
2.519600e-01 8.099153e+02 
2.532200e-01 8.029553e+02 
2.543700e-01 7.967440e+02 
2.555500e-01 7.904887e+02 
2.568000e-01 7.839431e+02 
2.580100e-01 7.776849e+02 
2.592400e-01 7.714958e+02 
2.604100e-01 7.657201e+02 
2.616100e-01 7.598650e+02 
2.628400e-01 7.539348e+02 
2.640600e-01 7.482232e+02 
2.652200e-01 7.428945e+02 
2.664300e-01 7.373990e+02 
2.676500e-01 7.319223e+02 
2.688400e-01 7.267195e+02 
2.700700e-01 7.214520e+02 
2.712400e-01 7.164975e+02 
2.724800e-01 7.113055e+02 
2.736700e-01 7.064290e+02 
2.748800e-01 7.015769e+02 
2.761000e-01 6.967389e+02 
2.773200e-01 6.919546e+02 
2.785400e-01 6.872458e+02 
2.797000e-01 6.828642e+02 
2.808900e-01 6.784164e+02 
2.821400e-01 6.737952e+02 
2.833900e-01 6.692268e+02 
2.845500e-01 6.650708e+02 
2.857800e-01 6.607102e+02 
2.870300e-01 6.563266e+02 
2.882100e-01 6.522323e+02 
2.893900e-01 6.481962e+02 
2.906300e-01 6.440079e+02 
2.918900e-01 6.397978e+02 
2.930500e-01 6.359618e+02 
2.942500e-01 6.320358e+02 
2.954200e-01 6.282542e+02 
2.966500e-01 6.243189e+02 
2.978900e-01 6.203927e+02 
2.990400e-01 6.167879e+02 
3.002700e-01 6.129729e+02 
3.015100e-01 6.091674e+02 
3.026800e-01 6.056125e+02 
3.038500e-01 6.020918e+02 
3.050300e-01 5.985753e+02 
3.062600e-01 5.949473e+02 
3.075000e-01 5.913266e+02 
3.087000e-01 5.878573e+02 
3.099100e-01 5.843931e+02 
3.111200e-01 5.809644e+02 
3.123100e-01 5.776275e+02 
3.135300e-01 5.742395e+02 
3.147300e-01 5.709390e+02 
3.159900e-01 5.675072e+02 
3.171800e-01 5.643003e+02 
3.183700e-01 5.611254e+02 
3.196300e-01 5.577958e+02 
3.208400e-01 5.546292e+02 
3.220300e-01 5.515440e+02 
3.232000e-01 5.485431e+02 
3.244300e-01 5.454193e+02 
3.256700e-01 5.423001e+02 
3.269200e-01 5.391856e+02 
3.280800e-01 5.363218e+02 
3.292500e-01 5.334671e+02 
3.304800e-01 5.304958e+02 
3.317100e-01 5.275519e+02 
3.328900e-01 5.247533e+02 
3.340700e-01 5.219793e+02 
3.353600e-01 5.189839e+02 
3.365300e-01 5.162953e+02 
3.377100e-01 5.136073e+02 
3.389200e-01 5.108753e+02 
3.401600e-01 5.081006e+02 
3.413700e-01 5.054275e+02 
3.425300e-01 5.028940e+02 
3.437700e-01 5.002094e+02 
3.449800e-01 4.976129e+02 
3.461800e-01 4.950602e+02 
3.473600e-01 4.925759e+02 
3.485800e-01 4.900403e+02 
3.498100e-01 4.875062e+02 
3.510200e-01 4.850348e+02 
3.522000e-01 4.826451e+02 
3.533900e-01 4.802552e+02 
3.546400e-01 4.777821e+02 
3.558400e-01 4.754291e+02 
3.570600e-01 4.730571e+02 
3.582700e-01 4.707243e+02 
3.595000e-01 4.683729e+02 
3.607100e-01 4.660880e+02 
3.618900e-01 4.638847e+02 
3.631200e-01 4.616071e+02 
3.643200e-01 4.594034e+02 
3.655500e-01 4.571632e+02 
3.667300e-01 4.550316e+02 
3.679500e-01 4.528625e+02 
3.691900e-01 4.506760e+02 
3.703600e-01 4.486295e+02 
3.715700e-01 4.465300e+02 
3.727700e-01 4.444644e+02 
3.739900e-01 4.423870e+02 
3.752000e-01 4.403534e+02 
3.763900e-01 4.383692e+02 
3.775800e-01 4.364005e+02 
3.788200e-01 4.343654e+02 
3.800300e-01 4.323953e+02 
3.812100e-01 4.304961e+02 
3.824200e-01 4.285684e+02 
3.836100e-01 4.266872e+02 
3.848600e-01 4.247267e+02 
3.860400e-01 4.228904e+02 
3.872400e-01 4.210371e+02 
3.884600e-01 4.191768e+02 
3.896500e-01 4.173795e+02 
3.908700e-01 4.155511e+02 
3.920600e-01 4.137811e+02 
3.933100e-01 4.119361e+02 
3.945300e-01 4.101493e+02 
3.957200e-01 4.084291e+02 
3.969300e-01 4.066958e+02 
3.981700e-01 4.049330e+02 
3.993500e-01 4.032681e+02 
4.094840e-01 3.894743e+02 
4.272360e-01 3.674485e+02 
4.454600e-01 3.471618e+02 
4.630560e-01 3.294612e+02 
4.804610e-01 3.135169e+02 
4.980690e-01 2.987604e+02 
5.159230e-01 2.850390e+02 
5.317440e-01 2.738122e+02 
5.489640e-01 2.624952e+02 
5.671990e-01 2.514451e+02 
5.838690e-01 2.420971e+02 
6.018840e-01 2.327320e+02 
6.202330e-01 2.239144e+02 
6.379250e-01 2.160223e+02 
6.545410e-01 2.091331e+02 
6.714560e-01 2.025645e+02 
6.892080e-01 1.961280e+02 
7.066010e-01 1.902342e+02 
7.240540e-01 1.846852e+02 
7.420450e-01 1.793254e+02 
7.593780e-01 1.744694e+02 
7.764720e-01 1.699466e+02 
7.942840e-01 1.654962e+02 
8.116170e-01 1.614012e+02 
8.288310e-01 1.575448e+02 
8.462240e-01 1.538395e+02 
8.631980e-01 1.503943e+02 
8.810700e-01 1.469363e+02 
8.989410e-01 1.436391e+02 
9.166330e-01 1.405189e+02 
9.345640e-01 1.374941e+02 
9.515980e-01 1.347364e+02 
9.688720e-01 1.320478e+02 
9.865640e-01 1.293982e+02 
1.031870e+00 1.230513e+02 
1.063490e+00 1.189494e+02 
1.097920e+00 1.147572e+02 
1.134370e+00 1.105898e+02 
1.167730e+00 1.070010e+02 
1.203830e+00 1.033240e+02 
1.240470e+00 9.980525e+01 
1.275790e+00 9.658577e+01 
1.309140e+00 9.370463e+01 
1.342970e+00 9.090486e+01 
1.378420e+00 8.811630e+01 
1.413200e+00 8.550219e+01 
1.448110e+00 8.299418e+01 
1.484090e+00 8.052804e+01 
1.518820e+00 7.824927e+01 
1.552880e+00 7.610302e+01 
1.588630e+00 7.394363e+01 
1.623230e+00 7.194060e+01 
1.657720e+00 7.002247e+01 
1.692450e+00 6.816769e+01 
1.726400e+00 6.641855e+01 
1.762200e+00 6.464329e+01 
1.797880e+00 6.294328e+01 
1.833270e+00 6.131989e+01 
1.869070e+00 5.973795e+01 
1.903200e+00 5.828483e+01 
1.937740e+00 5.686545e+01 
1.973190e+00 5.545849e+01 
2.007440e+00 5.414681e+01 
2.042160e+00 5.286185e+01 
2.077900e+00 5.158287e+01 
2.112390e+00 5.039162e+01 
2.146220e+00 4.925823e+01 
2.181600e+00 4.811133e+01 
2.216930e+00 4.700385e+01 
2.250760e+00 4.597693e+01 
2.286500e+00 4.492609e+01 
2.321770e+00 4.392217e+01 
2.355950e+00 4.297906e+01 
2.391280e+00 4.203220e+01 
2.426240e+00 4.112406e+01 
2.460670e+00 4.025708e+01 
2.495640e+00 3.940328e+01 
2.531080e+00 3.856121e+01 
2.566220e+00 3.775109e+01 
2.600830e+00 3.697679e+01 
2.635080e+00 3.623278e+01 
2.670340e+00 3.548700e+01 
2.705970e+00 3.475522e+01 
2.740040e+00 3.407529e+01 
2.774520e+00 3.340460e+01 
2.809730e+00 3.273845e+01 
2.844390e+00 3.210121e+01 
2.879960e+00 3.146467e+01 
2.914860e+00 3.085654e+01 
2.949410e+00 3.027093e+01 
2.984440e+00 2.969207e+01 
3.019760e+00 2.912383e+01 
3.054730e+00 2.857651e+01 
3.089030e+00 2.805210e+01 
3.124060e+00 2.753061e+01 
3.159560e+00 2.701559e+01 
3.194710e+00 2.651839e+01 
3.229010e+00 2.604593e+01 
3.263320e+00 2.558384e+01 
3.297930e+00 2.512952e+01 
3.332830e+00 2.468220e+01 
3.368040e+00 2.424193e+01 
3.403300e+00 2.381203e+01 
3.438450e+00 2.339347e+01 
3.473060e+00 2.299173e+01 
3.508440e+00 2.259000e+01 
3.543110e+00 2.220619e+01 
3.577470e+00 2.183413e+01 
3.613040e+00 2.145826e+01 
3.648120e+00 2.109579e+01 
3.682910e+00 2.074482e+01 
3.718050e+00 2.039828e+01 
3.753320e+00 2.005863e+01 
3.787980e+00 1.973237e+01 
3.822290e+00 1.941663e+01 
3.857020e+00 1.910390e+01 
3.891920e+00 1.879665e+01 
3.926650e+00 1.849739e+01 
3.961970e+00 1.819995e+01 
3.997360e+00 1.790847e+01 
4.031670e+00 1.763219e+01 
4.066330e+00 1.735876e+01 
4.101420e+00 1.708814e+01 
4.136200e+00 1.682531e+01 
4.170810e+00 1.656953e+01 
4.206250e+00 1.631292e+01 
4.241580e+00 1.606268e+01 
4.276300e+00 1.582186e+01 
4.310970e+00 1.558639e+01 
4.346120e+00 1.535268e+01 
4.380600e+00 1.512813e+01 
4.414730e+00 1.491046e+01 
4.450350e+00 1.468776e+01 
4.485320e+00 1.447372e+01 
4.519810e+00 1.426678e+01 
4.555430e+00 1.405738e+01 
4.590870e+00 1.385333e+01 
4.625480e+00 1.365804e+01 
4.659910e+00 1.346763e+01 
4.695230e+00 1.327609e+01 
4.729960e+00 1.309146e+01 
4.764450e+00 1.291166e+01 
4.799530e+00 1.273229e+01 
4.834910e+00 1.255492e+01 
4.869700e+00 1.238393e+01 
4.904370e+00 1.221679e+01 
4.939450e+00 1.205090e+01 
4.973940e+00 1.189095e+01 
5.008430e+00 1.173396e+01 
5.043810e+00 1.157592e+01 
5.078840e+00 1.142237e+01 
5.113500e+00 1.127323e+01 
5.148890e+00 1.112390e+01 
5.184210e+00 1.097761e+01 
5.219060e+00 1.083593e+01 
5.253660e+00 1.069788e+01 
5.288570e+00 1.056106e+01 
5.323420e+00 1.042698e+01 
5.358440e+00 1.029471e+01 
5.393590e+00 1.016429e+01 
5.428310e+00 1.003784e+01 
5.462800e+00 9.914459e+00 
5.497640e+00 9.791959e+00 
5.532670e+00 9.671030e+00 
5.567280e+00 9.553621e+00 
5.602000e+00 9.437822e+00 
5.637270e+00 9.322354e+00 
5.672410e+00 9.209295e+00 
5.707020e+00 9.099794e+00 
5.742040e+00 8.990997e+00 
5.777430e+00 8.882910e+00 
5.812210e+00 8.778433e+00 
5.846820e+00 8.676297e+00 
5.881610e+00 8.575319e+00 
5.916510e+00 8.475650e+00 
5.951600e+00 8.377204e+00 
5.986560e+00 8.280761e+00 
6.021830e+00 8.185012e+00 
6.056490e+00 8.092541e+00 
6.091160e+00 8.001598e+00 
6.125830e+00 7.912063e+00 
6.161090e+00 7.822488e+00 
6.195760e+00 7.735926e+00 
6.230420e+00 7.650705e+00 
6.265690e+00 7.565317e+00 
6.300950e+00 7.481475e+00 
6.335620e+00 7.400281e+00 
6.370880e+00 7.318946e+00 
6.405550e+00 7.240336e+00 
6.440220e+00 7.162955e+00 
6.475480e+00 7.085421e+00 
6.510150e+00 7.010365e+00 
6.544810e+00 6.936554e+00 
6.580080e+00 6.862539e+00 
6.614750e+00 6.790837e+00 
6.649410e+00 6.720413e+00 
6.684080e+00 6.651017e+00 
6.719340e+00 6.581447e+00 
6.754010e+00 6.514070e+00 
6.788680e+00 6.447773e+00 
6.823940e+00 6.381295e+00 
6.859800e+00 6.314648e+00 
6.894470e+00 6.251277e+00 
6.929140e+00 6.188836e+00 
6.963800e+00 6.127265e+00 
6.999070e+00 6.065482e+00 
7.033730e+00 6.005765e+00 
7.068400e+00 5.946835e+00 
7.103660e+00 5.887714e+00 
7.138330e+00 5.830439e+00 
7.173600e+00 5.773109e+00 
7.208260e+00 5.717522e+00 
7.243530e+00 5.661707e+00 
7.277600e+00 5.608603e+00 
7.312860e+00 5.554457e+00 
7.348120e+00 5.501026e+00 
7.382790e+00 5.449173e+00 
7.417460e+00 5.398111e+00 
7.452720e+00 5.346913e+00 
7.487390e+00 5.297219e+00 
7.522650e+00 5.247326e+00 
7.557320e+00 5.199017e+00 
7.591990e+00 5.151360e+00 
7.627250e+00 5.103505e+00 
7.662510e+00 5.056256e+00 
7.697180e+00 5.010512e+00 
7.731850e+00 4.965385e+00 
7.766510e+00 4.920826e+00 
7.801180e+00 4.876799e+00 
7.836440e+00 4.832693e+00 
7.871110e+00 4.789930e+00 
7.906380e+00 4.746956e+00 
7.941040e+00 4.705238e+00 
7.976310e+00 4.663360e+00 
8.011570e+00 4.622075e+00 
8.046240e+00 4.581967e+00 
8.080900e+00 4.542345e+00 
8.115570e+00 4.503213e+00 
8.150830e+00 4.464014e+00 
8.185500e+00 4.425926e+00 
8.220770e+00 4.387633e+00 
8.255430e+00 4.350442e+00 
8.290100e+00 4.313800e+00 
8.324770e+00 4.277594e+00 
8.359430e+00 4.241813e+00 
8.394700e+00 4.205821e+00 
8.429960e+00 4.170332e+00 
8.464630e+00 4.135915e+00 
8.499890e+00 4.101309e+00 
8.534560e+00 4.067666e+00 
8.569200e+00 4.034429e+00 
