# Parameters:
# omega_b = 0.023138, omega_m = 0.154173, n_s = 0.960236, h = 58.779528, w = -1.000000, sigma_8 = 0.863780
# z = 1.100000
#
# k[1/Mpc] # P(k):
8.694000e-04 5.252841e+03 
2.077466e-03 1.125765e+04 
3.285532e-03 1.605515e+04 
4.493598e-03 1.986264e+04 
5.701664e-03 2.279114e+04 
6.909730e-03 2.496485e+04 
8.117797e-03 2.653657e+04 
9.325863e-03 2.758282e+04 
1.053393e-02 2.818236e+04 
1.174199e-02 2.840955e+04 
1.295006e-02 2.831139e+04 
1.415813e-02 2.795465e+04 
1.536619e-02 2.739782e+04 
1.657426e-02 2.668329e+04 
1.778233e-02 2.586299e+04 
1.899039e-02 2.501159e+04 
2.019846e-02 2.412973e+04 
2.140652e-02 2.321811e+04 
2.261459e-02 2.229618e+04 
2.382266e-02 2.139181e+04 
2.503072e-02 2.052294e+04 
2.623879e-02 1.969739e+04 
2.744685e-02 1.891784e+04 
2.865492e-02 1.819172e+04 
2.986299e-02 1.751986e+04 
3.100100e-02 1.693617e+04 
3.220400e-02 1.637044e+04 
3.288100e-02 1.607484e+04 
3.424300e-02 1.552701e+04 
3.555100e-02 1.505346e+04 
3.686000e-02 1.462670e+04 
3.795000e-02 1.430204e+04 
3.929100e-02 1.393740e+04 
4.039800e-02 1.365925e+04 
4.164000e-02 1.336606e+04 
4.294400e-02 1.307367e+04 
4.415000e-02 1.281389e+04 
4.542900e-02 1.254161e+04 
4.660900e-02 1.229376e+04 
4.782300e-02 1.203216e+04 
4.892900e-02 1.179209e+04 
5.031200e-02 1.148481e+04 
5.155900e-02 1.119878e+04 
5.238100e-02 1.100654e+04 
5.378200e-02 1.067342e+04 
5.513400e-02 1.034477e+04 
5.627600e-02 1.006374e+04 
5.735300e-02 9.798435e+03 
5.870100e-02 9.468384e+03 
5.988700e-02 9.183053e+03 
6.113500e-02 8.889293e+03 
6.225900e-02 8.631749e+03 
6.340100e-02 8.378477e+03 
6.480200e-02 8.080994e+03 
6.601100e-02 7.836496e+03 
6.725500e-02 7.598127e+03 
6.829100e-02 7.411141e+03 
6.958600e-02 7.191226e+03 
7.071100e-02 7.014086e+03 
7.192300e-02 6.837251e+03 
7.307400e-02 6.682478e+03 
7.412300e-02 6.552127e+03 
7.550400e-02 6.396450e+03 
7.663100e-02 6.280193e+03 
7.791200e-02 6.161460e+03 
7.912700e-02 6.059731e+03 
8.027600e-02 5.970933e+03 
8.138400e-02 5.890768e+03 
8.272200e-02 5.799906e+03 
8.406100e-02 5.713535e+03 
8.534100e-02 5.633221e+03 
8.653800e-02 5.558071e+03 
8.759800e-02 5.491116e+03 
8.900300e-02 5.400611e+03 
9.009000e-02 5.328075e+03 
9.113300e-02 5.255383e+03 
9.239600e-02 5.165423e+03 
9.358000e-02 5.077934e+03 
9.496100e-02 4.971163e+03 
9.608400e-02 4.882832e+03 
9.727500e-02 4.788596e+03 
9.852600e-02 4.685968e+03 
9.973800e-02 4.587420e+03 
1.009000e-01 4.493955e+03 
1.020900e-01 4.398088e+03 
1.034000e-01 4.295250e+03 
1.046000e-01 4.203424e+03 
1.057200e-01 4.120299e+03 
1.069100e-01 4.034780e+03 
1.082500e-01 3.942681e+03 
1.093900e-01 3.868085e+03 
1.105400e-01 3.795700e+03 
1.116900e-01 3.727953e+03 
1.129600e-01 3.656273e+03 
1.142000e-01 3.591275e+03 
1.153300e-01 3.535100e+03 
1.166400e-01 3.474022e+03 
1.177800e-01 3.424655e+03 
1.190000e-01 3.374247e+03 
1.201200e-01 3.331732e+03 
1.213400e-01 3.286992e+03 
1.227100e-01 3.241209e+03 
1.238900e-01 3.203229e+03 
1.250700e-01 3.167523e+03 
1.263200e-01 3.130838e+03 
1.275500e-01 3.096152e+03 
1.287500e-01 3.062981e+03 
1.299900e-01 3.029313e+03 
1.311300e-01 2.998445e+03 
1.323500e-01 2.965222e+03 
1.335900e-01 2.931201e+03 
1.347100e-01 2.899790e+03 
1.359800e-01 2.863893e+03 
1.372100e-01 2.827806e+03 
1.384300e-01 2.791898e+03 
1.395700e-01 2.756909e+03 
1.407700e-01 2.720590e+03 
1.420300e-01 2.680663e+03 
1.432800e-01 2.641940e+03 
1.444500e-01 2.604511e+03 
1.456300e-01 2.567556e+03 
1.468900e-01 2.528341e+03 
1.480500e-01 2.492832e+03 
1.491700e-01 2.459302e+03 
1.503800e-01 2.423899e+03 
1.516400e-01 2.388015e+03 
1.528200e-01 2.355960e+03 
1.540200e-01 2.324017e+03 
1.551900e-01 2.294742e+03 
1.564300e-01 2.264632e+03 
1.576600e-01 2.236125e+03 
1.588700e-01 2.209544e+03 
1.600900e-01 2.183334e+03 
1.612700e-01 2.159890e+03 
1.625400e-01 2.135130e+03 
1.637600e-01 2.112443e+03 
1.649500e-01 2.091091e+03 
1.662200e-01 2.068801e+03 
1.674000e-01 2.048915e+03 
1.685000e-01 2.030686e+03 
1.697500e-01 2.010328e+03 
1.710300e-01 1.989867e+03 
1.722200e-01 1.971180e+03 
1.734400e-01 1.951963e+03 
1.746400e-01 1.933369e+03 
1.758700e-01 1.914441e+03 
1.770900e-01 1.895594e+03 
1.782700e-01 1.877668e+03 
1.794600e-01 1.859521e+03 
1.807000e-01 1.840679e+03 
1.819100e-01 1.822602e+03 
1.830100e-01 1.805999e+03 
1.842200e-01 1.787949e+03 
1.855000e-01 1.769161e+03 
1.867000e-01 1.751498e+03 
1.879200e-01 1.733831e+03 
1.890900e-01 1.717133e+03 
1.902800e-01 1.700289e+03 
1.915200e-01 1.683019e+03 
1.926900e-01 1.666991e+03 
1.939000e-01 1.650709e+03 
1.951700e-01 1.633893e+03 
1.963100e-01 1.619070e+03 
1.975100e-01 1.603803e+03 
1.987800e-01 1.587897e+03 
2.000100e-01 1.572809e+03 
2.012500e-01 1.558009e+03 
2.023400e-01 1.545187e+03 
2.036100e-01 1.530515e+03 
2.048900e-01 1.516151e+03 
2.060400e-01 1.503437e+03 
2.072200e-01 1.490590e+03 
2.084200e-01 1.477909e+03 
2.096900e-01 1.464684e+03 
2.109200e-01 1.452065e+03 
2.121100e-01 1.440139e+03 
2.132700e-01 1.428678e+03 
2.145200e-01 1.416500e+03 
2.157200e-01 1.405007e+03 
2.168800e-01 1.394062e+03 
2.180700e-01 1.382984e+03 
2.193400e-01 1.371303e+03 
2.206000e-01 1.359834e+03 
2.217500e-01 1.349509e+03 
2.229500e-01 1.338875e+03 
2.241400e-01 1.328350e+03 
2.253500e-01 1.317787e+03 
2.264900e-01 1.307963e+03 
2.277100e-01 1.297493e+03 
2.289900e-01 1.286555e+03 
2.301500e-01 1.276773e+03 
2.313600e-01 1.266699e+03 
2.325600e-01 1.256633e+03 
2.337700e-01 1.246615e+03 
2.350000e-01 1.236564e+03 
2.362000e-01 1.226803e+03 
2.374100e-01 1.216987e+03 
2.386500e-01 1.207059e+03 
2.399100e-01 1.197104e+03 
2.410400e-01 1.188167e+03 
2.422500e-01 1.178699e+03 
2.435000e-01 1.169044e+03 
2.447300e-01 1.159654e+03 
2.458700e-01 1.151014e+03 
2.470600e-01 1.142103e+03 
2.483300e-01 1.132712e+03 
2.495600e-01 1.123736e+03 
2.507600e-01 1.115093e+03 
2.519600e-01 1.106553e+03 
2.532200e-01 1.097698e+03 
2.543700e-01 1.089766e+03 
2.555500e-01 1.081758e+03 
2.568000e-01 1.073377e+03 
2.580100e-01 1.065362e+03 
2.592400e-01 1.057407e+03 
2.604100e-01 1.049971e+03 
2.616100e-01 1.042431e+03 
2.628400e-01 1.034793e+03 
2.640600e-01 1.027417e+03 
2.652200e-01 1.020528e+03 
2.664300e-01 1.013421e+03 
2.676500e-01 1.006337e+03 
2.688400e-01 9.996002e+02 
2.700700e-01 9.927740e+02 
2.712400e-01 9.863526e+02 
2.724800e-01 9.796222e+02 
2.736700e-01 9.732992e+02 
2.748800e-01 9.670062e+02 
2.761000e-01 9.607307e+02 
2.773200e-01 9.545238e+02 
2.785400e-01 9.484161e+02 
2.797000e-01 9.427360e+02 
2.808900e-01 9.369694e+02 
2.821400e-01 9.309771e+02 
2.833900e-01 9.250530e+02 
2.845500e-01 9.196717e+02 
2.857800e-01 9.140248e+02 
2.870300e-01 9.083475e+02 
2.882100e-01 9.030440e+02 
2.893900e-01 8.978212e+02 
2.906300e-01 8.924039e+02 
2.918900e-01 8.869575e+02 
2.930500e-01 8.819946e+02 
2.942500e-01 8.769158e+02 
2.954200e-01 8.720268e+02 
2.966500e-01 8.669385e+02 
2.978900e-01 8.618614e+02 
2.990400e-01 8.571993e+02 
3.002700e-01 8.522664e+02 
3.015100e-01 8.473459e+02 
3.026800e-01 8.427488e+02 
3.038500e-01 8.381955e+02 
3.050300e-01 8.336470e+02 
3.062600e-01 8.289523e+02 
3.075000e-01 8.242665e+02 
3.087000e-01 8.197761e+02 
3.099100e-01 8.152917e+02 
3.111200e-01 8.108509e+02 
3.123100e-01 8.065259e+02 
3.135300e-01 8.021340e+02 
3.147300e-01 7.978551e+02 
3.159900e-01 7.934053e+02 
3.171800e-01 7.892431e+02 
3.183700e-01 7.851194e+02 
3.196300e-01 7.807945e+02 
3.208400e-01 7.766807e+02 
3.220300e-01 7.726721e+02 
3.232000e-01 7.687672e+02 
3.244300e-01 7.647000e+02 
3.256700e-01 7.606381e+02 
3.269200e-01 7.565820e+02 
3.280800e-01 7.528520e+02 
3.292500e-01 7.491285e+02 
3.304800e-01 7.452509e+02 
3.317100e-01 7.414089e+02 
3.328900e-01 7.377559e+02 
3.340700e-01 7.341348e+02 
3.353600e-01 7.302188e+02 
3.365300e-01 7.267016e+02 
3.377100e-01 7.231847e+02 
3.389200e-01 7.196099e+02 
3.401600e-01 7.159789e+02 
3.413700e-01 7.124769e+02 
3.425300e-01 7.091552e+02 
3.437700e-01 7.056349e+02 
3.449800e-01 7.022298e+02 
3.461800e-01 6.988818e+02 
3.473600e-01 6.956220e+02 
3.485800e-01 6.922913e+02 
3.498100e-01 6.889623e+02 
3.510200e-01 6.857155e+02 
3.522000e-01 6.825756e+02 
3.533900e-01 6.794352e+02 
3.546400e-01 6.761817e+02 
3.558400e-01 6.730857e+02 
3.570600e-01 6.699643e+02 
3.582700e-01 6.668944e+02 
3.595000e-01 6.637998e+02 
3.607100e-01 6.607911e+02 
3.618900e-01 6.578888e+02 
3.631200e-01 6.548883e+02 
3.643200e-01 6.519849e+02 
3.655500e-01 6.490333e+02 
3.667300e-01 6.462246e+02 
3.679500e-01 6.433648e+02 
3.691900e-01 6.404820e+02 
3.703600e-01 6.377836e+02 
3.715700e-01 6.350149e+02 
3.727700e-01 6.322910e+02 
3.739900e-01 6.295510e+02 
3.752000e-01 6.268685e+02 
3.763900e-01 6.242511e+02 
3.775800e-01 6.216538e+02 
3.788200e-01 6.189688e+02 
3.800300e-01 6.163694e+02 
3.812100e-01 6.138634e+02 
3.824200e-01 6.113197e+02 
3.836100e-01 6.088372e+02 
3.848600e-01 6.062498e+02 
3.860400e-01 6.038262e+02 
3.872400e-01 6.013801e+02 
3.884600e-01 5.989244e+02 
3.896500e-01 5.965519e+02 
3.908700e-01 5.941379e+02 
3.920600e-01 5.918011e+02 
3.933100e-01 5.893651e+02 
3.945300e-01 5.870058e+02 
3.957200e-01 5.847355e+02 
3.969300e-01 5.824481e+02 
3.981700e-01 5.801216e+02 
3.993500e-01 5.779242e+02 
4.094840e-01 5.597064e+02 
4.272360e-01 5.306053e+02 
4.454600e-01 5.037464e+02 
4.630560e-01 4.802427e+02 
4.804610e-01 4.589947e+02 
4.980690e-01 4.392549e+02 
5.159230e-01 4.208264e+02 
5.317440e-01 4.056984e+02 
5.489640e-01 3.903956e+02 
5.671990e-01 3.754121e+02 
5.838690e-01 3.627084e+02 
6.018840e-01 3.499489e+02 
6.202330e-01 3.379063e+02 
6.379250e-01 3.271163e+02 
6.545410e-01 3.176759e+02 
6.714560e-01 3.086558e+02 
6.892080e-01 2.998082e+02 
7.066010e-01 2.916820e+02 
7.240540e-01 2.840202e+02 
7.420450e-01 2.765921e+02 
7.593780e-01 2.698399e+02 
7.764720e-01 2.635323e+02 
7.942840e-01 2.573060e+02 
8.116170e-01 2.515495e+02 
8.288310e-01 2.461013e+02 
8.462240e-01 2.408445e+02 
8.631980e-01 2.359292e+02 
8.810700e-01 2.309741e+02 
8.989410e-01 2.262229e+02 
9.166330e-01 2.217025e+02 
9.345640e-01 2.172979e+02 
9.515980e-01 2.132549e+02 
9.688720e-01 2.092907e+02 
9.865640e-01 2.053591e+02 
1.031870e+00 1.958575e+02 
1.063490e+00 1.896393e+02 
1.097920e+00 1.832227e+02 
1.134370e+00 1.767828e+02 
1.167730e+00 1.711845e+02 
1.203830e+00 1.653959e+02 
1.240470e+00 1.598174e+02 
1.275790e+00 1.546693e+02 
1.309140e+00 1.500412e+02 
1.342970e+00 1.455105e+02 
1.378420e+00 1.409783e+02 
1.413200e+00 1.367080e+02 
1.448110e+00 1.325954e+02 
1.484090e+00 1.285358e+02 
1.518820e+00 1.247731e+02 
1.552880e+00 1.212189e+02 
1.588630e+00 1.176361e+02 
1.623230e+00 1.143043e+02 
1.657720e+00 1.111084e+02 
1.692450e+00 1.080156e+02 
1.726400e+00 1.050939e+02 
1.762200e+00 1.021245e+02 
1.797880e+00 9.928106e+01 
1.833270e+00 9.656251e+01 
1.869070e+00 9.391235e+01 
1.903200e+00 9.147940e+01 
1.937740e+00 8.910242e+01 
1.973190e+00 8.674566e+01 
2.007440e+00 8.455000e+01 
2.042160e+00 8.240068e+01 
2.077900e+00 8.026109e+01 
2.112390e+00 7.827089e+01 
2.146220e+00 7.637706e+01 
2.181600e+00 7.446336e+01 
2.216930e+00 7.261703e+01 
2.250760e+00 7.090644e+01 
2.286500e+00 6.915756e+01 
2.321770e+00 6.748849e+01 
2.355950e+00 6.592313e+01 
2.391280e+00 6.435298e+01 
2.426240e+00 6.284955e+01 
2.460670e+00 6.141615e+01 
2.495640e+00 6.000599e+01 
2.531080e+00 5.861695e+01 
2.566220e+00 5.728278e+01 
2.600830e+00 5.600969e+01 
2.635080e+00 5.478843e+01 
2.670340e+00 5.356697e+01 
2.705970e+00 5.236982e+01 
2.740040e+00 5.125871e+01 
2.774520e+00 5.016408e+01 
2.809730e+00 4.907945e+01 
2.844390e+00 4.804374e+01 
2.879960e+00 4.701126e+01 
2.914860e+00 4.602618e+01 
2.949410e+00 4.507892e+01 
2.984440e+00 4.414500e+01 
3.019760e+00 4.322925e+01 
3.054730e+00 4.234818e+01 
3.089030e+00 4.150683e+01 
3.124060e+00 4.067109e+01 
3.159560e+00 3.984678e+01 
3.194710e+00 3.905299e+01 
3.229010e+00 3.829980e+01 
3.263320e+00 3.756535e+01 
3.297930e+00 3.684396e+01 
3.332830e+00 3.613458e+01 
3.368040e+00 3.543798e+01 
3.403300e+00 3.475909e+01 
3.438450e+00 3.409977e+01 
3.473060e+00 3.346770e+01 
3.508440e+00 3.283708e+01 
3.543110e+00 3.223530e+01 
3.577470e+00 3.165374e+01 
3.613040e+00 3.106684e+01 
3.648120e+00 3.050178e+01 
3.682910e+00 2.995554e+01 
3.718050e+00 2.941755e+01 
3.753320e+00 2.889104e+01 
3.787980e+00 2.838631e+01 
3.822290e+00 2.789866e+01 
3.857020e+00 2.741672e+01 
3.891920e+00 2.694394e+01 
3.926650e+00 2.648441e+01 
3.961970e+00 2.602833e+01 
3.997360e+00 2.558249e+01 
4.031670e+00 2.516034e+01 
4.066330e+00 2.474353e+01 
4.101420e+00 2.433129e+01 
4.136200e+00 2.393212e+01 
4.170810e+00 2.354387e+01 
4.206250e+00 2.315528e+01 
4.241580e+00 2.277669e+01 
4.276300e+00 2.241323e+01 
4.310970e+00 2.205841e+01 
4.346120e+00 2.170674e+01 
4.380600e+00 2.136954e+01 
4.414730e+00 2.104285e+01 
4.450350e+00 2.070968e+01 
4.485320e+00 2.038963e+01 
4.519810e+00 2.008090e+01 
4.555430e+00 1.976892e+01 
4.590870e+00 1.946528e+01 
4.625480e+00 1.917529e+01 
4.659910e+00 1.889267e+01 
4.695230e+00 1.860917e+01 
4.729960e+00 1.833616e+01 
4.764450e+00 1.807065e+01 
4.799530e+00 1.780632e+01 
4.834910e+00 1.754507e+01 
4.869700e+00 1.729384e+01 
4.904370e+00 1.704844e+01 
4.939450e+00 1.680516e+01 
4.973940e+00 1.657110e+01 
5.008430e+00 1.634148e+01 
5.043810e+00 1.611077e+01 
5.078840e+00 1.588690e+01 
5.113500e+00 1.566956e+01 
5.148890e+00 1.545254e+01 
5.184210e+00 1.524006e+01 
5.219060e+00 1.503447e+01 
5.253660e+00 1.483456e+01 
5.288570e+00 1.463651e+01 
5.323420e+00 1.444270e+01 
5.358440e+00 1.425179e+01 
5.393590e+00 1.406362e+01 
5.428310e+00 1.388154e+01 
5.462800e+00 1.370409e+01 
5.497640e+00 1.352796e+01 
5.532670e+00 1.335446e+01 
5.567280e+00 1.318615e+01 
5.602000e+00 1.302021e+01 
5.637270e+00 1.285505e+01 
5.672410e+00 1.269346e+01 
5.707020e+00 1.253699e+01 
5.742040e+00 1.238188e+01 
5.777430e+00 1.222788e+01 
5.812210e+00 1.207906e+01 
5.846820e+00 1.193385e+01 
5.881610e+00 1.179037e+01 
5.916510e+00 1.164879e+01 
5.951600e+00 1.150919e+01 
5.986560e+00 1.137255e+01 
6.021830e+00 1.123693e+01 
6.056490e+00 1.110613e+01 
6.091160e+00 1.097763e+01 
6.125830e+00 1.085115e+01 
6.161090e+00 1.072472e+01 
6.195760e+00 1.060271e+01 
6.230420e+00 1.048261e+01 
6.265690e+00 1.036232e+01 
6.300950e+00 1.024445e+01 
6.335620e+00 1.013032e+01 
6.370880e+00 1.001601e+01 
6.405550e+00 9.905685e+00 
6.440220e+00 9.797149e+00 
6.475480e+00 9.688418e+00 
6.510150e+00 9.583240e+00 
6.544810e+00 9.479957e+00 
6.580080e+00 9.376403e+00 
6.614750e+00 9.276104e+00 
6.649410e+00 9.177725e+00 
6.684080e+00 9.080818e+00 
6.719340e+00 8.983683e+00 
6.754010e+00 8.889670e+00 
6.788680e+00 8.797280e+00 
6.823940e+00 8.704651e+00 
6.859800e+00 8.611801e+00 
6.894470e+00 8.523609e+00 
6.929140e+00 8.436751e+00 
6.963800e+00 8.351116e+00 
6.999070e+00 8.265204e+00 
7.033730e+00 8.182279e+00 
7.068400e+00 8.100457e+00 
7.103660e+00 8.018379e+00 
7.138330e+00 7.938903e+00 
7.173600e+00 7.859417e+00 
7.208260e+00 7.782357e+00 
7.243530e+00 7.704990e+00 
7.277600e+00 7.631432e+00 
7.312860e+00 7.556479e+00 
7.348120e+00 7.482523e+00 
7.382790e+00 7.410760e+00 
7.417460e+00 7.340148e+00 
7.452720e+00 7.269384e+00 
7.487390e+00 7.200705e+00 
7.522650e+00 7.131758e+00 
7.557320e+00 7.065040e+00 
7.591990e+00 6.999243e+00 
7.627250e+00 6.933177e+00 
7.662510e+00 6.867955e+00 
7.697180e+00 6.804858e+00 
7.731850e+00 6.742632e+00 
7.766510e+00 6.681195e+00 
7.801180e+00 6.620497e+00 
7.836440e+00 6.559713e+00 
7.871110e+00 6.500796e+00 
7.906380e+00 6.441594e+00 
7.941040e+00 6.384127e+00 
7.976310e+00 6.326461e+00 
8.011570e+00 6.269635e+00 
8.046240e+00 6.214434e+00 
8.080900e+00 6.159906e+00 
8.115570e+00 6.106061e+00 
8.150830e+00 6.052148e+00 
8.185500e+00 5.999765e+00 
8.220770e+00 5.947105e+00 
8.255430e+00 5.895965e+00 
8.290100e+00 5.845608e+00 
8.324770e+00 5.795857e+00 
8.359430e+00 5.746693e+00 
8.394700e+00 5.697242e+00 
8.429960e+00 5.648492e+00 
8.464630e+00 5.601220e+00 
8.499890e+00 5.553693e+00 
8.534560e+00 5.507493e+00 
8.569200e+00 5.461851e+00 
