# Parameters:
# omega_b = 0.022728, omega_m = 0.120827, n_s = 1.012205, h = 59.251969, w = -1.000000, sigma_8 = 0.742520
# z = 1.100000
#
# k[1/Mpc] # P(k):
8.694000e-04 6.891063e+03 
2.077466e-03 1.507193e+04 
3.285532e-03 2.144749e+04 
4.493598e-03 2.625408e+04 
5.701664e-03 2.972031e+04 
6.909730e-03 3.206500e+04 
8.117797e-03 3.353769e+04 
9.325863e-03 3.426879e+04 
1.053393e-02 3.439160e+04 
1.174199e-02 3.403028e+04 
1.295006e-02 3.326352e+04 
1.415813e-02 3.219582e+04 
1.536619e-02 3.091940e+04 
1.657426e-02 2.950928e+04 
1.778233e-02 2.809108e+04 
1.899039e-02 2.679339e+04 
2.019846e-02 2.552093e+04 
2.140652e-02 2.421585e+04 
2.261459e-02 2.293231e+04 
2.382266e-02 2.172369e+04 
2.503072e-02 2.060942e+04 
2.623879e-02 1.959299e+04 
2.744685e-02 1.867578e+04 
2.865492e-02 1.785453e+04 
2.986299e-02 1.712278e+04 
3.100100e-02 1.651143e+04 
3.220400e-02 1.593853e+04 
3.288100e-02 1.564749e+04 
3.424300e-02 1.511927e+04 
3.555100e-02 1.467128e+04 
3.686000e-02 1.427123e+04 
3.795000e-02 1.396610e+04 
3.929100e-02 1.361704e+04 
4.039800e-02 1.334271e+04 
4.164000e-02 1.304403e+04 
4.294400e-02 1.272905e+04 
4.415000e-02 1.243843e+04 
4.542900e-02 1.211870e+04 
4.660900e-02 1.181975e+04 
4.782300e-02 1.149492e+04 
4.892900e-02 1.119405e+04 
5.031200e-02 1.080750e+04 
5.155900e-02 1.044999e+04 
5.238100e-02 1.021236e+04 
5.378200e-02 9.806983e+03 
5.513400e-02 9.418030e+03 
5.627600e-02 9.095444e+03 
5.735300e-02 8.799893e+03 
5.870100e-02 8.445294e+03 
5.988700e-02 8.150375e+03 
6.113500e-02 7.858172e+03 
6.225900e-02 7.611773e+03 
6.340100e-02 7.377605e+03 
6.480200e-02 7.110508e+03 
6.601100e-02 6.898466e+03 
6.725500e-02 6.697024e+03 
6.829100e-02 6.543280e+03 
6.958600e-02 6.365668e+03 
7.071100e-02 6.225965e+03 
7.192300e-02 6.089110e+03 
7.307400e-02 5.971286e+03 
7.412300e-02 5.873186e+03 
7.550400e-02 5.756908e+03 
7.663100e-02 5.669913e+03 
7.791200e-02 5.579495e+03 
7.912700e-02 5.498998e+03 
8.027600e-02 5.425467e+03 
8.138400e-02 5.355725e+03 
8.272200e-02 5.271391e+03 
8.406100e-02 5.185251e+03 
8.534100e-02 5.098445e+03 
8.653800e-02 5.012424e+03 
8.759800e-02 4.933422e+03 
8.900300e-02 4.823784e+03 
9.009000e-02 4.734589e+03 
9.113300e-02 4.645289e+03 
9.239600e-02 4.535467e+03 
9.358000e-02 4.430186e+03 
9.496100e-02 4.305289e+03 
9.608400e-02 4.204608e+03 
9.727500e-02 4.099418e+03 
9.852600e-02 3.990778e+03 
9.973800e-02 3.889475e+03 
1.009000e-01 3.795850e+03 
1.020900e-01 3.705889e+03 
1.034000e-01 3.612249e+03 
1.046000e-01 3.531559e+03 
1.057200e-01 3.463159e+03 
1.069100e-01 3.394361e+03 
1.082500e-01 3.324641e+03 
1.093900e-01 3.270469e+03 
1.105400e-01 3.219229e+03 
1.116900e-01 3.173703e+03 
1.129600e-01 3.126123e+03 
1.142000e-01 3.084105e+03 
1.153300e-01 3.047640e+03 
1.166400e-01 3.007788e+03 
1.177800e-01 2.974282e+03 
1.190000e-01 2.939432e+03 
1.201200e-01 2.907133e+03 
1.213400e-01 2.872590e+03 
1.227100e-01 2.831906e+03 
1.238900e-01 2.796971e+03 
1.250700e-01 2.760268e+03 
1.263200e-01 2.721215e+03 
1.275500e-01 2.681278e+03 
1.287500e-01 2.642065e+03 
1.299900e-01 2.600656e+03 
1.311300e-01 2.562594e+03 
1.323500e-01 2.521483e+03 
1.335900e-01 2.480194e+03 
1.347100e-01 2.443090e+03 
1.359800e-01 2.401857e+03 
1.372100e-01 2.362615e+03 
1.384300e-01 2.324708e+03 
1.395700e-01 2.290329e+03 
1.407700e-01 2.255015e+03 
1.420300e-01 2.219616e+03 
1.432800e-01 2.185303e+03 
1.444500e-01 2.154976e+03 
1.456300e-01 2.125029e+03 
1.468900e-01 2.094684e+03 
1.480500e-01 2.067613e+03 
1.491700e-01 2.042429e+03 
1.503800e-01 2.016325e+03 
1.516400e-01 1.989857e+03 
1.528200e-01 1.966251e+03 
1.540200e-01 1.942710e+03 
1.551900e-01 1.920656e+03 
1.564300e-01 1.897843e+03 
1.576600e-01 1.875782e+03 
1.588700e-01 1.854645e+03 
1.600900e-01 1.833735e+03 
1.612700e-01 1.813869e+03 
1.625400e-01 1.792889e+03 
1.637600e-01 1.772960e+03 
1.649500e-01 1.753783e+03 
1.662200e-01 1.733630e+03 
1.674000e-01 1.714893e+03 
1.685000e-01 1.697722e+03 
1.697500e-01 1.678308e+03 
1.710300e-01 1.658557e+03 
1.722200e-01 1.640528e+03 
1.734400e-01 1.621902e+03 
1.746400e-01 1.603884e+03 
1.758700e-01 1.585636e+03 
1.770900e-01 1.567644e+03 
1.782700e-01 1.550540e+03 
1.794600e-01 1.533489e+03 
1.807000e-01 1.515965e+03 
1.819100e-01 1.499160e+03 
1.830100e-01 1.484148e+03 
1.842200e-01 1.467903e+03 
1.855000e-01 1.451022e+03 
1.867000e-01 1.435635e+03 
1.879200e-01 1.420250e+03 
1.890900e-01 1.405777e+03 
1.902800e-01 1.391519e+03 
1.915200e-01 1.376901e+03 
1.926900e-01 1.363403e+03 
1.939000e-01 1.349907e+03 
1.951700e-01 1.335969e+03 
1.963100e-01 1.323722e+03 
1.975100e-01 1.311210e+03 
1.987800e-01 1.298175e+03 
2.000100e-01 1.285813e+03 
2.012500e-01 1.273693e+03 
2.023400e-01 1.263193e+03 
2.036100e-01 1.251156e+03 
2.048900e-01 1.239288e+03 
2.060400e-01 1.228784e+03 
2.072200e-01 1.218157e+03 
2.084200e-01 1.207510e+03 
2.096900e-01 1.196408e+03 
2.109200e-01 1.185815e+03 
2.121100e-01 1.175611e+03 
2.132700e-01 1.165798e+03 
2.145200e-01 1.155371e+03 
2.157200e-01 1.145395e+03 
2.168800e-01 1.135831e+03 
2.180700e-01 1.126154e+03 
2.193400e-01 1.115887e+03 
2.206000e-01 1.105690e+03 
2.217500e-01 1.096512e+03 
2.229500e-01 1.087063e+03 
2.241400e-01 1.077564e+03 
2.253500e-01 1.068031e+03 
2.264900e-01 1.059168e+03 
2.277100e-01 1.049671e+03 
2.289900e-01 1.039694e+03 
2.301500e-01 1.030775e+03 
2.313600e-01 1.021593e+03 
2.325600e-01 1.012343e+03 
2.337700e-01 1.003142e+03 
2.350000e-01 9.939149e+02 
2.362000e-01 9.849354e+02 
2.374100e-01 9.758855e+02 
2.386500e-01 9.667365e+02 
2.399100e-01 9.575675e+02 
2.410400e-01 9.493329e+02 
2.422500e-01 9.406132e+02 
2.435000e-01 9.317259e+02 
2.447300e-01 9.230924e+02 
2.458700e-01 9.151690e+02 
2.470600e-01 9.070018e+02 
2.483300e-01 8.984004e+02 
2.495600e-01 8.902079e+02 
2.507600e-01 8.823549e+02 
2.519600e-01 8.746012e+02 
2.532200e-01 8.665648e+02 
2.543700e-01 8.594157e+02 
2.555500e-01 8.522317e+02 
2.568000e-01 8.447165e+02 
2.580100e-01 8.375333e+02 
2.592400e-01 8.304706e+02 
2.604100e-01 8.238985e+02 
2.616100e-01 8.172377e+02 
2.628400e-01 8.104928e+02 
2.640600e-01 8.040448e+02 
2.652200e-01 7.980488e+02 
2.664300e-01 7.918662e+02 
2.676500e-01 7.857056e+02 
2.688400e-01 7.798931e+02 
2.700700e-01 7.740335e+02 
2.712400e-01 7.685227e+02 
2.724800e-01 7.627484e+02 
2.736700e-01 7.573520e+02 
2.748800e-01 7.520104e+02 
2.761000e-01 7.466847e+02 
2.773200e-01 7.414184e+02 
2.785400e-01 7.362484e+02 
2.797000e-01 7.314643e+02 
2.808900e-01 7.266082e+02 
2.821400e-01 7.215629e+02 
2.833900e-01 7.165767e+02 
2.845500e-01 7.120657e+02 
2.857800e-01 7.073327e+02 
2.870300e-01 7.025749e+02 
2.882100e-01 6.981312e+02 
2.893900e-01 6.937618e+02 
2.906300e-01 6.892335e+02 
2.918900e-01 6.846816e+02 
2.930500e-01 6.805344e+02 
2.942500e-01 6.762924e+02 
2.954200e-01 6.722138e+02 
2.966500e-01 6.679695e+02 
2.978900e-01 6.637352e+02 
2.990400e-01 6.598475e+02 
3.002700e-01 6.557373e+02 
3.015100e-01 6.516393e+02 
3.026800e-01 6.478113e+02 
3.038500e-01 6.440202e+02 
3.050300e-01 6.402336e+02 
3.062600e-01 6.363308e+02 
3.075000e-01 6.324358e+02 
3.087000e-01 6.287038e+02 
3.099100e-01 6.249773e+02 
3.111200e-01 6.212898e+02 
3.123100e-01 6.177028e+02 
3.135300e-01 6.140607e+02 
3.147300e-01 6.105128e+02 
3.159900e-01 6.068238e+02 
3.171800e-01 6.033783e+02 
3.183700e-01 5.999680e+02 
3.196300e-01 5.963918e+02 
3.208400e-01 5.929905e+02 
3.220300e-01 5.896767e+02 
3.232000e-01 5.864543e+02 
3.244300e-01 5.831004e+02 
3.256700e-01 5.797512e+02 
3.269200e-01 5.764072e+02 
3.280800e-01 5.733325e+02 
3.292500e-01 5.702684e+02 
3.304800e-01 5.670793e+02 
3.317100e-01 5.639199e+02 
3.328900e-01 5.609163e+02 
3.340700e-01 5.579392e+02 
3.353600e-01 5.547251e+02 
3.365300e-01 5.518406e+02 
3.377100e-01 5.489566e+02 
3.389200e-01 5.460254e+02 
3.401600e-01 5.430486e+02 
3.413700e-01 5.401807e+02 
3.425300e-01 5.374626e+02 
3.437700e-01 5.345823e+02 
3.449800e-01 5.317966e+02 
3.461800e-01 5.290579e+02 
3.473600e-01 5.263926e+02 
3.485800e-01 5.236723e+02 
3.498100e-01 5.209536e+02 
3.510200e-01 5.183023e+02 
3.522000e-01 5.157386e+02 
3.533900e-01 5.131747e+02 
3.546400e-01 5.105210e+02 
3.558400e-01 5.079962e+02 
3.570600e-01 5.054510e+02 
3.582700e-01 5.029479e+02 
3.595000e-01 5.004250e+02 
3.607100e-01 4.979730e+02 
3.618900e-01 4.956085e+02 
3.631200e-01 4.931642e+02 
3.643200e-01 4.907993e+02 
3.655500e-01 4.883952e+02 
3.667300e-01 4.861078e+02 
3.679500e-01 4.837793e+02 
3.691900e-01 4.814322e+02 
3.703600e-01 4.792355e+02 
3.715700e-01 4.769817e+02 
3.727700e-01 4.747645e+02 
3.739900e-01 4.725342e+02 
3.752000e-01 4.703505e+02 
3.763900e-01 4.682199e+02 
3.775800e-01 4.661059e+02 
3.788200e-01 4.639206e+02 
3.800300e-01 4.618052e+02 
3.812100e-01 4.597655e+02 
3.824200e-01 4.576951e+02 
3.836100e-01 4.556746e+02 
3.848600e-01 4.535689e+02 
3.860400e-01 4.515967e+02 
3.872400e-01 4.496062e+02 
3.884600e-01 4.476077e+02 
3.896500e-01 4.456767e+02 
3.908700e-01 4.437122e+02 
3.920600e-01 4.418105e+02 
3.933100e-01 4.398283e+02 
3.945300e-01 4.379086e+02 
3.957200e-01 4.360602e+02 
3.969300e-01 4.341976e+02 
3.981700e-01 4.323034e+02 
3.993500e-01 4.305143e+02 
4.094840e-01 4.156916e+02 
4.272360e-01 3.920224e+02 
4.454600e-01 3.702312e+02 
4.630560e-01 3.512303e+02 
4.804610e-01 3.341295e+02 
4.980690e-01 3.183184e+02 
5.159230e-01 3.036321e+02 
5.317440e-01 2.916269e+02 
5.489640e-01 2.795344e+02 
5.671990e-01 2.677381e+02 
5.838690e-01 2.577647e+02 
6.018840e-01 2.477767e+02 
6.202330e-01 2.383754e+02 
6.379250e-01 2.299636e+02 
6.545410e-01 2.226198e+02 
6.714560e-01 2.156166e+02 
6.892080e-01 2.087543e+02 
7.066010e-01 2.024665e+02 
7.240540e-01 1.965460e+02 
7.420450e-01 1.908223e+02 
7.593780e-01 1.856329e+02 
7.764720e-01 1.807969e+02 
7.942840e-01 1.760354e+02 
8.116170e-01 1.716497e+02 
8.288310e-01 1.675152e+02 
8.462240e-01 1.635401e+02 
8.631980e-01 1.598396e+02 
8.810700e-01 1.561229e+02 
8.989410e-01 1.525758e+02 
9.166330e-01 1.492162e+02 
9.345640e-01 1.459570e+02 
9.515980e-01 1.429820e+02 
9.688720e-01 1.400793e+02 
9.865640e-01 1.372163e+02 
1.031870e+00 1.303518e+02 
1.063490e+00 1.259092e+02 
1.097920e+00 1.213644e+02 
1.134370e+00 1.168437e+02 
1.167730e+00 1.129474e+02 
1.203830e+00 1.089544e+02 
1.240470e+00 1.051323e+02 
1.275790e+00 1.016348e+02 
1.309140e+00 9.850530e+01 
1.342970e+00 9.546512e+01 
1.378420e+00 9.243728e+01 
1.413200e+00 8.960012e+01 
1.448110e+00 8.688023e+01 
1.484090e+00 8.420630e+01 
1.518820e+00 8.173769e+01 
1.552880e+00 7.941450e+01 
1.588630e+00 7.707922e+01 
1.623230e+00 7.491416e+01 
1.657720e+00 7.284227e+01 
1.692450e+00 7.084127e+01 
1.726400e+00 6.895584e+01 
1.762200e+00 6.704361e+01 
1.797880e+00 6.521477e+01 
1.833270e+00 6.346936e+01 
1.869070e+00 6.177038e+01 
1.903200e+00 6.021158e+01 
1.937740e+00 5.869026e+01 
1.973190e+00 5.718356e+01 
2.007440e+00 5.578049e+01 
2.042160e+00 5.440761e+01 
2.077900e+00 5.304211e+01 
2.112390e+00 5.177181e+01 
2.146220e+00 5.056409e+01 
2.181600e+00 4.934344e+01 
2.216930e+00 4.816599e+01 
2.250760e+00 4.707514e+01 
2.286500e+00 4.595984e+01 
2.321770e+00 4.489536e+01 
2.355950e+00 4.389654e+01 
2.391280e+00 4.289472e+01 
2.426240e+00 4.193488e+01 
2.460670e+00 4.101934e+01 
2.495640e+00 4.011843e+01 
2.531080e+00 3.923076e+01 
2.566220e+00 3.837764e+01 
2.600830e+00 3.756303e+01 
2.635080e+00 3.678099e+01 
2.670340e+00 3.599817e+01 
2.705970e+00 3.523057e+01 
2.740040e+00 3.451779e+01 
2.774520e+00 3.381520e+01 
2.809730e+00 3.311826e+01 
2.844390e+00 3.245215e+01 
2.879960e+00 3.178747e+01 
2.914860e+00 3.115289e+01 
2.949410e+00 3.054222e+01 
2.984440e+00 2.993935e+01 
3.019760e+00 2.934788e+01 
3.054730e+00 2.877846e+01 
3.089030e+00 2.823375e+01 
3.124060e+00 2.769233e+01 
3.159560e+00 2.715794e+01 
3.194710e+00 2.664262e+01 
3.229010e+00 2.615323e+01 
3.263320e+00 2.567521e+01 
3.297930e+00 2.520543e+01 
3.332830e+00 2.474320e+01 
3.368040e+00 2.428863e+01 
3.403300e+00 2.384508e+01 
3.438450e+00 2.341370e+01 
3.473060e+00 2.299987e+01 
3.508440e+00 2.258643e+01 
3.543110e+00 2.219162e+01 
3.577470e+00 2.180935e+01 
3.613040e+00 2.142332e+01 
3.648120e+00 2.105129e+01 
3.682910e+00 2.069128e+01 
3.718050e+00 2.033617e+01 
3.753320e+00 1.998831e+01 
3.787980e+00 1.965442e+01 
3.822290e+00 1.933148e+01 
3.857020e+00 1.901187e+01 
3.891920e+00 1.869805e+01 
3.926650e+00 1.839263e+01 
3.961970e+00 1.808921e+01 
3.997360e+00 1.779211e+01 
4.031670e+00 1.751062e+01 
4.066330e+00 1.723231e+01 
4.101420e+00 1.695691e+01 
4.136200e+00 1.668970e+01 
4.170810e+00 1.642971e+01 
4.206250e+00 1.616907e+01 
4.241580e+00 1.591498e+01 
4.276300e+00 1.567068e+01 
4.310970e+00 1.543195e+01 
4.346120e+00 1.519511e+01 
4.380600e+00 1.496771e+01 
4.414730e+00 1.474732e+01 
4.450350e+00 1.452206e+01 
4.485320e+00 1.430560e+01 
4.519810e+00 1.409649e+01 
4.555430e+00 1.388499e+01 
4.590870e+00 1.367898e+01 
4.625480e+00 1.348196e+01 
4.659910e+00 1.328989e+01 
4.695230e+00 1.309684e+01 
4.729960e+00 1.291083e+01 
4.764450e+00 1.272976e+01 
4.799530e+00 1.254925e+01 
4.834910e+00 1.237079e+01 
4.869700e+00 1.219887e+01 
4.904370e+00 1.203086e+01 
4.939450e+00 1.186419e+01 
4.973940e+00 1.170359e+01 
5.008430e+00 1.154599e+01 
5.043810e+00 1.138743e+01 
5.078840e+00 1.123344e+01 
5.113500e+00 1.108389e+01 
5.148890e+00 1.093430e+01 
5.184210e+00 1.078778e+01 
5.219060e+00 1.064593e+01 
5.253660e+00 1.050778e+01 
5.288570e+00 1.037090e+01 
5.323420e+00 1.023682e+01 
5.358440e+00 1.010461e+01 
5.393590e+00 9.974270e+00 
5.428310e+00 9.847981e+00 
5.462800e+00 9.724803e+00 
5.497640e+00 9.602522e+00 
5.532670e+00 9.481891e+00 
5.567280e+00 9.364808e+00 
5.602000e+00 9.249344e+00 
5.637270e+00 9.134283e+00 
5.672410e+00 9.021650e+00 
5.707020e+00 8.912575e+00 
5.742040e+00 8.804279e+00 
5.777430e+00 8.696716e+00 
5.812210e+00 8.592759e+00 
5.846820e+00 8.491196e+00 
5.881610e+00 8.390809e+00 
5.916510e+00 8.291734e+00 
5.951600e+00 8.193931e+00 
5.986560e+00 8.098147e+00 
6.021830e+00 8.003063e+00 
6.056490e+00 7.911275e+00 
6.091160e+00 7.821039e+00 
6.125830e+00 7.732208e+00 
6.161090e+00 7.643367e+00 
6.195760e+00 7.557562e+00 
6.230420e+00 7.473095e+00 
6.265690e+00 7.388474e+00 
6.300950e+00 7.305442e+00 
6.335620e+00 7.225040e+00 
6.370880e+00 7.144506e+00 
6.405550e+00 7.066712e+00 
6.440220e+00 6.990153e+00 
6.475480e+00 6.913450e+00 
6.510150e+00 6.839220e+00 
6.544810e+00 6.766260e+00 
6.580080e+00 6.693104e+00 
6.614750e+00 6.622242e+00 
6.649410e+00 6.552681e+00 
6.684080e+00 6.484148e+00 
6.719340e+00 6.415449e+00 
6.754010e+00 6.348936e+00 
6.788680e+00 6.283525e+00 
6.823940e+00 6.217942e+00 
6.859800e+00 6.152197e+00 
6.894470e+00 6.089714e+00 
6.929140e+00 6.028160e+00 
6.963800e+00 5.967470e+00 
6.999070e+00 5.906577e+00 
7.033730e+00 5.847753e+00 
7.068400e+00 5.789710e+00 
7.103660e+00 5.731482e+00 
7.138330e+00 5.675088e+00 
7.173600e+00 5.618667e+00 
7.208260e+00 5.563965e+00 
7.243530e+00 5.509042e+00 
7.277600e+00 5.456809e+00 
7.312860e+00 5.403571e+00 
7.348120e+00 5.351039e+00 
7.382790e+00 5.300062e+00 
7.417460e+00 5.249883e+00 
7.452720e+00 5.199584e+00 
7.487390e+00 5.150765e+00 
7.522650e+00 5.101753e+00 
7.557320e+00 5.054320e+00 
7.591990e+00 5.007539e+00 
7.627250e+00 4.960564e+00 
7.662510e+00 4.914188e+00 
7.697180e+00 4.869310e+00 
7.731850e+00 4.825046e+00 
7.766510e+00 4.781342e+00 
7.801180e+00 4.738162e+00 
7.836440e+00 4.694920e+00 
7.871110e+00 4.653005e+00 
7.906380e+00 4.610885e+00 
7.941040e+00 4.569999e+00 
7.976310e+00 4.528970e+00 
8.011570e+00 4.488538e+00 
8.046240e+00 4.449260e+00 
8.080900e+00 4.410460e+00 
8.115570e+00 4.372145e+00 
8.150830e+00 4.333782e+00 
8.185500e+00 4.296506e+00 
8.220770e+00 4.259032e+00 
8.255430e+00 4.222638e+00 
8.290100e+00 4.186806e+00 
8.324770e+00 4.151404e+00 
8.359430e+00 4.116418e+00 
8.394700e+00 4.081227e+00 
8.429960e+00 4.046539e+00 
8.464630e+00 4.012907e+00 
8.499890e+00 3.979092e+00 
8.534560e+00 3.946221e+00 
8.569200e+00 3.913745e+00 
