# Parameters:
# omega_b = 0.021531, omega_m = 0.133780, n_s = 0.897244, h = 79.330709, w = -1.000000, sigma_8 = 0.748819
# z = 1.100000
#
# k[1/Mpc] # P(k):
8.694000e-04 6.737998e+03 
2.077466e-03 1.345001e+04 
3.285532e-03 1.835951e+04 
4.493598e-03 2.192201e+04 
5.701664e-03 2.441146e+04 
6.909730e-03 2.604357e+04 
8.117797e-03 2.703120e+04 
9.325863e-03 2.748413e+04 
1.053393e-02 2.750610e+04 
1.174199e-02 2.718846e+04 
1.295006e-02 2.658963e+04 
1.415813e-02 2.578439e+04 
1.536619e-02 2.483337e+04 
1.657426e-02 2.377316e+04 
1.778233e-02 2.261000e+04 
1.899039e-02 2.137447e+04 
2.019846e-02 2.015038e+04 
2.140652e-02 1.900157e+04 
2.261459e-02 1.792573e+04 
2.382266e-02 1.692430e+04 
2.503072e-02 1.600340e+04 
2.623879e-02 1.516423e+04 
2.744685e-02 1.440719e+04 
2.865492e-02 1.372972e+04 
2.986299e-02 1.312665e+04 
3.100100e-02 1.262375e+04 
3.220400e-02 1.215419e+04 
3.288100e-02 1.191705e+04 
3.424300e-02 1.149006e+04 
3.555100e-02 1.113295e+04 
3.686000e-02 1.081992e+04 
3.795000e-02 1.058570e+04 
3.929100e-02 1.032451e+04 
4.039800e-02 1.012347e+04 
4.164000e-02 9.907739e+03 
4.294400e-02 9.682864e+03 
4.415000e-02 9.475403e+03 
4.542900e-02 9.245223e+03 
4.660900e-02 9.027626e+03 
4.782300e-02 8.786034e+03 
4.892900e-02 8.558576e+03 
5.031200e-02 8.260447e+03 
5.155900e-02 7.978918e+03 
5.238100e-02 7.789124e+03 
5.378200e-02 7.460979e+03 
5.513400e-02 7.140815e+03 
5.627600e-02 6.871454e+03 
5.735300e-02 6.621566e+03 
5.870100e-02 6.317471e+03 
5.988700e-02 6.061157e+03 
6.113500e-02 5.804684e+03 
6.225900e-02 5.587620e+03 
6.340100e-02 5.382356e+03 
6.480200e-02 5.151429e+03 
6.601100e-02 4.973219e+03 
6.725500e-02 4.809328e+03 
6.829100e-02 4.688994e+03 
6.958600e-02 4.554242e+03 
7.071100e-02 4.452190e+03 
7.192300e-02 4.355233e+03 
7.307400e-02 4.274042e+03 
7.412300e-02 4.207870e+03 
7.550400e-02 4.131020e+03 
7.663100e-02 4.074139e+03 
7.791200e-02 4.015273e+03 
7.912700e-02 3.962436e+03 
8.027600e-02 3.913546e+03 
8.138400e-02 3.866509e+03 
8.272200e-02 3.808593e+03 
8.406100e-02 3.748339e+03 
8.534100e-02 3.686546e+03 
8.653800e-02 3.624629e+03 
8.759800e-02 3.567441e+03 
8.900300e-02 3.487654e+03 
9.009000e-02 3.422462e+03 
9.113300e-02 3.356943e+03 
9.239600e-02 3.276122e+03 
9.358000e-02 3.198295e+03 
9.496100e-02 3.105267e+03 
9.608400e-02 3.029795e+03 
9.727500e-02 2.950565e+03 
9.852600e-02 2.867510e+03 
9.973800e-02 2.789549e+03 
1.009000e-01 2.717086e+03 
1.020900e-01 2.646382e+03 
1.034000e-01 2.572459e+03 
1.046000e-01 2.508398e+03 
1.057200e-01 2.453722e+03 
1.069100e-01 2.398729e+03 
1.082500e-01 2.343016e+03 
1.093900e-01 2.300026e+03 
1.105400e-01 2.259548e+03 
1.116900e-01 2.224347e+03 
1.129600e-01 2.187921e+03 
1.142000e-01 2.156832e+03 
1.153300e-01 2.130396e+03 
1.166400e-01 2.102362e+03 
1.177800e-01 2.079629e+03 
1.190000e-01 2.056382e+03 
1.201200e-01 2.035572e+03 
1.213400e-01 2.013446e+03 
1.227100e-01 1.987849e+03 
1.238900e-01 1.965851e+03 
1.250700e-01 1.942631e+03 
1.263200e-01 1.917738e+03 
1.275500e-01 1.891885e+03 
1.287500e-01 1.866142e+03 
1.299900e-01 1.838410e+03 
1.311300e-01 1.812469e+03 
1.323500e-01 1.783794e+03 
1.335900e-01 1.754479e+03 
1.347100e-01 1.727471e+03 
1.359800e-01 1.697040e+03 
1.372100e-01 1.667248e+03 
1.384300e-01 1.638179e+03 
1.395700e-01 1.611095e+03 
1.407700e-01 1.583226e+03 
1.420300e-01 1.554521e+03 
1.432800e-01 1.526735e+03 
1.444500e-01 1.501764e+03 
1.456300e-01 1.477139e+03 
1.468900e-01 1.452241e+03 
1.480500e-01 1.430063e+03 
1.491700e-01 1.409640e+03 
1.503800e-01 1.388730e+03 
1.516400e-01 1.367695e+03 
1.528200e-01 1.349585e+03 
1.540200e-01 1.331536e+03 
1.551900e-01 1.315372e+03 
1.564300e-01 1.298838e+03 
1.576600e-01 1.283239e+03 
1.588700e-01 1.268763e+03 
1.600900e-01 1.254475e+03 
1.612700e-01 1.241502e+03 
1.625400e-01 1.227799e+03 
1.637600e-01 1.214942e+03 
1.649500e-01 1.202662e+03 
1.662200e-01 1.189742e+03 
1.674000e-01 1.177648e+03 
1.685000e-01 1.166563e+03 
1.697500e-01 1.153834e+03 
1.710300e-01 1.140694e+03 
1.722200e-01 1.128697e+03 
1.734400e-01 1.115787e+03 
1.746400e-01 1.103277e+03 
1.758700e-01 1.090436e+03 
1.770900e-01 1.077429e+03 
1.782700e-01 1.065068e+03 
1.794600e-01 1.052497e+03 
1.807000e-01 1.039415e+03 
1.819100e-01 1.026877e+03 
1.830100e-01 1.015475e+03 
1.842200e-01 1.003108e+03 
1.855000e-01 9.902609e+02 
1.867000e-01 9.784636e+02 
1.879200e-01 9.666751e+02 
1.890900e-01 9.556000e+02 
1.902800e-01 9.447292e+02 
1.915200e-01 9.335914e+02 
1.926900e-01 9.233428e+02 
1.939000e-01 9.131971e+02 
1.951700e-01 9.027248e+02 
1.963100e-01 8.935712e+02 
1.975100e-01 8.843406e+02 
1.987800e-01 8.747281e+02 
2.000100e-01 8.656616e+02 
2.012500e-01 8.568818e+02 
2.023400e-01 8.492776e+02 
2.036100e-01 8.405881e+02 
2.048900e-01 8.321215e+02 
2.060400e-01 8.246288e+02 
2.072200e-01 8.170565e+02 
2.084200e-01 8.095426e+02 
2.096900e-01 8.017092e+02 
2.109200e-01 7.942363e+02 
2.121100e-01 7.870913e+02 
2.132700e-01 7.802228e+02 
2.145200e-01 7.729268e+02 
2.157200e-01 7.659842e+02 
2.168800e-01 7.593478e+02 
2.180700e-01 7.526330e+02 
2.193400e-01 7.455432e+02 
2.206000e-01 7.385640e+02 
2.217500e-01 7.322825e+02 
2.229500e-01 7.258160e+02 
2.241400e-01 7.194441e+02 
2.253500e-01 7.130522e+02 
2.264900e-01 7.071100e+02 
2.277100e-01 7.008326e+02 
2.289900e-01 6.943356e+02 
2.301500e-01 6.885277e+02 
2.313600e-01 6.825492e+02 
2.325600e-01 6.767335e+02 
2.337700e-01 6.709466e+02 
2.350000e-01 6.651422e+02 
2.362000e-01 6.595859e+02 
2.374100e-01 6.540938e+02 
2.386500e-01 6.485392e+02 
2.399100e-01 6.429700e+02 
2.410400e-01 6.381030e+02 
2.422500e-01 6.329635e+02 
2.435000e-01 6.277223e+02 
2.447300e-01 6.226464e+02 
2.458700e-01 6.180602e+02 
2.470600e-01 6.133300e+02 
2.483300e-01 6.083450e+02 
2.495600e-01 6.036002e+02 
2.507600e-01 5.990577e+02 
2.519600e-01 5.945699e+02 
2.532200e-01 5.899155e+02 
2.543700e-01 5.857365e+02 
2.555500e-01 5.815103e+02 
2.568000e-01 5.770868e+02 
2.580100e-01 5.728563e+02 
2.592400e-01 5.686122e+02 
2.604100e-01 5.646244e+02 
2.616100e-01 5.605810e+02 
2.628400e-01 5.564848e+02 
2.640600e-01 5.524597e+02 
2.652200e-01 5.486719e+02 
2.664300e-01 5.447652e+02 
2.676500e-01 5.408714e+02 
2.688400e-01 5.371032e+02 
2.700700e-01 5.332444e+02 
2.712400e-01 5.296148e+02 
2.724800e-01 5.258110e+02 
2.736700e-01 5.221901e+02 
2.748800e-01 5.185372e+02 
2.761000e-01 5.148952e+02 
2.773200e-01 5.112937e+02 
2.785400e-01 5.077250e+02 
2.797000e-01 5.043537e+02 
2.808900e-01 5.009318e+02 
2.821400e-01 4.973768e+02 
2.833900e-01 4.938608e+02 
2.845500e-01 4.906132e+02 
2.857800e-01 4.872063e+02 
2.870300e-01 4.837820e+02 
2.882100e-01 4.805841e+02 
2.893900e-01 4.774108e+02 
2.906300e-01 4.741070e+02 
2.918900e-01 4.707864e+02 
2.930500e-01 4.677615e+02 
2.942500e-01 4.646621e+02 
2.954200e-01 4.616644e+02 
2.966500e-01 4.585455e+02 
2.978900e-01 4.554344e+02 
2.990400e-01 4.525785e+02 
3.002700e-01 4.495514e+02 
3.015100e-01 4.465298e+02 
3.026800e-01 4.437077e+02 
3.038500e-01 4.409134e+02 
3.050300e-01 4.381228e+02 
3.062600e-01 4.352429e+02 
3.075000e-01 4.323694e+02 
3.087000e-01 4.296166e+02 
3.099100e-01 4.268684e+02 
3.111200e-01 4.241496e+02 
3.123100e-01 4.215056e+02 
3.135300e-01 4.188215e+02 
3.147300e-01 4.162074e+02 
3.159900e-01 4.134897e+02 
3.171800e-01 4.109533e+02 
3.183700e-01 4.084443e+02 
3.196300e-01 4.058136e+02 
3.208400e-01 4.033121e+02 
3.220300e-01 4.008753e+02 
3.232000e-01 3.985089e+02 
3.244300e-01 3.960474e+02 
3.256700e-01 3.935899e+02 
3.269200e-01 3.911366e+02 
3.280800e-01 3.888812e+02 
3.292500e-01 3.866365e+02 
3.304800e-01 3.843015e+02 
3.317100e-01 3.819885e+02 
3.328900e-01 3.797899e+02 
3.340700e-01 3.776112e+02 
3.353600e-01 3.752623e+02 
3.365300e-01 3.731556e+02 
3.377100e-01 3.710498e+02 
3.389200e-01 3.689098e+02 
3.401600e-01 3.667368e+02 
3.413700e-01 3.646457e+02 
3.425300e-01 3.626655e+02 
3.437700e-01 3.605675e+02 
3.449800e-01 3.585387e+02 
3.461800e-01 3.565444e+02 
3.473600e-01 3.546047e+02 
3.485800e-01 3.526270e+02 
3.498100e-01 3.506508e+02 
3.510200e-01 3.487238e+02 
3.522000e-01 3.468608e+02 
3.533900e-01 3.449979e+02 
3.546400e-01 3.430723e+02 
3.558400e-01 3.412406e+02 
3.570600e-01 3.393943e+02 
3.582700e-01 3.375789e+02 
3.595000e-01 3.357492e+02 
3.607100e-01 3.339722e+02 
3.618900e-01 3.322594e+02 
3.631200e-01 3.304890e+02 
3.643200e-01 3.287763e+02 
3.655500e-01 3.270355e+02 
3.667300e-01 3.253794e+02 
3.679500e-01 3.236948e+02 
3.691900e-01 3.219970e+02 
3.703600e-01 3.204081e+02 
3.715700e-01 3.187782e+02 
3.727700e-01 3.171750e+02 
3.739900e-01 3.155627e+02 
3.752000e-01 3.139845e+02 
3.763900e-01 3.124449e+02 
3.775800e-01 3.109176e+02 
3.788200e-01 3.093389e+02 
3.800300e-01 3.078108e+02 
3.812100e-01 3.063379e+02 
3.824200e-01 3.048429e+02 
3.836100e-01 3.033842e+02 
3.848600e-01 3.018642e+02 
3.860400e-01 3.004407e+02 
3.872400e-01 2.990042e+02 
3.884600e-01 2.975623e+02 
3.896500e-01 2.961695e+02 
3.908700e-01 2.947526e+02 
3.920600e-01 2.933812e+02 
3.933100e-01 2.919518e+02 
3.945300e-01 2.905677e+02 
3.957200e-01 2.892348e+02 
3.969300e-01 2.878917e+02 
3.981700e-01 2.865258e+02 
3.993500e-01 2.852359e+02 
4.094840e-01 2.745601e+02 
4.272360e-01 2.575355e+02 
4.454600e-01 2.419079e+02 
4.630560e-01 2.283304e+02 
4.804610e-01 2.161599e+02 
4.980690e-01 2.049536e+02 
5.159230e-01 1.945884e+02 
5.317440e-01 1.861458e+02 
5.489640e-01 1.776738e+02 
5.671990e-01 1.694350e+02 
5.838690e-01 1.624879e+02 
6.018840e-01 1.555516e+02 
6.202330e-01 1.490421e+02 
6.379250e-01 1.432274e+02 
6.545410e-01 1.381658e+02 
6.714560e-01 1.333517e+02 
6.892080e-01 1.286423e+02 
7.066010e-01 1.243428e+02 
7.240540e-01 1.203028e+02 
7.420450e-01 1.164136e+02 
7.593780e-01 1.129010e+02 
7.764720e-01 1.096386e+02 
7.942840e-01 1.064382e+02 
8.116170e-01 1.035053e+02 
8.288310e-01 1.007550e+02 
8.462240e-01 9.812251e+01 
8.631980e-01 9.568602e+01 
8.810700e-01 9.325014e+01 
8.989410e-01 9.093862e+01 
9.166330e-01 8.876129e+01 
9.345640e-01 8.666003e+01 
9.515980e-01 8.475515e+01 
9.688720e-01 8.290725e+01 
9.865640e-01 8.109636e+01 
1.031870e+00 7.679338e+01 
1.063490e+00 7.404396e+01 
1.097920e+00 7.125901e+01 
1.134370e+00 6.851601e+01 
1.167730e+00 6.617508e+01 
1.203830e+00 6.379886e+01 
1.240470e+00 6.154137e+01 
1.275790e+00 5.949444e+01 
1.309140e+00 5.767187e+01 
1.342970e+00 5.591549e+01 
1.378420e+00 5.417464e+01 
1.413200e+00 5.255262e+01 
1.448110e+00 5.100417e+01 
1.484090e+00 4.948862e+01 
1.518820e+00 4.809431e+01 
1.552880e+00 4.678655e+01 
1.588630e+00 4.547490e+01 
1.623230e+00 4.426251e+01 
1.657720e+00 4.310469e+01 
1.692450e+00 4.198749e+01 
1.726400e+00 4.093711e+01 
1.762200e+00 3.987365e+01 
1.797880e+00 3.885661e+01 
1.833270e+00 3.788752e+01 
1.869070e+00 3.694477e+01 
1.903200e+00 3.607929e+01 
1.937740e+00 3.523496e+01 
1.973190e+00 3.439917e+01 
2.007440e+00 3.362031e+01 
2.042160e+00 3.285764e+01 
2.077900e+00 3.209934e+01 
2.112390e+00 3.139287e+01 
2.146220e+00 3.072149e+01 
2.181600e+00 3.004184e+01 
2.216930e+00 2.938569e+01 
2.250760e+00 2.877729e+01 
2.286500e+00 2.815471e+01 
2.321770e+00 2.755986e+01 
2.355950e+00 2.700064e+01 
2.391280e+00 2.643925e+01 
2.426240e+00 2.590036e+01 
2.460670e+00 2.538561e+01 
2.495640e+00 2.487856e+01 
2.531080e+00 2.437828e+01 
2.566220e+00 2.389662e+01 
2.600830e+00 2.343584e+01 
2.635080e+00 2.299266e+01 
2.670340e+00 2.254788e+01 
2.705970e+00 2.211124e+01 
2.740040e+00 2.170531e+01 
2.774520e+00 2.130465e+01 
2.809730e+00 2.090610e+01 
2.844390e+00 2.052440e+01 
2.879960e+00 2.014262e+01 
2.914860e+00 1.977761e+01 
2.949410e+00 1.942581e+01 
2.984440e+00 1.907741e+01 
3.019760e+00 1.873521e+01 
3.054730e+00 1.840539e+01 
3.089030e+00 1.808858e+01 
3.124060e+00 1.777332e+01 
3.159560e+00 1.746172e+01 
3.194710e+00 1.716033e+01 
3.229010e+00 1.687365e+01 
3.263320e+00 1.659260e+01 
3.297930e+00 1.631611e+01 
3.332830e+00 1.604369e+01 
3.368040e+00 1.577506e+01 
3.403300e+00 1.551236e+01 
3.438450e+00 1.525609e+01 
3.473060e+00 1.500992e+01 
3.508440e+00 1.476333e+01 
3.543110e+00 1.452755e+01 
3.577470e+00 1.429839e+01 
3.613040e+00 1.406672e+01 
3.648120e+00 1.384304e+01 
3.682910e+00 1.362617e+01 
3.718050e+00 1.341162e+01 
3.753320e+00 1.320107e+01 
3.787980e+00 1.299851e+01 
3.822290e+00 1.280221e+01 
3.857020e+00 1.260742e+01 
3.891920e+00 1.241583e+01 
3.926650e+00 1.222890e+01 
3.961970e+00 1.204290e+01 
3.997360e+00 1.186023e+01 
4.031670e+00 1.168695e+01 
4.066330e+00 1.151515e+01 
4.101420e+00 1.134502e+01 
4.136200e+00 1.117935e+01 
4.170810e+00 1.101806e+01 
4.206250e+00 1.085592e+01 
4.241580e+00 1.069769e+01 
4.276300e+00 1.054511e+01 
4.310970e+00 1.039573e+01 
4.346120e+00 1.024729e+01 
4.380600e+00 1.010442e+01 
4.414730e+00 9.965873e+00 
4.450350e+00 9.823727e+00 
4.485320e+00 9.687054e+00 
4.519810e+00 9.554658e+00 
4.555430e+00 9.420546e+00 
4.590870e+00 9.289726e+00 
4.625480e+00 9.164308e+00 
4.659910e+00 9.041976e+00 
4.695230e+00 8.918604e+00 
4.729960e+00 8.799612e+00 
4.764450e+00 8.683588e+00 
4.799530e+00 8.567636e+00 
4.834910e+00 8.452948e+00 
4.869700e+00 8.342140e+00 
4.904370e+00 8.233756e+00 
4.939450e+00 8.126094e+00 
4.973940e+00 8.022078e+00 
5.008430e+00 7.919964e+00 
5.043810e+00 7.816990e+00 
5.078840e+00 7.716826e+00 
5.113500e+00 7.619519e+00 
5.148890e+00 7.521846e+00 
5.184210e+00 7.426135e+00 
5.219060e+00 7.333360e+00 
5.253660e+00 7.242789e+00 
5.288570e+00 7.153011e+00 
5.323420e+00 7.064925e+00 
5.358440e+00 6.977915e+00 
5.393590e+00 6.892104e+00 
5.428310e+00 6.808766e+00 
5.462800e+00 6.727367e+00 
5.497640e+00 6.646534e+00 
5.532670e+00 6.566593e+00 
5.567280e+00 6.488923e+00 
5.602000e+00 6.412304e+00 
5.637270e+00 6.335777e+00 
5.672410e+00 6.260808e+00 
5.707020e+00 6.188185e+00 
5.742040e+00 6.115890e+00 
5.777430e+00 6.044030e+00 
5.812210e+00 5.974558e+00 
5.846820e+00 5.906542e+00 
5.881610e+00 5.839264e+00 
5.916510e+00 5.772847e+00 
5.951600e+00 5.707150e+00 
5.986560e+00 5.642741e+00 
6.021830e+00 5.578786e+00 
6.056490e+00 5.516954e+00 
6.091160e+00 5.456087e+00 
6.125830e+00 5.396154e+00 
6.161090e+00 5.336160e+00 
6.195760e+00 5.278119e+00 
6.230420e+00 5.220971e+00 
6.265690e+00 5.163700e+00 
6.300950e+00 5.107369e+00 
6.335620e+00 5.052811e+00 
6.370880e+00 4.998152e+00 
6.405550e+00 4.945273e+00 
6.440220e+00 4.893195e+00 
6.475480e+00 4.841009e+00 
6.510150e+00 4.790464e+00 
6.544810e+00 4.740700e+00 
6.580080e+00 4.690793e+00 
6.614750e+00 4.642442e+00 
6.649410e+00 4.594907e+00 
6.684080e+00 4.548053e+00 
6.719340e+00 4.501078e+00 
6.754010e+00 4.455564e+00 
6.788680e+00 4.410740e+00 
6.823940e+00 4.365790e+00 
6.859800e+00 4.320722e+00 
6.894470e+00 4.277839e+00 
6.929140e+00 4.235570e+00 
6.963800e+00 4.193888e+00 
6.999070e+00 4.152058e+00 
7.033730e+00 4.111585e+00 
7.068400e+00 4.071643e+00 
7.103660e+00 4.031569e+00 
7.138330e+00 3.992737e+00 
7.173600e+00 3.953848e+00 
7.208260e+00 3.916140e+00 
7.243530e+00 3.878275e+00 
7.277600e+00 3.842234e+00 
7.312860e+00 3.805474e+00 
7.348120e+00 3.769197e+00 
7.382790e+00 3.733990e+00 
7.417460e+00 3.699301e+00 
7.452720e+00 3.664510e+00 
7.487390e+00 3.630740e+00 
7.522650e+00 3.596832e+00 
7.557320e+00 3.563994e+00 
7.591990e+00 3.531596e+00 
7.627250e+00 3.499062e+00 
7.662510e+00 3.466938e+00 
7.697180e+00 3.435826e+00 
7.731850e+00 3.405128e+00 
7.766510e+00 3.374815e+00 
7.801180e+00 3.344864e+00 
7.836440e+00 3.314856e+00 
7.871110e+00 3.285759e+00 
7.906380e+00 3.256519e+00 
7.941040e+00 3.228132e+00 
7.976310e+00 3.199634e+00 
8.011570e+00 3.171537e+00 
8.046240e+00 3.144240e+00 
8.080900e+00 3.117272e+00 
8.115570e+00 3.090637e+00 
8.150830e+00 3.063956e+00 
8.185500e+00 3.038029e+00 
8.220770e+00 3.011962e+00 
8.255430e+00 2.986644e+00 
8.290100e+00 2.961700e+00 
8.324770e+00 2.937053e+00 
8.359430e+00 2.912693e+00 
8.394700e+00 2.888189e+00 
8.429960e+00 2.864030e+00 
8.464630e+00 2.840603e+00 
8.499890e+00 2.817047e+00 
8.534560e+00 2.794146e+00 
8.569200e+00 2.771520e+00 
