# Parameters:
# omega_b = 0.021673, omega_m = 0.153622, n_s = 0.927165, h = 66.574803, w = -1.000000, sigma_8 = 0.819685
# z = 1.100000
#
# k[1/Mpc] # P(k):
8.694000e-04 4.962384e+03 
2.077466e-03 1.034868e+04 
3.285532e-03 1.452539e+04 
4.493598e-03 1.775469e+04 
5.701664e-03 2.019083e+04 
6.909730e-03 2.196025e+04 
8.117797e-03 2.320412e+04 
9.325863e-03 2.399598e+04 
1.053393e-02 2.441083e+04 
1.174199e-02 2.451835e+04 
1.295006e-02 2.436168e+04 
1.415813e-02 2.399831e+04 
1.536619e-02 2.347711e+04 
1.657426e-02 2.283001e+04 
1.778233e-02 2.207869e+04 
1.899039e-02 2.125821e+04 
2.019846e-02 2.040453e+04 
2.140652e-02 1.955528e+04 
2.261459e-02 1.872033e+04 
2.382266e-02 1.791265e+04 
2.503072e-02 1.714425e+04 
2.623879e-02 1.642070e+04 
2.744685e-02 1.574406e+04 
2.865492e-02 1.511890e+04 
2.986299e-02 1.454493e+04 
3.100100e-02 1.405028e+04 
3.220400e-02 1.357428e+04 
3.288100e-02 1.332717e+04 
3.424300e-02 1.287160e+04 
3.555100e-02 1.248004e+04 
3.686000e-02 1.212880e+04 
3.795000e-02 1.186222e+04 
3.929100e-02 1.156296e+04 
4.039800e-02 1.133409e+04 
4.164000e-02 1.109182e+04 
4.294400e-02 1.084774e+04 
4.415000e-02 1.062899e+04 
4.542900e-02 1.039656e+04 
4.660900e-02 1.018298e+04 
4.782300e-02 9.954503e+03 
4.892900e-02 9.743289e+03 
5.031200e-02 9.470976e+03 
5.155900e-02 9.216202e+03 
5.238100e-02 9.044636e+03 
5.378200e-02 8.747123e+03 
5.513400e-02 8.453852e+03 
5.627600e-02 8.203589e+03 
5.735300e-02 7.967808e+03 
5.870100e-02 7.675166e+03 
5.988700e-02 7.422864e+03 
6.113500e-02 7.164126e+03 
6.225900e-02 6.938808e+03 
6.340100e-02 6.719283e+03 
6.480200e-02 6.464479e+03 
6.601100e-02 6.259077e+03 
6.725500e-02 6.062574e+03 
6.829100e-02 5.911705e+03 
6.958600e-02 5.737075e+03 
7.071100e-02 5.599072e+03 
7.192300e-02 5.463315e+03 
7.307400e-02 5.345975e+03 
7.412300e-02 5.248023e+03 
7.550400e-02 5.131887e+03 
7.663100e-02 5.045354e+03 
7.791200e-02 4.956691e+03 
7.912700e-02 4.879845e+03 
8.027600e-02 4.811769e+03 
8.138400e-02 4.749279e+03 
8.272200e-02 4.676827e+03 
8.406100e-02 4.606148e+03 
8.534100e-02 4.538473e+03 
8.653800e-02 4.473808e+03 
8.759800e-02 4.415555e+03 
8.900300e-02 4.336056e+03 
9.009000e-02 4.272004e+03 
9.113300e-02 4.207836e+03 
9.239600e-02 4.128561e+03 
9.358000e-02 4.051780e+03 
9.496100e-02 3.958778e+03 
9.608400e-02 3.882323e+03 
9.727500e-02 3.801162e+03 
9.852600e-02 3.713777e+03 
9.973800e-02 3.630379e+03 
1.009000e-01 3.551707e+03 
1.020900e-01 3.472059e+03 
1.034000e-01 3.387164e+03 
1.046000e-01 3.311917e+03 
1.057200e-01 3.244765e+03 
1.069100e-01 3.176050e+03 
1.082500e-01 3.103095e+03 
1.093900e-01 3.044653e+03 
1.105400e-01 2.988320e+03 
1.116900e-01 2.936432e+03 
1.129600e-01 2.881787e+03 
1.142000e-01 2.832858e+03 
1.153300e-01 2.790716e+03 
1.166400e-01 2.745136e+03 
1.177800e-01 2.708305e+03 
1.190000e-01 2.670699e+03 
1.201200e-01 2.638657e+03 
1.213400e-01 2.604875e+03 
1.227100e-01 2.569459e+03 
1.238900e-01 2.539853e+03 
1.250700e-01 2.511264e+03 
1.263200e-01 2.481571e+03 
1.275500e-01 2.452777e+03 
1.287500e-01 2.424903e+03 
1.299900e-01 2.396076e+03 
1.311300e-01 2.369442e+03 
1.323500e-01 2.340476e+03 
1.335900e-01 2.310767e+03 
1.347100e-01 2.283280e+03 
1.359800e-01 2.251950e+03 
1.372100e-01 2.220611e+03 
1.384300e-01 2.189575e+03 
1.395700e-01 2.159654e+03 
1.407700e-01 2.128665e+03 
1.420300e-01 2.095149e+03 
1.432800e-01 2.062661e+03 
1.444500e-01 2.031847e+03 
1.456300e-01 2.001435e+03 
1.468900e-01 1.969585e+03 
1.480500e-01 1.940874e+03 
1.491700e-01 1.913961e+03 
1.503800e-01 1.885794e+03 
1.516400e-01 1.857317e+03 
1.528200e-01 1.832180e+03 
1.540200e-01 1.807131e+03 
1.551900e-01 1.784384e+03 
1.564300e-01 1.761040e+03 
1.576600e-01 1.739004e+03 
1.588700e-01 1.718536e+03 
1.600900e-01 1.698352e+03 
1.612700e-01 1.680312e+03 
1.625400e-01 1.661259e+03 
1.637600e-01 1.643727e+03 
1.649500e-01 1.627183e+03 
1.662200e-01 1.609878e+03 
1.674000e-01 1.594248e+03 
1.685000e-01 1.579921e+03 
1.697500e-01 1.563784e+03 
1.710300e-01 1.547426e+03 
1.722200e-01 1.532488e+03 
1.734400e-01 1.516867e+03 
1.746400e-01 1.501742e+03 
1.758700e-01 1.486284e+03 
1.770900e-01 1.470768e+03 
1.782700e-01 1.456013e+03 
1.794600e-01 1.441015e+03 
1.807000e-01 1.425407e+03 
1.819100e-01 1.410436e+03 
1.830100e-01 1.396685e+03 
1.842200e-01 1.381739e+03 
1.855000e-01 1.366189e+03 
1.867000e-01 1.351638e+03 
1.879200e-01 1.337088e+03 
1.890900e-01 1.323358e+03 
1.902800e-01 1.309606e+03 
1.915200e-01 1.295508e+03 
1.926900e-01 1.282458e+03 
1.939000e-01 1.269298e+03 
1.951700e-01 1.255709e+03 
1.963100e-01 1.243764e+03 
1.975100e-01 1.231543e+03 
1.987800e-01 1.218813e+03 
2.000100e-01 1.206763e+03 
2.012500e-01 1.195001e+03 
2.023400e-01 1.184812e+03 
2.036100e-01 1.173163e+03 
2.048900e-01 1.161797e+03 
2.060400e-01 1.151736e+03 
2.072200e-01 1.141573e+03 
2.084200e-01 1.131553e+03 
2.096900e-01 1.121106e+03 
2.109200e-01 1.111138e+03 
2.121100e-01 1.101717e+03 
2.132700e-01 1.092665e+03 
2.145200e-01 1.083048e+03 
2.157200e-01 1.073975e+03 
2.168800e-01 1.065337e+03 
2.180700e-01 1.056595e+03 
2.193400e-01 1.047390e+03 
2.206000e-01 1.038377e+03 
2.217500e-01 1.030262e+03 
2.229500e-01 1.021906e+03 
2.241400e-01 1.013699e+03 
2.253500e-01 1.005463e+03 
2.264900e-01 9.978052e+02 
2.277100e-01 9.896953e+02 
2.289900e-01 9.812799e+02 
2.301500e-01 9.737548e+02 
2.313600e-01 9.660057e+02 
2.325600e-01 9.583898e+02 
2.337700e-01 9.508097e+02 
2.350000e-01 9.432047e+02 
2.362000e-01 9.358777e+02 
2.374100e-01 9.285802e+02 
2.386500e-01 9.211981e+02 
2.399100e-01 9.137948e+02 
2.410400e-01 9.072401e+02 
2.422500e-01 9.003065e+02 
2.435000e-01 8.932345e+02 
2.447300e-01 8.863696e+02 
2.458700e-01 8.801058e+02 
2.470600e-01 8.736445e+02 
2.483300e-01 8.668344e+02 
2.495600e-01 8.603322e+02 
2.507600e-01 8.540800e+02 
2.519600e-01 8.479023e+02 
2.532200e-01 8.414947e+02 
2.543700e-01 8.357361e+02 
2.555500e-01 8.299086e+02 
2.568000e-01 8.238084e+02 
2.580100e-01 8.179738e+02 
2.592400e-01 8.121333e+02 
2.604100e-01 8.066507e+02 
2.616100e-01 8.010911e+02 
2.628400e-01 7.954584e+02 
2.640600e-01 7.899505e+02 
2.652200e-01 7.847779e+02 
2.664300e-01 7.794421e+02 
2.676500e-01 7.741233e+02 
2.688400e-01 7.690036e+02 
2.700700e-01 7.637775e+02 
2.712400e-01 7.588612e+02 
2.724800e-01 7.537082e+02 
2.736700e-01 7.488234e+02 
2.748800e-01 7.439162e+02 
2.761000e-01 7.390229e+02 
2.773200e-01 7.341832e+02 
2.785400e-01 7.293984e+02 
2.797000e-01 7.249016e+02 
2.808900e-01 7.203366e+02 
2.821400e-01 7.155931e+02 
2.833900e-01 7.109017e+02 
2.845500e-01 7.065936e+02 
2.857800e-01 7.020730e+02 
2.870300e-01 6.975285e+02 
2.882100e-01 6.932835e+02 
2.893900e-01 6.890823e+02 
2.906300e-01 6.847135e+02 
2.918900e-01 6.803217e+02 
2.930500e-01 6.763201e+02 
2.942500e-01 6.722211e+02 
2.954200e-01 6.682623e+02 
2.966500e-01 6.641424e+02 
2.978900e-01 6.600320e+02 
2.990400e-01 6.562580e+02 
3.002700e-01 6.522587e+02 
3.015100e-01 6.482668e+02 
3.026800e-01 6.445377e+02 
3.038500e-01 6.408444e+02 
3.050300e-01 6.371553e+02 
3.062600e-01 6.333450e+02 
3.075000e-01 6.295423e+02 
3.087000e-01 6.258984e+02 
3.099100e-01 6.222599e+02 
3.111200e-01 6.186573e+02 
3.123100e-01 6.151495e+02 
3.135300e-01 6.115877e+02 
3.147300e-01 6.081179e+02 
3.159900e-01 6.045100e+02 
3.171800e-01 6.011370e+02 
3.183700e-01 5.977966e+02 
3.196300e-01 5.942934e+02 
3.208400e-01 5.909616e+02 
3.220300e-01 5.877153e+02 
3.232000e-01 5.845562e+02 
3.244300e-01 5.812671e+02 
3.256700e-01 5.779826e+02 
3.269200e-01 5.747030e+02 
3.280800e-01 5.716875e+02 
3.292500e-01 5.686800e+02 
3.304800e-01 5.655492e+02 
3.317100e-01 5.624474e+02 
3.328900e-01 5.594984e+02 
3.340700e-01 5.565754e+02 
3.353600e-01 5.534178e+02 
3.365300e-01 5.505832e+02 
3.377100e-01 5.477492e+02 
3.389200e-01 5.448686e+02 
3.401600e-01 5.419431e+02 
3.413700e-01 5.391239e+02 
3.425300e-01 5.364516e+02 
3.437700e-01 5.336198e+02 
3.449800e-01 5.308809e+02 
3.461800e-01 5.281881e+02 
3.473600e-01 5.255673e+02 
3.485800e-01 5.228919e+02 
3.498100e-01 5.202180e+02 
3.510200e-01 5.176103e+02 
3.522000e-01 5.150887e+02 
3.533900e-01 5.125669e+02 
3.546400e-01 5.099570e+02 
3.558400e-01 5.074739e+02 
3.570600e-01 5.049706e+02 
3.582700e-01 5.025088e+02 
3.595000e-01 5.000273e+02 
3.607100e-01 4.976159e+02 
3.618900e-01 4.952909e+02 
3.631200e-01 4.928872e+02 
3.643200e-01 4.905616e+02 
3.655500e-01 4.881975e+02 
3.667300e-01 4.859479e+02 
3.679500e-01 4.836592e+02 
3.691900e-01 4.813521e+02 
3.703600e-01 4.791928e+02 
3.715700e-01 4.769774e+02 
3.727700e-01 4.747979e+02 
3.739900e-01 4.726060e+02 
3.752000e-01 4.704608e+02 
3.763900e-01 4.683678e+02 
3.775800e-01 4.662910e+02 
3.788200e-01 4.641441e+02 
3.800300e-01 4.620659e+02 
3.812100e-01 4.600628e+02 
3.824200e-01 4.580300e+02 
3.836100e-01 4.560462e+02 
3.848600e-01 4.539788e+02 
3.860400e-01 4.520422e+02 
3.872400e-01 4.500878e+02 
3.884600e-01 4.481265e+02 
3.896500e-01 4.462319e+02 
3.908700e-01 4.443042e+02 
3.920600e-01 4.424383e+02 
3.933100e-01 4.404932e+02 
3.945300e-01 4.386095e+02 
3.957200e-01 4.367968e+02 
3.969300e-01 4.349704e+02 
3.981700e-01 4.331130e+02 
3.993500e-01 4.313586e+02 
4.094840e-01 4.168245e+02 
4.272360e-01 3.936281e+02 
4.454600e-01 3.722607e+02 
4.630560e-01 3.536075e+02 
4.804610e-01 3.367906e+02 
4.980690e-01 3.212105e+02 
5.159230e-01 3.067074e+02 
5.317440e-01 2.948301e+02 
5.489640e-01 2.828465e+02 
5.671990e-01 2.711369e+02 
5.838690e-01 2.612258e+02 
6.018840e-01 2.512914e+02 
6.202330e-01 2.419340e+02 
6.379250e-01 2.335573e+02 
6.545410e-01 2.262432e+02 
6.714560e-01 2.192673e+02 
6.892080e-01 2.124313e+02 
7.066010e-01 2.061693e+02 
7.240540e-01 2.002725e+02 
7.420450e-01 1.945740e+02 
7.593780e-01 1.894085e+02 
7.764720e-01 1.845951e+02 
7.942840e-01 1.798563e+02 
8.116170e-01 1.754924e+02 
8.288310e-01 1.713792e+02 
8.462240e-01 1.674240e+02 
8.631980e-01 1.637428e+02 
8.810700e-01 1.600447e+02 
8.989410e-01 1.565148e+02 
9.166330e-01 1.531708e+02 
9.345640e-01 1.499257e+02 
9.515980e-01 1.469632e+02 
9.688720e-01 1.440716e+02 
9.865640e-01 1.412183e+02 
1.031870e+00 1.343706e+02 
1.063490e+00 1.299334e+02 
1.097920e+00 1.253890e+02 
1.134370e+00 1.208622e+02 
1.167730e+00 1.169560e+02 
1.203830e+00 1.129457e+02 
1.240470e+00 1.091021e+02 
1.275790e+00 1.055786e+02 
1.309140e+00 1.024222e+02 
1.342970e+00 9.934984e+01 
1.378420e+00 9.628690e+01 
1.413200e+00 9.341224e+01 
1.448110e+00 9.065181e+01 
1.484090e+00 8.793524e+01 
1.518820e+00 8.542327e+01 
1.552880e+00 8.305578e+01 
1.588630e+00 8.067274e+01 
1.623230e+00 7.846110e+01 
1.657720e+00 7.634242e+01 
1.692450e+00 7.429326e+01 
1.726400e+00 7.236012e+01 
1.762200e+00 7.039760e+01 
1.797880e+00 6.851819e+01 
1.833270e+00 6.672311e+01 
1.869070e+00 6.497376e+01 
1.903200e+00 6.336704e+01 
1.937740e+00 6.179757e+01 
1.973190e+00 6.024183e+01 
2.007440e+00 5.879169e+01 
2.042160e+00 5.737132e+01 
2.077900e+00 5.595763e+01 
2.112390e+00 5.464125e+01 
2.146220e+00 5.338888e+01 
2.181600e+00 5.212197e+01 
2.216930e+00 5.089890e+01 
2.250760e+00 4.976504e+01 
2.286500e+00 4.860506e+01 
2.321770e+00 4.749717e+01 
2.355950e+00 4.645676e+01 
2.391280e+00 4.541251e+01 
2.426240e+00 4.441136e+01 
2.460670e+00 4.345589e+01 
2.495640e+00 4.251521e+01 
2.531080e+00 4.158777e+01 
2.566220e+00 4.069588e+01 
2.600830e+00 3.984376e+01 
2.635080e+00 3.902529e+01 
2.670340e+00 3.820531e+01 
2.705970e+00 3.740098e+01 
2.740040e+00 3.665386e+01 
2.774520e+00 3.591716e+01 
2.809730e+00 3.518585e+01 
2.844390e+00 3.448657e+01 
2.879960e+00 3.378838e+01 
2.914860e+00 3.312163e+01 
2.949410e+00 3.247980e+01 
2.984440e+00 3.184573e+01 
3.019760e+00 3.122351e+01 
3.054730e+00 3.062437e+01 
3.089030e+00 3.005076e+01 
3.124060e+00 2.948051e+01 
3.159560e+00 2.891754e+01 
3.194710e+00 2.837437e+01 
3.229010e+00 2.785841e+01 
3.263320e+00 2.735414e+01 
3.297930e+00 2.685847e+01 
3.332830e+00 2.637061e+01 
3.368040e+00 2.589072e+01 
3.403300e+00 2.542235e+01 
3.438450e+00 2.496660e+01 
3.473060e+00 2.452929e+01 
3.508440e+00 2.409226e+01 
3.543110e+00 2.367485e+01 
3.577470e+00 2.327050e+01 
3.613040e+00 2.286214e+01 
3.648120e+00 2.246850e+01 
3.682910e+00 2.208751e+01 
3.718050e+00 2.171155e+01 
3.753320e+00 2.134320e+01 
3.787980e+00 2.098955e+01 
3.822290e+00 2.064745e+01 
3.857020e+00 2.030878e+01 
3.891920e+00 1.997619e+01 
3.926650e+00 1.965239e+01 
3.961970e+00 1.933069e+01 
3.997360e+00 1.901563e+01 
4.031670e+00 1.871707e+01 
4.066330e+00 1.842177e+01 
4.101420e+00 1.812955e+01 
4.136200e+00 1.784596e+01 
4.170810e+00 1.757002e+01 
4.206250e+00 1.729335e+01 
4.241580e+00 1.702361e+01 
4.276300e+00 1.676418e+01 
4.310970e+00 1.651060e+01 
4.346120e+00 1.625901e+01 
4.380600e+00 1.601741e+01 
4.414730e+00 1.578324e+01 
4.450350e+00 1.554386e+01 
4.485320e+00 1.531380e+01 
4.519810e+00 1.509151e+01 
4.555430e+00 1.486665e+01 
4.590870e+00 1.464759e+01 
4.625480e+00 1.443807e+01 
4.659910e+00 1.423379e+01 
4.695230e+00 1.402844e+01 
4.729960e+00 1.383056e+01 
4.764450e+00 1.363791e+01 
4.799530e+00 1.344582e+01 
4.834910e+00 1.325590e+01 
4.869700e+00 1.307292e+01 
4.904370e+00 1.289409e+01 
4.939450e+00 1.271667e+01 
4.973940e+00 1.254567e+01 
5.008430e+00 1.237787e+01 
5.043810e+00 1.220903e+01 
5.078840e+00 1.204503e+01 
5.113500e+00 1.188577e+01 
5.148890e+00 1.172641e+01 
5.184210e+00 1.157032e+01 
5.219060e+00 1.141918e+01 
5.253660e+00 1.127199e+01 
5.288570e+00 1.112613e+01 
5.323420e+00 1.098324e+01 
5.358440e+00 1.084234e+01 
5.393590e+00 1.070342e+01 
5.428310e+00 1.056880e+01 
5.462800e+00 1.043748e+01 
5.497640e+00 1.030711e+01 
5.532670e+00 1.017848e+01 
5.567280e+00 1.005362e+01 
5.602000e+00 9.930480e+00 
5.637270e+00 9.807758e+00 
5.672410e+00 9.687619e+00 
5.707020e+00 9.571268e+00 
5.742040e+00 9.455730e+00 
5.777430e+00 9.340966e+00 
5.812210e+00 9.230044e+00 
5.846820e+00 9.121658e+00 
5.881610e+00 9.014520e+00 
5.916510e+00 8.908777e+00 
5.951600e+00 8.804380e+00 
5.986560e+00 8.702130e+00 
6.021830e+00 8.600622e+00 
6.056490e+00 8.502624e+00 
6.091160e+00 8.406274e+00 
6.125830e+00 8.311421e+00 
6.161090e+00 8.216545e+00 
6.195760e+00 8.124896e+00 
6.230420e+00 8.034672e+00 
6.265690e+00 7.944277e+00 
6.300950e+00 7.855568e+00 
6.335620e+00 7.769665e+00 
6.370880e+00 7.683618e+00 
6.405550e+00 7.600484e+00 
6.440220e+00 7.518663e+00 
6.475480e+00 7.436684e+00 
6.510150e+00 7.357342e+00 
6.544810e+00 7.279346e+00 
6.580080e+00 7.201137e+00 
6.614750e+00 7.125377e+00 
6.649410e+00 7.050995e+00 
6.684080e+00 6.977707e+00 
6.719340e+00 6.904238e+00 
6.754010e+00 6.833097e+00 
6.788680e+00 6.763120e+00 
6.823940e+00 6.692956e+00 
6.859800e+00 6.622616e+00 
6.894470e+00 6.555755e+00 
6.929140e+00 6.489883e+00 
6.963800e+00 6.424933e+00 
6.999070e+00 6.359762e+00 
7.033730e+00 6.296796e+00 
7.068400e+00 6.234663e+00 
7.103660e+00 6.172329e+00 
7.138330e+00 6.111951e+00 
7.173600e+00 6.051531e+00 
7.208260e+00 5.992949e+00 
7.243530e+00 5.934129e+00 
7.277600e+00 5.878178e+00 
7.312860e+00 5.821140e+00 
7.348120e+00 5.764857e+00 
7.382790e+00 5.710238e+00 
7.417460e+00 5.656464e+00 
7.452720e+00 5.602557e+00 
7.487390e+00 5.550234e+00 
7.522650e+00 5.497703e+00 
7.557320e+00 5.446850e+00 
7.591990e+00 5.396690e+00 
7.627250e+00 5.346322e+00 
7.662510e+00 5.296593e+00 
7.697180e+00 5.248461e+00 
7.731850e+00 5.200982e+00 
7.766510e+00 5.154102e+00 
7.801180e+00 5.107783e+00 
7.836440e+00 5.061389e+00 
7.871110e+00 5.016411e+00 
7.906380e+00 4.971214e+00 
7.941040e+00 4.927338e+00 
7.976310e+00 4.883300e+00 
8.011570e+00 4.839892e+00 
8.046240e+00 4.797722e+00 
8.080900e+00 4.756064e+00 
8.115570e+00 4.714924e+00 
8.150830e+00 4.673722e+00 
8.185500e+00 4.633688e+00 
8.220770e+00 4.593440e+00 
8.255430e+00 4.554350e+00 
8.290100e+00 4.515846e+00 
8.324770e+00 4.477802e+00 
8.359430e+00 4.440205e+00 
8.394700e+00 4.402386e+00 
8.429960e+00 4.365101e+00 
8.464630e+00 4.328945e+00 
8.499890e+00 4.292591e+00 
8.534560e+00 4.257250e+00 
8.569200e+00 4.222335e+00 
