# Parameters:
# omega_b = 0.022917, omega_m = 0.126063, n_s = 0.961811, h = 76.732283, w = -1.000000, sigma_8 = 0.827559
# z = 1.300000
#
# k[1/Mpc] # P(k):
8.694000e-04 6.756698e+03 
2.077466e-03 1.421738e+04 
3.285532e-03 1.985381e+04 
4.493598e-03 2.402572e+04 
5.701664e-03 2.696912e+04 
6.909730e-03 2.891502e+04 
8.117797e-03 3.010518e+04 
9.325863e-03 3.066319e+04 
1.053393e-02 3.070617e+04 
1.174199e-02 3.033784e+04 
1.295006e-02 2.962724e+04 
1.415813e-02 2.866497e+04 
1.536619e-02 2.752627e+04 
1.657426e-02 2.626189e+04 
1.778233e-02 2.490934e+04 
1.899039e-02 2.353229e+04 
2.019846e-02 2.218377e+04 
2.140652e-02 2.090034e+04 
2.261459e-02 1.969126e+04 
2.382266e-02 1.856948e+04 
2.503072e-02 1.754386e+04 
2.623879e-02 1.661539e+04 
2.744685e-02 1.578415e+04 
2.865492e-02 1.504611e+04 
2.986299e-02 1.439416e+04 
3.100100e-02 1.385531e+04 
3.220400e-02 1.335625e+04 
3.288100e-02 1.310613e+04 
3.424300e-02 1.265828e+04 
3.555100e-02 1.228613e+04 
3.686000e-02 1.196103e+04 
3.795000e-02 1.171770e+04 
3.929100e-02 1.144482e+04 
4.039800e-02 1.123255e+04 
4.164000e-02 1.100205e+04 
4.294400e-02 1.075674e+04 
4.415000e-02 1.052734e+04 
4.542900e-02 1.026856e+04 
4.660900e-02 1.002175e+04 
4.782300e-02 9.745407e+03 
4.892900e-02 9.484460e+03 
5.031200e-02 9.142254e+03 
5.155900e-02 8.819594e+03 
5.238100e-02 8.602631e+03 
5.378200e-02 8.228948e+03 
5.513400e-02 7.866416e+03 
5.627600e-02 7.563125e+03 
5.735300e-02 7.283124e+03 
5.870100e-02 6.944334e+03 
5.988700e-02 6.660530e+03 
6.113500e-02 6.378421e+03 
6.225900e-02 6.141500e+03 
6.340100e-02 5.919115e+03 
6.480200e-02 5.670783e+03 
6.601100e-02 5.481110e+03 
6.725500e-02 5.308122e+03 
6.829100e-02 5.182167e+03 
6.958600e-02 5.042033e+03 
7.071100e-02 4.936726e+03 
7.192300e-02 4.837288e+03 
7.307400e-02 4.754484e+03 
7.412300e-02 4.687282e+03 
7.550400e-02 4.609482e+03 
7.663100e-02 4.551864e+03 
7.791200e-02 4.491809e+03 
7.912700e-02 4.437040e+03 
8.027600e-02 4.385508e+03 
8.138400e-02 4.335088e+03 
8.272200e-02 4.271732e+03 
8.406100e-02 4.204437e+03 
8.534100e-02 4.133891e+03 
8.653800e-02 4.062152e+03 
8.759800e-02 3.995352e+03 
8.900300e-02 3.901468e+03 
9.009000e-02 3.824383e+03 
9.113300e-02 3.746776e+03 
9.239600e-02 3.651070e+03 
9.358000e-02 3.559075e+03 
9.496100e-02 3.449628e+03 
9.608400e-02 3.361315e+03 
9.727500e-02 3.269028e+03 
9.852600e-02 3.173507e+03 
9.973800e-02 3.084535e+03 
1.009000e-01 3.002400e+03 
1.020900e-01 2.923786e+03 
1.034000e-01 2.842336e+03 
1.046000e-01 2.772531e+03 
1.057200e-01 2.714337e+03 
1.069100e-01 2.656282e+03 
1.082500e-01 2.598874e+03 
1.093900e-01 2.555392e+03 
1.105400e-01 2.514951e+03 
1.116900e-01 2.480766e+03 
1.129600e-01 2.445674e+03 
1.142000e-01 2.416317e+03 
1.153300e-01 2.391353e+03 
1.166400e-01 2.364891e+03 
1.177800e-01 2.342967e+03 
1.190000e-01 2.320328e+03 
1.201200e-01 2.298890e+03 
1.213400e-01 2.275891e+03 
1.227100e-01 2.247222e+03 
1.238900e-01 2.222193e+03 
1.250700e-01 2.194553e+03 
1.263200e-01 2.164582e+03 
1.275500e-01 2.132727e+03 
1.287500e-01 2.100858e+03 
1.299900e-01 2.066302e+03 
1.311300e-01 2.034119e+03 
1.323500e-01 1.998742e+03 
1.335900e-01 1.962954e+03 
1.347100e-01 1.930450e+03 
1.359800e-01 1.894264e+03 
1.372100e-01 1.859664e+03 
1.384300e-01 1.826283e+03 
1.395700e-01 1.796050e+03 
1.407700e-01 1.765054e+03 
1.420300e-01 1.734281e+03 
1.432800e-01 1.704481e+03 
1.444500e-01 1.678641e+03 
1.456300e-01 1.653142e+03 
1.468900e-01 1.627774e+03 
1.480500e-01 1.605292e+03 
1.491700e-01 1.584660e+03 
1.503800e-01 1.563635e+03 
1.516400e-01 1.542439e+03 
1.528200e-01 1.524052e+03 
1.540200e-01 1.505716e+03 
1.551900e-01 1.488941e+03 
1.564300e-01 1.471689e+03 
1.576600e-01 1.455152e+03 
1.588700e-01 1.439489e+03 
1.600900e-01 1.423996e+03 
1.612700e-01 1.409379e+03 
1.625400e-01 1.393939e+03 
1.637600e-01 1.379187e+03 
1.649500e-01 1.364942e+03 
1.662200e-01 1.349924e+03 
1.674000e-01 1.335694e+03 
1.685000e-01 1.322654e+03 
1.697500e-01 1.307692e+03 
1.710300e-01 1.292258e+03 
1.722200e-01 1.278169e+03 
1.734400e-01 1.263205e+03 
1.746400e-01 1.248716e+03 
1.758700e-01 1.233928e+03 
1.770900e-01 1.219117e+03 
1.782700e-01 1.205042e+03 
1.794600e-01 1.190879e+03 
1.807000e-01 1.176238e+03 
1.819100e-01 1.162203e+03 
1.830100e-01 1.149597e+03 
1.842200e-01 1.135948e+03 
1.855000e-01 1.121774e+03 
1.867000e-01 1.108897e+03 
1.879200e-01 1.096027e+03 
1.890900e-01 1.083944e+03 
1.902800e-01 1.072136e+03 
1.915200e-01 1.060035e+03 
1.926900e-01 1.048902e+03 
1.939000e-01 1.037892e+03 
1.951700e-01 1.026525e+03 
1.963100e-01 1.016582e+03 
1.975100e-01 1.006543e+03 
1.987800e-01 9.960852e+02 
2.000100e-01 9.862053e+02 
2.012500e-01 9.766021e+02 
2.023400e-01 9.682834e+02 
2.036100e-01 9.587646e+02 
2.048900e-01 9.494441e+02 
2.060400e-01 9.411945e+02 
2.072200e-01 9.328521e+02 
2.084200e-01 9.245224e+02 
2.096900e-01 9.158373e+02 
2.109200e-01 9.075512e+02 
2.121100e-01 8.995832e+02 
2.132700e-01 8.919205e+02 
2.145200e-01 8.837802e+02 
2.157200e-01 8.760060e+02 
2.168800e-01 8.685612e+02 
2.180700e-01 8.610281e+02 
2.193400e-01 8.530583e+02 
2.206000e-01 8.451842e+02 
2.217500e-01 8.380968e+02 
2.229500e-01 8.308003e+02 
2.241400e-01 8.235680e+02 
2.253500e-01 8.163117e+02 
2.264900e-01 8.095656e+02 
2.277100e-01 8.024138e+02 
2.289900e-01 7.949841e+02 
2.301500e-01 7.883422e+02 
2.313600e-01 7.815048e+02 
2.325600e-01 7.748007e+02 
2.337700e-01 7.681301e+02 
2.350000e-01 7.614395e+02 
2.362000e-01 7.550092e+02 
2.374100e-01 7.486228e+02 
2.386500e-01 7.421642e+02 
2.399100e-01 7.356889e+02 
2.410400e-01 7.299985e+02 
2.422500e-01 7.239860e+02 
2.435000e-01 7.178549e+02 
2.447300e-01 7.119131e+02 
2.458700e-01 7.065260e+02 
2.470600e-01 7.009702e+02 
2.483300e-01 6.951158e+02 
2.495600e-01 6.895449e+02 
2.507600e-01 6.842134e+02 
2.519600e-01 6.789464e+02 
2.532200e-01 6.734844e+02 
2.543700e-01 6.685927e+02 
2.555500e-01 6.636542e+02 
2.568000e-01 6.584855e+02 
2.580100e-01 6.535427e+02 
2.592400e-01 6.486100e+02 
2.604100e-01 6.439866e+02 
2.616100e-01 6.392991e+02 
2.628400e-01 6.345506e+02 
2.640600e-01 6.299170e+02 
2.652200e-01 6.255695e+02 
2.664300e-01 6.210857e+02 
2.676500e-01 6.166166e+02 
2.688400e-01 6.123162e+02 
2.700700e-01 6.079275e+02 
2.712400e-01 6.037994e+02 
2.724800e-01 5.994733e+02 
2.736700e-01 5.953732e+02 
2.748800e-01 5.912553e+02 
2.761000e-01 5.871495e+02 
2.773200e-01 5.830893e+02 
2.785400e-01 5.790743e+02 
2.797000e-01 5.752985e+02 
2.808900e-01 5.714660e+02 
2.821400e-01 5.674842e+02 
2.833900e-01 5.635466e+02 
2.845500e-01 5.599282e+02 
2.857800e-01 5.561320e+02 
2.870300e-01 5.523162e+02 
2.882100e-01 5.487524e+02 
2.893900e-01 5.452251e+02 
2.906300e-01 5.415575e+02 
2.918900e-01 5.378709e+02 
2.930500e-01 5.345124e+02 
2.942500e-01 5.310731e+02 
2.954200e-01 5.277534e+02 
2.966500e-01 5.242990e+02 
2.978900e-01 5.208531e+02 
2.990400e-01 5.176895e+02 
3.002700e-01 5.143406e+02 
3.015100e-01 5.109998e+02 
3.026800e-01 5.078793e+02 
3.038500e-01 5.047892e+02 
3.050300e-01 5.017030e+02 
3.062600e-01 4.985219e+02 
3.075000e-01 4.953474e+02 
3.087000e-01 4.923059e+02 
3.099100e-01 4.892693e+02 
3.111200e-01 4.862656e+02 
3.123100e-01 4.833456e+02 
3.135300e-01 4.803811e+02 
3.147300e-01 4.774935e+02 
3.159900e-01 4.744913e+02 
3.171800e-01 4.716890e+02 
3.183700e-01 4.689168e+02 
3.196300e-01 4.660099e+02 
3.208400e-01 4.632455e+02 
3.220300e-01 4.605524e+02 
3.232000e-01 4.579363e+02 
3.244300e-01 4.552146e+02 
3.256700e-01 4.524970e+02 
3.269200e-01 4.497838e+02 
3.280800e-01 4.472893e+02 
3.292500e-01 4.448054e+02 
3.304800e-01 4.422209e+02 
3.317100e-01 4.396606e+02 
3.328900e-01 4.372268e+02 
3.340700e-01 4.348147e+02 
3.353600e-01 4.322118e+02 
3.365300e-01 4.298764e+02 
3.377100e-01 4.275416e+02 
3.389200e-01 4.251688e+02 
3.401600e-01 4.227592e+02 
3.413700e-01 4.204375e+02 
3.425300e-01 4.182370e+02 
3.437700e-01 4.159054e+02 
3.449800e-01 4.136505e+02 
3.461800e-01 4.114338e+02 
3.473600e-01 4.092765e+02 
3.485800e-01 4.070744e+02 
3.498100e-01 4.048738e+02 
3.510200e-01 4.027278e+02 
3.522000e-01 4.006529e+02 
3.533900e-01 3.985780e+02 
3.546400e-01 3.964281e+02 
3.558400e-01 3.943827e+02 
3.570600e-01 3.923209e+02 
3.582700e-01 3.902934e+02 
3.595000e-01 3.882499e+02 
3.607100e-01 3.862626e+02 
3.618900e-01 3.843452e+02 
3.631200e-01 3.823632e+02 
3.643200e-01 3.804456e+02 
3.655500e-01 3.784965e+02 
3.667300e-01 3.766421e+02 
3.679500e-01 3.747512e+02 
3.691900e-01 3.728453e+02 
3.703600e-01 3.710616e+02 
3.715700e-01 3.692317e+02 
3.727700e-01 3.674317e+02 
3.739900e-01 3.656198e+02 
3.752000e-01 3.638433e+02 
3.763900e-01 3.621101e+02 
3.775800e-01 3.603905e+02 
3.788200e-01 3.586131e+02 
3.800300e-01 3.568926e+02 
3.812100e-01 3.552320e+02 
3.824200e-01 3.535453e+02 
3.836100e-01 3.518995e+02 
3.848600e-01 3.501843e+02 
3.860400e-01 3.485779e+02 
3.872400e-01 3.469568e+02 
3.884600e-01 3.453270e+02 
3.896500e-01 3.437516e+02 
3.908700e-01 3.421489e+02 
3.920600e-01 3.405976e+02 
3.933100e-01 3.389807e+02 
3.945300e-01 3.374149e+02 
3.957200e-01 3.359047e+02 
3.969300e-01 3.343822e+02 
3.981700e-01 3.328339e+02 
3.993500e-01 3.313716e+02 
4.094840e-01 3.192641e+02 
4.272360e-01 2.998996e+02 
4.454600e-01 2.821061e+02 
4.630560e-01 2.666450e+02 
4.804610e-01 2.527972e+02 
4.980690e-01 2.400658e+02 
5.159230e-01 2.283051e+02 
5.317440e-01 2.187407e+02 
5.489640e-01 2.091488e+02 
5.671990e-01 1.998266e+02 
5.838690e-01 1.919704e+02 
6.018840e-01 1.841232e+02 
6.202330e-01 1.767533e+02 
6.379250e-01 1.701685e+02 
6.545410e-01 1.644246e+02 
6.714560e-01 1.589552e+02 
6.892080e-01 1.535986e+02 
7.066010e-01 1.486979e+02 
7.240540e-01 1.440850e+02 
7.420450e-01 1.396334e+02 
7.593780e-01 1.356040e+02 
7.764720e-01 1.318549e+02 
7.942840e-01 1.281691e+02 
8.116170e-01 1.247830e+02 
8.288310e-01 1.215988e+02 
8.462240e-01 1.185470e+02 
8.631980e-01 1.157144e+02 
8.810700e-01 1.128770e+02 
8.989410e-01 1.101767e+02 
9.166330e-01 1.076291e+02 
9.345640e-01 1.051671e+02 
9.515980e-01 1.029283e+02 
9.688720e-01 1.007512e+02 
9.865640e-01 9.861392e+01 
1.031870e+00 9.351829e+01 
1.063490e+00 9.024876e+01 
1.097920e+00 8.692751e+01 
1.134370e+00 8.364576e+01 
1.167730e+00 8.083574e+01 
1.203830e+00 7.797465e+01 
1.240470e+00 7.525025e+01 
1.275790e+00 7.277359e+01 
1.309140e+00 7.056479e+01 
1.342970e+00 6.842951e+01 
1.378420e+00 6.630989e+01 
1.413200e+00 6.433232e+01 
1.448110e+00 6.244181e+01 
1.484090e+00 6.058725e+01 
1.518820e+00 5.887906e+01 
1.552880e+00 5.727620e+01 
1.588630e+00 5.566673e+01 
1.623230e+00 5.417696e+01 
1.657720e+00 5.275229e+01 
1.692450e+00 5.137796e+01 
1.726400e+00 5.008471e+01 
1.762200e+00 4.877334e+01 
1.797880e+00 4.751916e+01 
1.833270e+00 4.632339e+01 
1.869070e+00 4.515880e+01 
1.903200e+00 4.408989e+01 
1.937740e+00 4.304668e+01 
1.973190e+00 4.201357e+01 
2.007440e+00 4.105089e+01 
2.042160e+00 4.010790e+01 
2.077900e+00 3.916968e+01 
2.112390e+00 3.829601e+01 
2.146220e+00 3.746502e+01 
2.181600e+00 3.662454e+01 
2.216930e+00 3.581249e+01 
2.250760e+00 3.505956e+01 
2.286500e+00 3.428910e+01 
2.321770e+00 3.355278e+01 
2.355950e+00 3.286134e+01 
2.391280e+00 3.216634e+01 
2.426240e+00 3.149962e+01 
2.460670e+00 3.086296e+01 
2.495640e+00 3.023581e+01 
2.531080e+00 2.961712e+01 
2.566220e+00 2.902129e+01 
2.600830e+00 2.845152e+01 
2.635080e+00 2.790390e+01 
2.670340e+00 2.735451e+01 
2.705970e+00 2.681508e+01 
2.740040e+00 2.631358e+01 
2.774520e+00 2.581864e+01 
2.809730e+00 2.532646e+01 
2.844390e+00 2.485534e+01 
2.879960e+00 2.438460e+01 
2.914860e+00 2.393428e+01 
2.949410e+00 2.350030e+01 
2.984440e+00 2.307102e+01 
3.019760e+00 2.264908e+01 
3.054730e+00 2.224228e+01 
3.089030e+00 2.185231e+01 
3.124060e+00 2.146423e+01 
3.159560e+00 2.108062e+01 
3.194710e+00 2.070990e+01 
3.229010e+00 2.035739e+01 
3.263320e+00 2.001195e+01 
3.297930e+00 1.967211e+01 
3.332830e+00 1.933723e+01 
3.368040e+00 1.900734e+01 
3.403300e+00 1.868500e+01 
3.438450e+00 1.837074e+01 
3.473060e+00 1.806893e+01 
3.508440e+00 1.776652e+01 
3.543110e+00 1.747746e+01 
3.577470e+00 1.719701e+01 
3.613040e+00 1.691346e+01 
3.648120e+00 1.663957e+01 
3.682910e+00 1.637417e+01 
3.718050e+00 1.611183e+01 
3.753320e+00 1.585443e+01 
3.787980e+00 1.560686e+01 
3.822290e+00 1.536707e+01 
3.857020e+00 1.512932e+01 
3.891920e+00 1.489554e+01 
3.926650e+00 1.466753e+01 
3.961970e+00 1.444075e+01 
3.997360e+00 1.421823e+01 
4.031670e+00 1.400719e+01 
4.066330e+00 1.379803e+01 
4.101420e+00 1.359093e+01 
4.136200e+00 1.338937e+01 
4.170810e+00 1.319315e+01 
4.206250e+00 1.299605e+01 
4.241580e+00 1.280375e+01 
4.276300e+00 1.261845e+01 
4.310970e+00 1.243711e+01 
4.346120e+00 1.225695e+01 
4.380600e+00 1.208359e+01 
4.414730e+00 1.191549e+01 
4.450350e+00 1.174323e+01 
4.485320e+00 1.157761e+01 
4.519810e+00 1.141727e+01 
4.555430e+00 1.125491e+01 
4.590870e+00 1.109655e+01 
4.625480e+00 1.094478e+01 
4.659910e+00 1.079675e+01 
4.695230e+00 1.064767e+01 
4.729960e+00 1.050392e+01 
4.764450e+00 1.036380e+01 
4.799530e+00 1.022382e+01 
4.834910e+00 1.008538e+01 
4.869700e+00 9.951699e+00 
4.904370e+00 9.820965e+00 
4.939450e+00 9.691137e+00 
4.973940e+00 9.565779e+00 
5.008430e+00 9.442723e+00 
5.043810e+00 9.318693e+00 
5.078840e+00 9.198087e+00 
5.113500e+00 9.080929e+00 
5.148890e+00 8.963406e+00 
5.184210e+00 8.848253e+00 
5.219060e+00 8.736667e+00 
5.253660e+00 8.627810e+00 
5.288570e+00 8.519914e+00 
5.323420e+00 8.414068e+00 
5.358440e+00 8.309534e+00 
5.393590e+00 8.206447e+00 
5.428310e+00 8.106392e+00 
5.462800e+00 8.008699e+00 
5.497640e+00 7.911690e+00 
5.532670e+00 7.815831e+00 
5.567280e+00 7.722724e+00 
5.602000e+00 7.630880e+00 
5.637270e+00 7.539162e+00 
5.672410e+00 7.449318e+00 
5.707020e+00 7.362289e+00 
5.742040e+00 7.275747e+00 
5.777430e+00 7.189747e+00 
5.812210e+00 7.106609e+00 
5.846820e+00 7.025219e+00 
5.881610e+00 6.944716e+00 
5.916510e+00 6.865247e+00 
5.951600e+00 6.786673e+00 
5.986560e+00 6.709657e+00 
6.021830e+00 6.633187e+00 
6.056490e+00 6.559290e+00 
6.091160e+00 6.486575e+00 
6.125830e+00 6.414978e+00 
6.161090e+00 6.343315e+00 
6.195760e+00 6.273995e+00 
6.230420e+00 6.205743e+00 
6.265690e+00 6.137349e+00 
6.300950e+00 6.070128e+00 
6.335620e+00 6.005024e+00 
6.370880e+00 5.939802e+00 
6.405550e+00 5.876707e+00 
6.440220e+00 5.814570e+00 
6.475480e+00 5.752306e+00 
6.510150e+00 5.692017e+00 
6.544810e+00 5.632697e+00 
6.580080e+00 5.573208e+00 
6.614750e+00 5.515575e+00 
6.649410e+00 5.458903e+00 
6.684080e+00 5.403041e+00 
6.719340e+00 5.347036e+00 
6.754010e+00 5.292791e+00 
6.788680e+00 5.239401e+00 
6.823940e+00 5.185864e+00 
6.859800e+00 5.132188e+00 
6.894470e+00 5.081109e+00 
6.929140e+00 5.030763e+00 
6.963800e+00 4.981116e+00 
6.999070e+00 4.931295e+00 
7.033730e+00 4.883122e+00 
7.068400e+00 4.835582e+00 
7.103660e+00 4.787885e+00 
7.138330e+00 4.741662e+00 
7.173600e+00 4.695362e+00 
7.208260e+00 4.650469e+00 
7.243530e+00 4.605389e+00 
7.277600e+00 4.562479e+00 
7.312860e+00 4.518708e+00 
7.348120e+00 4.475513e+00 
7.382790e+00 4.433593e+00 
7.417460e+00 4.392314e+00 
7.452720e+00 4.350928e+00 
7.487390e+00 4.310756e+00 
7.522650e+00 4.270422e+00 
7.557320e+00 4.231355e+00 
7.591990e+00 4.192812e+00 
7.627250e+00 4.154106e+00 
7.662510e+00 4.115889e+00 
7.697180e+00 4.078880e+00 
7.731850e+00 4.042366e+00 
7.766510e+00 4.006310e+00 
7.801180e+00 3.970684e+00 
7.836440e+00 3.934975e+00 
7.871110e+00 3.900342e+00 
7.906380e+00 3.865537e+00 
7.941040e+00 3.831748e+00 
7.976310e+00 3.797830e+00 
8.011570e+00 3.764395e+00 
8.046240e+00 3.731912e+00 
8.080900e+00 3.699821e+00 
8.115570e+00 3.668126e+00 
8.150830e+00 3.636376e+00 
8.185500e+00 3.605524e+00 
8.220770e+00 3.574505e+00 
8.255430e+00 3.544378e+00 
8.290100e+00 3.514701e+00 
8.324770e+00 3.485377e+00 
8.359430e+00 3.456396e+00 
8.394700e+00 3.427243e+00 
8.429960e+00 3.398496e+00 
8.464630e+00 3.370614e+00 
8.499890e+00 3.342579e+00 
8.534560e+00 3.315324e+00 
8.569200e+00 3.288396e+00 
