# Parameters:
# omega_b = 0.022996, omega_m = 0.138740, n_s = 1.037402, h = 79.803150, w = -1.000000, sigma_8 = 0.871654
# z = 1.300000
#
# k[1/Mpc] # P(k):
8.694000e-04 3.617068e+03 
2.077466e-03 8.206703e+03 
3.285532e-03 1.198111e+04 
4.493598e-03 1.500202e+04 
5.701664e-03 1.732320e+04 
6.909730e-03 1.903587e+04 
8.117797e-03 2.026117e+04 
9.325863e-03 2.105984e+04 
1.053393e-02 2.149451e+04 
1.174199e-02 2.162402e+04 
1.295006e-02 2.148817e+04 
1.415813e-02 2.114369e+04 
1.536619e-02 2.063838e+04 
1.657426e-02 2.000318e+04 
1.778233e-02 1.925216e+04 
1.899039e-02 1.842279e+04 
2.019846e-02 1.757632e+04 
2.140652e-02 1.675700e+04 
2.261459e-02 1.596822e+04 
2.382266e-02 1.521820e+04 
2.503072e-02 1.451679e+04 
2.623879e-02 1.386842e+04 
2.744685e-02 1.327541e+04 
2.865492e-02 1.273946e+04 
2.986299e-02 1.225835e+04 
3.100100e-02 1.185449e+04 
3.220400e-02 1.147569e+04 
3.288100e-02 1.128400e+04 
3.424300e-02 1.093847e+04 
3.555100e-02 1.064983e+04 
3.686000e-02 1.039751e+04 
3.795000e-02 1.020935e+04 
3.929100e-02 1.000050e+04 
4.039800e-02 9.840154e+03 
4.164000e-02 9.667970e+03 
4.294400e-02 9.487490e+03 
4.415000e-02 9.319900e+03 
4.542900e-02 9.131522e+03 
4.660900e-02 8.951532e+03 
4.782300e-02 8.748504e+03 
4.892900e-02 8.555121e+03 
5.031200e-02 8.298408e+03 
5.155900e-02 8.052529e+03 
5.238100e-02 7.885049e+03 
5.378200e-02 7.592380e+03 
5.513400e-02 7.302144e+03 
5.627600e-02 7.053839e+03 
5.735300e-02 6.819507e+03 
5.870100e-02 6.528323e+03 
5.988700e-02 6.277512e+03 
6.113500e-02 6.021739e+03 
6.225900e-02 5.802061e+03 
6.340100e-02 5.592579e+03 
6.480200e-02 5.356416e+03 
6.601100e-02 5.175015e+03 
6.725500e-02 5.009748e+03 
6.829100e-02 4.889834e+03 
6.958600e-02 4.757122e+03 
7.071100e-02 4.657997e+03 
7.192300e-02 4.564948e+03 
7.307400e-02 4.488001e+03 
7.412300e-02 4.426031e+03 
7.550400e-02 4.355178e+03 
7.663100e-02 4.303404e+03 
7.791200e-02 4.250688e+03 
7.912700e-02 4.203841e+03 
8.027600e-02 4.160669e+03 
8.138400e-02 4.119118e+03 
8.272200e-02 4.067676e+03 
8.406100e-02 4.013558e+03 
8.534100e-02 3.957042e+03 
8.653800e-02 3.899368e+03 
8.759800e-02 3.845383e+03 
8.900300e-02 3.768902e+03 
9.009000e-02 3.705423e+03 
9.113300e-02 3.640732e+03 
9.239600e-02 3.560176e+03 
9.358000e-02 3.481733e+03 
9.496100e-02 3.386827e+03 
9.608400e-02 3.309258e+03 
9.727500e-02 3.227388e+03 
9.852600e-02 3.140809e+03 
9.973800e-02 3.059264e+03 
1.009000e-01 2.983241e+03 
1.020900e-01 2.908818e+03 
1.034000e-01 2.830921e+03 
1.046000e-01 2.763350e+03 
1.057200e-01 2.705793e+03 
1.069100e-01 2.647938e+03 
1.082500e-01 2.589547e+03 
1.093900e-01 2.544693e+03 
1.105400e-01 2.502582e+03 
1.116900e-01 2.466329e+03 
1.129600e-01 2.428952e+03 
1.142000e-01 2.397451e+03 
1.153300e-01 2.370810e+03 
1.166400e-01 2.342800e+03 
1.177800e-01 2.320267e+03 
1.190000e-01 2.297319e+03 
1.201200e-01 2.276796e+03 
1.213400e-01 2.254989e+03 
1.227100e-01 2.229539e+03 
1.238900e-01 2.207602e+03 
1.250700e-01 2.184198e+03 
1.263200e-01 2.158995e+03 
1.275500e-01 2.132568e+03 
1.287500e-01 2.106112e+03 
1.299900e-01 2.077397e+03 
1.311300e-01 2.050417e+03 
1.323500e-01 2.020421e+03 
1.335900e-01 1.989655e+03 
1.347100e-01 1.961187e+03 
1.359800e-01 1.929058e+03 
1.372100e-01 1.897517e+03 
1.384300e-01 1.866699e+03 
1.395700e-01 1.837919e+03 
1.407700e-01 1.808283e+03 
1.420300e-01 1.777728e+03 
1.432800e-01 1.748131e+03 
1.444500e-01 1.721543e+03 
1.456300e-01 1.695306e+03 
1.468900e-01 1.668770e+03 
1.480500e-01 1.645122e+03 
1.491700e-01 1.623352e+03 
1.503800e-01 1.601076e+03 
1.516400e-01 1.578662e+03 
1.528200e-01 1.559391e+03 
1.540200e-01 1.540175e+03 
1.551900e-01 1.522982e+03 
1.564300e-01 1.505395e+03 
1.576600e-01 1.488809e+03 
1.588700e-01 1.473427e+03 
1.600900e-01 1.458242e+03 
1.612700e-01 1.444456e+03 
1.625400e-01 1.429892e+03 
1.637600e-01 1.416207e+03 
1.649500e-01 1.403123e+03 
1.662200e-01 1.389349e+03 
1.674000e-01 1.376422e+03 
1.685000e-01 1.364571e+03 
1.697500e-01 1.350923e+03 
1.710300e-01 1.336792e+03 
1.722200e-01 1.323888e+03 
1.734400e-01 1.309944e+03 
1.746400e-01 1.296426e+03 
1.758700e-01 1.282523e+03 
1.770900e-01 1.268388e+03 
1.782700e-01 1.254949e+03 
1.794600e-01 1.241247e+03 
1.807000e-01 1.226962e+03 
1.819100e-01 1.213264e+03 
1.830100e-01 1.200761e+03 
1.842200e-01 1.187188e+03 
1.855000e-01 1.173080e+03 
1.867000e-01 1.160099e+03 
1.879200e-01 1.147121e+03 
1.890900e-01 1.134920e+03 
1.902800e-01 1.122918e+03 
1.915200e-01 1.110616e+03 
1.926900e-01 1.099289e+03 
1.939000e-01 1.088065e+03 
1.951700e-01 1.076476e+03 
1.963100e-01 1.066343e+03 
1.975100e-01 1.056124e+03 
1.987800e-01 1.045480e+03 
2.000100e-01 1.035437e+03 
2.012500e-01 1.025713e+03 
2.023400e-01 1.017289e+03 
2.036100e-01 1.007661e+03 
2.048900e-01 9.982845e+02 
2.060400e-01 9.899844e+02 
2.072200e-01 9.815942e+02 
2.084200e-01 9.732689e+02 
2.096900e-01 9.645872e+02 
2.109200e-01 9.563029e+02 
2.121100e-01 9.483759e+02 
2.132700e-01 9.407534e+02 
2.145200e-01 9.326544e+02 
2.157200e-01 9.249386e+02 
2.168800e-01 9.175577e+02 
2.180700e-01 9.100878e+02 
2.193400e-01 9.021894e+02 
2.206000e-01 8.943952e+02 
2.217500e-01 8.873782e+02 
2.229500e-01 8.801526e+02 
2.241400e-01 8.730012e+02 
2.253500e-01 8.658246e+02 
2.264900e-01 8.591512e+02 
2.277100e-01 8.520802e+02 
2.289900e-01 8.447384e+02 
2.301500e-01 8.381736e+02 
2.313600e-01 8.314138e+02 
2.325600e-01 8.247957e+02 
2.337700e-01 8.182089e+02 
2.350000e-01 8.116006e+02 
2.362000e-01 8.052533e+02 
2.374100e-01 7.989543e+02 
2.386500e-01 7.925823e+02 
2.399100e-01 7.861922e+02 
2.410400e-01 7.805800e+02 
2.422500e-01 7.746490e+02 
2.435000e-01 7.685996e+02 
2.447300e-01 7.627352e+02 
2.458700e-01 7.574167e+02 
2.470600e-01 7.519303e+02 
2.483300e-01 7.461476e+02 
2.495600e-01 7.406381e+02 
2.507600e-01 7.353570e+02 
2.519600e-01 7.301386e+02 
2.532200e-01 7.247256e+02 
2.543700e-01 7.198649e+02 
2.555500e-01 7.149485e+02 
2.568000e-01 7.098018e+02 
2.580100e-01 7.048790e+02 
2.592400e-01 6.999463e+02 
2.604100e-01 6.953137e+02 
2.616100e-01 6.906159e+02 
2.628400e-01 6.858561e+02 
2.640600e-01 6.811907e+02 
2.652200e-01 6.768047e+02 
2.664300e-01 6.722804e+02 
2.676500e-01 6.677702e+02 
2.688400e-01 6.634146e+02 
2.700700e-01 6.589593e+02 
2.712400e-01 6.547681e+02 
2.724800e-01 6.503750e+02 
2.736700e-01 6.462013e+02 
2.748800e-01 6.419989e+02 
2.761000e-01 6.378083e+02 
2.773200e-01 6.336635e+02 
2.785400e-01 6.295602e+02 
2.797000e-01 6.256919e+02 
2.808900e-01 6.217650e+02 
2.821400e-01 6.176845e+02 
2.833900e-01 6.136484e+02 
2.845500e-01 6.099322e+02 
2.857800e-01 6.060328e+02 
2.870300e-01 6.021126e+02 
2.882100e-01 5.984509e+02 
2.893900e-01 5.948235e+02 
2.906300e-01 5.910495e+02 
2.918900e-01 5.872557e+02 
2.930500e-01 5.837989e+02 
2.942500e-01 5.802578e+02 
2.954200e-01 5.768371e+02 
2.966500e-01 5.732772e+02 
2.978900e-01 5.697255e+02 
2.990400e-01 5.664645e+02 
3.002700e-01 5.630104e+02 
3.015100e-01 5.595635e+02 
3.026800e-01 5.563435e+02 
3.038500e-01 5.531545e+02 
3.050300e-01 5.499691e+02 
3.062600e-01 5.466838e+02 
3.075000e-01 5.434050e+02 
3.087000e-01 5.402632e+02 
3.099100e-01 5.371260e+02 
3.111200e-01 5.340218e+02 
3.123100e-01 5.310028e+02 
3.135300e-01 5.279374e+02 
3.147300e-01 5.249511e+02 
3.159900e-01 5.218460e+02 
3.171800e-01 5.189457e+02 
3.183700e-01 5.160751e+02 
3.196300e-01 5.130647e+02 
3.208400e-01 5.102014e+02 
3.220300e-01 5.074117e+02 
3.232000e-01 5.047003e+02 
3.244300e-01 5.018788e+02 
3.256700e-01 4.990612e+02 
3.269200e-01 4.962479e+02 
3.280800e-01 4.936609e+02 
3.292500e-01 4.910834e+02 
3.304800e-01 4.884010e+02 
3.317100e-01 4.857433e+02 
3.328900e-01 4.832167e+02 
3.340700e-01 4.807122e+02 
3.353600e-01 4.780076e+02 
3.365300e-01 4.755800e+02 
3.377100e-01 4.731529e+02 
3.389200e-01 4.706859e+02 
3.401600e-01 4.681803e+02 
3.413700e-01 4.657650e+02 
3.425300e-01 4.634749e+02 
3.437700e-01 4.610481e+02 
3.449800e-01 4.587008e+02 
3.461800e-01 4.563931e+02 
3.473600e-01 4.541465e+02 
3.485800e-01 4.518517e+02 
3.498100e-01 4.495582e+02 
3.510200e-01 4.473214e+02 
3.522000e-01 4.451585e+02 
3.533900e-01 4.429954e+02 
3.546400e-01 4.407524e+02 
3.558400e-01 4.386181e+02 
3.570600e-01 4.364665e+02 
3.582700e-01 4.343504e+02 
3.595000e-01 4.322175e+02 
3.607100e-01 4.301421e+02 
3.618900e-01 4.281388e+02 
3.631200e-01 4.260678e+02 
3.643200e-01 4.240640e+02 
3.655500e-01 4.220270e+02 
3.667300e-01 4.200888e+02 
3.679500e-01 4.181106e+02 
3.691900e-01 4.161167e+02 
3.703600e-01 4.142504e+02 
3.715700e-01 4.123356e+02 
3.727700e-01 4.104519e+02 
3.739900e-01 4.085551e+02 
3.752000e-01 4.066947e+02 
3.763900e-01 4.048793e+02 
3.775800e-01 4.030782e+02 
3.788200e-01 4.012162e+02 
3.800300e-01 3.994138e+02 
3.812100e-01 3.976730e+02 
3.824200e-01 3.959040e+02 
3.836100e-01 3.941777e+02 
3.848600e-01 3.923786e+02 
3.860400e-01 3.906934e+02 
3.872400e-01 3.889927e+02 
3.884600e-01 3.872816e+02 
3.896500e-01 3.856272e+02 
3.908700e-01 3.839440e+02 
3.920600e-01 3.823146e+02 
3.933100e-01 3.806162e+02 
3.945300e-01 3.789714e+02 
3.957200e-01 3.773837e+02 
3.969300e-01 3.757827e+02 
3.981700e-01 3.741545e+02 
3.993500e-01 3.726166e+02 
4.094840e-01 3.598694e+02 
4.272360e-01 3.394223e+02 
4.454600e-01 3.205646e+02 
4.630560e-01 3.041164e+02 
4.804610e-01 2.893280e+02 
4.980690e-01 2.756806e+02 
5.159230e-01 2.630254e+02 
5.317440e-01 2.526994e+02 
5.489640e-01 2.423090e+02 
5.671990e-01 2.321766e+02 
5.838690e-01 2.236138e+02 
6.018840e-01 2.150378e+02 
6.202330e-01 2.069611e+02 
6.379250e-01 1.997304e+02 
6.545410e-01 1.934093e+02 
6.714560e-01 1.873808e+02 
6.892080e-01 1.814677e+02 
7.066010e-01 1.760501e+02 
7.240540e-01 1.709434e+02 
7.420450e-01 1.660099e+02 
7.593780e-01 1.615393e+02 
7.764720e-01 1.573753e+02 
7.942840e-01 1.532775e+02 
8.116170e-01 1.495095e+02 
8.288310e-01 1.459622e+02 
8.462240e-01 1.425596e+02 
8.631980e-01 1.393978e+02 
8.810700e-01 1.362276e+02 
8.989410e-01 1.332070e+02 
9.166330e-01 1.303544e+02 
9.345640e-01 1.275943e+02 
9.515980e-01 1.250812e+02 
9.688720e-01 1.226342e+02 
9.865640e-01 1.202288e+02 
1.031870e+00 1.144792e+02 
1.063490e+00 1.107770e+02 
1.097920e+00 1.070063e+02 
1.134370e+00 1.032672e+02 
1.167730e+00 1.000555e+02 
1.203830e+00 9.677215e+01 
1.240470e+00 9.363564e+01 
1.275790e+00 9.077257e+01 
1.309140e+00 8.821224e+01 
1.342970e+00 8.572571e+01 
1.378420e+00 8.325075e+01 
1.413200e+00 8.093304e+01 
1.448110e+00 7.870949e+01 
1.484090e+00 7.652175e+01 
1.518820e+00 7.449952e+01 
1.552880e+00 7.259539e+01 
1.588630e+00 7.067762e+01 
1.623230e+00 6.889730e+01 
1.657720e+00 6.719022e+01 
1.692450e+00 6.553864e+01 
1.726400e+00 6.397951e+01 
1.762200e+00 6.239422e+01 
1.797880e+00 6.087414e+01 
1.833270e+00 5.942138e+01 
1.869070e+00 5.800245e+01 
1.903200e+00 5.669711e+01 
1.937740e+00 5.542034e+01 
1.973190e+00 5.415297e+01 
2.007440e+00 5.296945e+01 
2.042160e+00 5.180750e+01 
2.077900e+00 5.064903e+01 
2.112390e+00 4.956824e+01 
2.146220e+00 4.853798e+01 
2.181600e+00 4.749399e+01 
2.216930e+00 4.648335e+01 
2.250760e+00 4.554473e+01 
2.286500e+00 4.458267e+01 
2.321770e+00 4.366164e+01 
2.355950e+00 4.279541e+01 
2.391280e+00 4.192289e+01 
2.426240e+00 4.108469e+01 
2.460670e+00 4.028329e+01 
2.495640e+00 3.949285e+01 
2.531080e+00 3.871152e+01 
2.566220e+00 3.795808e+01 
2.600830e+00 3.723673e+01 
2.635080e+00 3.654260e+01 
2.670340e+00 3.584503e+01 
2.705970e+00 3.515938e+01 
2.740040e+00 3.452131e+01 
2.774520e+00 3.389073e+01 
2.809730e+00 3.326287e+01 
2.844390e+00 3.266133e+01 
2.879960e+00 3.205964e+01 
2.914860e+00 3.148334e+01 
2.949410e+00 3.092753e+01 
2.984440e+00 3.037706e+01 
3.019760e+00 2.983546e+01 
3.054730e+00 2.931295e+01 
3.089030e+00 2.881140e+01 
3.124060e+00 2.831198e+01 
3.159560e+00 2.781790e+01 
3.194710e+00 2.733992e+01 
3.229010e+00 2.688519e+01 
3.263320e+00 2.643912e+01 
3.297930e+00 2.600004e+01 
3.332830e+00 2.556692e+01 
3.368040e+00 2.514003e+01 
3.403300e+00 2.472269e+01 
3.438450e+00 2.431539e+01 
3.473060e+00 2.392409e+01 
3.508440e+00 2.353164e+01 
3.543110e+00 2.315642e+01 
3.577470e+00 2.279203e+01 
3.613040e+00 2.242350e+01 
3.648120e+00 2.206725e+01 
3.682910e+00 2.172191e+01 
3.718050e+00 2.138033e+01 
3.753320e+00 2.104504e+01 
3.787980e+00 2.072236e+01 
3.822290e+00 2.040971e+01 
3.857020e+00 2.009956e+01 
3.891920e+00 1.979447e+01 
3.926650e+00 1.949673e+01 
3.961970e+00 1.920053e+01 
3.997360e+00 1.890974e+01 
4.031670e+00 1.863389e+01 
4.066330e+00 1.836029e+01 
4.101420e+00 1.808935e+01 
4.136200e+00 1.782554e+01 
4.170810e+00 1.756869e+01 
4.206250e+00 1.731054e+01 
4.241580e+00 1.705863e+01 
4.276300e+00 1.681578e+01 
4.310970e+00 1.657805e+01 
4.346120e+00 1.634180e+01 
4.380600e+00 1.611437e+01 
4.414730e+00 1.589380e+01 
4.450350e+00 1.566769e+01 
4.485320e+00 1.545028e+01 
4.519810e+00 1.523973e+01 
4.555430e+00 1.502646e+01 
4.590870e+00 1.481840e+01 
4.625480e+00 1.461891e+01 
4.659910e+00 1.442431e+01 
4.695230e+00 1.422828e+01 
4.729960e+00 1.403924e+01 
4.764450e+00 1.385492e+01 
4.799530e+00 1.367072e+01 
4.834910e+00 1.348853e+01 
4.869700e+00 1.331255e+01 
4.904370e+00 1.314043e+01 
4.939450e+00 1.296947e+01 
4.973940e+00 1.280435e+01 
5.008430e+00 1.264224e+01 
5.043810e+00 1.247880e+01 
5.078840e+00 1.231984e+01 
5.113500e+00 1.216542e+01 
5.148890e+00 1.201045e+01 
5.184210e+00 1.185859e+01 
5.219060e+00 1.171142e+01 
5.253660e+00 1.156780e+01 
5.288570e+00 1.142543e+01 
5.323420e+00 1.128574e+01 
5.358440e+00 1.114775e+01 
5.393590e+00 1.101165e+01 
5.428310e+00 1.087952e+01 
5.462800e+00 1.075050e+01 
5.497640e+00 1.062236e+01 
5.532670e+00 1.049571e+01 
5.567280e+00 1.037267e+01 
5.602000e+00 1.025129e+01 
5.637270e+00 1.013004e+01 
5.672410e+00 1.001124e+01 
5.707020e+00 9.896146e+00 
5.742040e+00 9.781667e+00 
5.777430e+00 9.667888e+00 
5.812210e+00 9.557885e+00 
5.846820e+00 9.450158e+00 
5.881610e+00 9.343587e+00 
5.916510e+00 9.238374e+00 
5.951600e+00 9.134319e+00 
5.986560e+00 9.032308e+00 
6.021830e+00 8.931010e+00 
6.056490e+00 8.833094e+00 
6.091160e+00 8.736722e+00 
6.125830e+00 8.641820e+00 
6.161090e+00 8.546811e+00 
6.195760e+00 8.454875e+00 
6.230420e+00 8.364347e+00 
6.265690e+00 8.273619e+00 
6.300950e+00 8.184399e+00 
6.335620e+00 8.097981e+00 
6.370880e+00 8.011398e+00 
6.405550e+00 7.927608e+00 
6.440220e+00 7.845075e+00 
6.475480e+00 7.762364e+00 
6.510150e+00 7.682259e+00 
6.544810e+00 7.603412e+00 
6.580080e+00 7.524332e+00 
6.614750e+00 7.447713e+00 
6.649410e+00 7.372327e+00 
6.684080e+00 7.298006e+00 
6.719340e+00 7.223487e+00 
6.754010e+00 7.151291e+00 
6.788680e+00 7.080202e+00 
6.823940e+00 7.008910e+00 
6.859800e+00 6.937425e+00 
6.894470e+00 6.869360e+00 
6.929140e+00 6.802253e+00 
6.963800e+00 6.736072e+00 
6.999070e+00 6.669651e+00 
7.033730e+00 6.605389e+00 
7.068400e+00 6.541965e+00 
7.103660e+00 6.478327e+00 
7.138330e+00 6.416635e+00 
7.173600e+00 6.354807e+00 
7.208260e+00 6.294851e+00 
7.243530e+00 6.234643e+00 
7.277600e+00 6.177300e+00 
7.312860e+00 6.118778e+00 
7.348120e+00 6.061021e+00 
7.382790e+00 6.004965e+00 
7.417460e+00 5.949738e+00 
7.452720e+00 5.894350e+00 
7.487390e+00 5.840583e+00 
7.522650e+00 5.786594e+00 
7.557320e+00 5.734262e+00 
7.591990e+00 5.682613e+00 
7.627250e+00 5.630743e+00 
7.662510e+00 5.579525e+00 
7.697180e+00 5.529893e+00 
7.731850e+00 5.480909e+00 
7.766510e+00 5.432537e+00 
7.801180e+00 5.384738e+00 
7.836440e+00 5.336795e+00 
7.871110e+00 5.290273e+00 
7.906380e+00 5.243518e+00 
7.941040e+00 5.198126e+00 
7.976310e+00 5.152537e+00 
8.011570e+00 5.107567e+00 
8.046240e+00 5.063875e+00 
8.080900e+00 5.020710e+00 
8.115570e+00 4.978065e+00 
8.150830e+00 4.935310e+00 
8.185500e+00 4.893762e+00 
8.220770e+00 4.851988e+00 
8.255430e+00 4.811413e+00 
8.290100e+00 4.771398e+00 
8.324770e+00 4.731853e+00 
8.359430e+00 4.692768e+00 
8.394700e+00 4.653450e+00 
8.429960e+00 4.614655e+00 
8.464630e+00 4.577002e+00 
8.499890e+00 4.539141e+00 
8.534560e+00 4.502332e+00 
8.569200e+00 4.465964e+00 
