# Parameters:
# omega_b = 0.022791, omega_m = 0.149764, n_s = 0.935039, h = 75.314961, w = -1.000000, sigma_8 = 0.712598
# z = 1.300000
#
# k[1/Mpc] # P(k):
8.694000e-04 3.181159e+03 
2.077466e-03 6.659242e+03 
3.285532e-03 9.361447e+03 
4.493598e-03 1.145135e+04 
5.701664e-03 1.301761e+04 
6.909730e-03 1.414610e+04 
8.117797e-03 1.493245e+04 
9.325863e-03 1.542556e+04 
1.053393e-02 1.567358e+04 
1.174199e-02 1.572004e+04 
1.295006e-02 1.559335e+04 
1.415813e-02 1.533167e+04 
1.536619e-02 1.496661e+04 
1.657426e-02 1.451783e+04 
1.778233e-02 1.399415e+04 
1.899039e-02 1.341861e+04 
2.019846e-02 1.282849e+04 
2.140652e-02 1.225254e+04 
2.261459e-02 1.169278e+04 
2.382266e-02 1.115501e+04 
2.503072e-02 1.064629e+04 
2.623879e-02 1.017002e+04 
2.744685e-02 9.727368e+03 
2.865492e-02 9.321182e+03 
2.986299e-02 8.950790e+03 
3.100100e-02 8.634220e+03 
3.220400e-02 8.332206e+03 
3.288100e-02 8.176924e+03 
3.424300e-02 7.893203e+03 
3.555100e-02 7.652638e+03 
3.686000e-02 7.439909e+03 
3.795000e-02 7.280483e+03 
3.929100e-02 7.104159e+03 
4.039800e-02 6.970623e+03 
4.164000e-02 6.830038e+03 
4.294400e-02 6.688388e+03 
4.415000e-02 6.560728e+03 
4.542900e-02 6.423169e+03 
4.660900e-02 6.295099e+03 
4.782300e-02 6.154973e+03 
4.892900e-02 6.023375e+03 
5.031200e-02 5.850688e+03 
5.155900e-02 5.686252e+03 
5.238100e-02 5.574258e+03 
5.378200e-02 5.378147e+03 
5.513400e-02 5.182361e+03 
5.627600e-02 5.013441e+03 
5.735300e-02 4.852657e+03 
5.870100e-02 4.650838e+03 
5.988700e-02 4.475105e+03 
6.113500e-02 4.293879e+03 
6.225900e-02 4.136233e+03 
6.340100e-02 3.983963e+03 
6.480200e-02 3.810065e+03 
6.601100e-02 3.673999e+03 
6.725500e-02 3.547839e+03 
6.829100e-02 3.454416e+03 
6.958600e-02 3.349404e+03 
7.071100e-02 3.269262e+03 
7.192300e-02 3.192639e+03 
7.307400e-02 3.128141e+03 
7.412300e-02 3.075435e+03 
7.550400e-02 3.014325e+03 
7.663100e-02 2.969413e+03 
7.791200e-02 2.923863e+03 
7.912700e-02 2.884265e+03 
8.027600e-02 2.848831e+03 
8.138400e-02 2.815826e+03 
8.272200e-02 2.776680e+03 
8.406100e-02 2.737376e+03 
8.534100e-02 2.698363e+03 
8.653800e-02 2.659959e+03 
8.759800e-02 2.624710e+03 
8.900300e-02 2.575663e+03 
9.009000e-02 2.535463e+03 
9.113300e-02 2.494674e+03 
9.239600e-02 2.443892e+03 
9.358000e-02 2.394295e+03 
9.496100e-02 2.333710e+03 
9.608400e-02 2.283697e+03 
9.727500e-02 2.230481e+03 
9.852600e-02 2.172893e+03 
9.973800e-02 2.117946e+03 
1.009000e-01 2.066143e+03 
1.020900e-01 2.013844e+03 
1.034000e-01 1.958335e+03 
1.046000e-01 1.909373e+03 
1.057200e-01 1.866256e+03 
1.069100e-01 1.822433e+03 
1.082500e-01 1.776729e+03 
1.093900e-01 1.740767e+03 
1.105400e-01 1.706490e+03 
1.116900e-01 1.675916e+03 
1.129600e-01 1.644093e+03 
1.142000e-01 1.616583e+03 
1.153300e-01 1.593268e+03 
1.166400e-01 1.568655e+03 
1.177800e-01 1.549239e+03 
1.190000e-01 1.529645e+03 
1.201200e-01 1.513237e+03 
1.213400e-01 1.495993e+03 
1.227100e-01 1.477867e+03 
1.238900e-01 1.462631e+03 
1.250700e-01 1.447607e+03 
1.263200e-01 1.431791e+03 
1.275500e-01 1.415983e+03 
1.287500e-01 1.400350e+03 
1.299900e-01 1.383667e+03 
1.311300e-01 1.367918e+03 
1.323500e-01 1.350299e+03 
1.335900e-01 1.331920e+03 
1.347100e-01 1.314525e+03 
1.359800e-01 1.294520e+03 
1.372100e-01 1.274160e+03 
1.384300e-01 1.253922e+03 
1.395700e-01 1.234218e+03 
1.407700e-01 1.213824e+03 
1.420300e-01 1.191711e+03 
1.432800e-01 1.170307e+03 
1.444500e-01 1.150160e+03 
1.456300e-01 1.130305e+03 
1.468900e-01 1.109772e+03 
1.480500e-01 1.091355e+03 
1.491700e-01 1.074297e+03 
1.503800e-01 1.056701e+03 
1.516400e-01 1.039029e+03 
1.528200e-01 1.023880e+03 
1.540200e-01 1.008793e+03 
1.551900e-01 9.955278e+02 
1.564300e-01 9.820268e+02 
1.576600e-01 9.694988e+02 
1.588700e-01 9.581287e+02 
1.600900e-01 9.469336e+02 
1.612700e-01 9.372437e+02 
1.625400e-01 9.270088e+02 
1.637600e-01 9.176547e+02 
1.649500e-01 9.088661e+02 
1.662200e-01 8.996545e+02 
1.674000e-01 8.912354e+02 
1.685000e-01 8.835173e+02 
1.697500e-01 8.746707e+02 
1.710300e-01 8.655522e+02 
1.722200e-01 8.572247e+02 
1.734400e-01 8.481563e+02 
1.746400e-01 8.393628e+02 
1.758700e-01 8.302637e+02 
1.770900e-01 8.209043e+02 
1.782700e-01 8.120072e+02 
1.794600e-01 8.028177e+02 
1.807000e-01 7.931611e+02 
1.819100e-01 7.839035e+02 
1.830100e-01 7.753027e+02 
1.842200e-01 7.659432e+02 
1.855000e-01 7.562118e+02 
1.867000e-01 7.470990e+02 
1.879200e-01 7.379937e+02 
1.890900e-01 7.294177e+02 
1.902800e-01 7.208843e+02 
1.915200e-01 7.121429e+02 
1.926900e-01 7.040815e+02 
1.939000e-01 6.960386e+02 
1.951700e-01 6.877390e+02 
1.963100e-01 6.804798e+02 
1.975100e-01 6.731441e+02 
1.987800e-01 6.655067e+02 
2.000100e-01 6.583099e+02 
2.012500e-01 6.513538e+02 
2.023400e-01 6.453304e+02 
2.036100e-01 6.384603e+02 
2.048900e-01 6.318137e+02 
2.060400e-01 6.259324e+02 
2.072200e-01 6.199947e+02 
2.084200e-01 6.141675e+02 
2.096900e-01 6.080930e+02 
2.109200e-01 6.022987e+02 
2.121100e-01 5.968266e+02 
2.132700e-01 5.915699e+02 
2.145200e-01 5.859862e+02 
2.157200e-01 5.807122e+02 
2.168800e-01 5.756886e+02 
2.180700e-01 5.706056e+02 
2.193400e-01 5.652547e+02 
2.206000e-01 5.600166e+02 
2.217500e-01 5.553019e+02 
2.229500e-01 5.504481e+02 
2.241400e-01 5.456890e+02 
2.253500e-01 5.409152e+02 
2.264900e-01 5.364771e+02 
2.277100e-01 5.317946e+02 
2.289900e-01 5.269549e+02 
2.301500e-01 5.226282e+02 
2.313600e-01 5.181742e+02 
2.325600e-01 5.138437e+02 
2.337700e-01 5.095344e+02 
2.350000e-01 5.052118e+02 
2.362000e-01 5.010705e+02 
2.374100e-01 4.969731e+02 
2.386500e-01 4.928288e+02 
2.399100e-01 4.886733e+02 
2.410400e-01 4.850356e+02 
2.422500e-01 4.811934e+02 
2.435000e-01 4.772748e+02 
2.447300e-01 4.734769e+02 
2.458700e-01 4.700340e+02 
2.470600e-01 4.664829e+02 
2.483300e-01 4.627404e+02 
2.495600e-01 4.591710e+02 
2.507600e-01 4.557443e+02 
2.519600e-01 4.523586e+02 
2.532200e-01 4.488472e+02 
2.543700e-01 4.456829e+02 
2.555500e-01 4.424749e+02 
2.568000e-01 4.391172e+02 
2.580100e-01 4.359059e+02 
2.592400e-01 4.326700e+02 
2.604100e-01 4.296233e+02 
2.616100e-01 4.265341e+02 
2.628400e-01 4.234047e+02 
2.640600e-01 4.203180e+02 
2.652200e-01 4.174089e+02 
2.664300e-01 4.144085e+02 
2.676500e-01 4.114180e+02 
2.688400e-01 4.085145e+02 
2.700700e-01 4.055353e+02 
2.712400e-01 4.027332e+02 
2.724800e-01 3.997968e+02 
2.736700e-01 3.969974e+02 
2.748800e-01 3.941689e+02 
2.761000e-01 3.913490e+02 
2.773200e-01 3.885607e+02 
2.785400e-01 3.857959e+02 
2.797000e-01 3.831798e+02 
2.808900e-01 3.805247e+02 
2.821400e-01 3.777665e+02 
2.833900e-01 3.750385e+02 
2.845500e-01 3.725162e+02 
2.857800e-01 3.698704e+02 
2.870300e-01 3.672113e+02 
2.882100e-01 3.647281e+02 
2.893900e-01 3.622632e+02 
2.906300e-01 3.596966e+02 
2.918900e-01 3.571172e+02 
2.930500e-01 3.547677e+02 
2.942500e-01 3.523601e+02 
2.954200e-01 3.500306e+02 
2.966500e-01 3.476070e+02 
2.978900e-01 3.451898e+02 
2.990400e-01 3.429709e+02 
3.002700e-01 3.406182e+02 
3.015100e-01 3.382696e+02 
3.026800e-01 3.360763e+02 
3.038500e-01 3.339046e+02 
3.050300e-01 3.317361e+02 
3.062600e-01 3.294959e+02 
3.075000e-01 3.272608e+02 
3.087000e-01 3.251198e+02 
3.099100e-01 3.229825e+02 
3.111200e-01 3.208675e+02 
3.123100e-01 3.188095e+02 
3.135300e-01 3.167205e+02 
3.147300e-01 3.146861e+02 
3.159900e-01 3.125713e+02 
3.171800e-01 3.105957e+02 
3.183700e-01 3.086404e+02 
3.196300e-01 3.065904e+02 
3.208400e-01 3.046413e+02 
3.220300e-01 3.027428e+02 
3.232000e-01 3.008980e+02 
3.244300e-01 2.989788e+02 
3.256700e-01 2.970629e+02 
3.269200e-01 2.951504e+02 
3.280800e-01 2.933923e+02 
3.292500e-01 2.916414e+02 
3.304800e-01 2.898197e+02 
3.317100e-01 2.880154e+02 
3.328900e-01 2.863006e+02 
3.340700e-01 2.846013e+02 
3.353600e-01 2.827686e+02 
3.365300e-01 2.811247e+02 
3.377100e-01 2.794815e+02 
3.389200e-01 2.778119e+02 
3.401600e-01 2.761167e+02 
3.413700e-01 2.744849e+02 
3.425300e-01 2.729394e+02 
3.437700e-01 2.713022e+02 
3.449800e-01 2.697190e+02 
3.461800e-01 2.681630e+02 
3.473600e-01 2.666497e+02 
3.485800e-01 2.651070e+02 
3.498100e-01 2.635656e+02 
3.510200e-01 2.620627e+02 
3.522000e-01 2.606099e+02 
3.533900e-01 2.591573e+02 
3.546400e-01 2.576564e+02 
3.558400e-01 2.562289e+02 
3.570600e-01 2.547901e+02 
3.582700e-01 2.533756e+02 
3.595000e-01 2.519501e+02 
3.607100e-01 2.505660e+02 
3.618900e-01 2.492325e+02 
3.631200e-01 2.478542e+02 
3.643200e-01 2.465210e+02 
3.655500e-01 2.451660e+02 
3.667300e-01 2.438770e+02 
3.679500e-01 2.425674e+02 
3.691900e-01 2.412475e+02 
3.703600e-01 2.400125e+02 
3.715700e-01 2.387457e+02 
3.727700e-01 2.374997e+02 
3.739900e-01 2.362472e+02 
3.752000e-01 2.350222e+02 
3.763900e-01 2.338271e+02 
3.775800e-01 2.326416e+02 
3.788200e-01 2.314164e+02 
3.800300e-01 2.302306e+02 
3.812100e-01 2.290886e+02 
3.824200e-01 2.279303e+02 
3.836100e-01 2.268002e+02 
3.848600e-01 2.256227e+02 
3.860400e-01 2.245200e+02 
3.872400e-01 2.234073e+02 
3.884600e-01 2.222918e+02 
3.896500e-01 2.212147e+02 
3.908700e-01 2.201190e+02 
3.920600e-01 2.190586e+02 
3.933100e-01 2.179535e+02 
3.945300e-01 2.168835e+02 
3.957200e-01 2.158541e+02 
3.969300e-01 2.148172e+02 
3.981700e-01 2.137629e+02 
3.993500e-01 2.127672e+02 
4.094840e-01 2.045415e+02 
4.272360e-01 1.914619e+02 
4.454600e-01 1.794960e+02 
4.630560e-01 1.691245e+02 
4.804610e-01 1.598442e+02 
4.980690e-01 1.513083e+02 
5.159230e-01 1.434203e+02 
5.317440e-01 1.369992e+02 
5.489640e-01 1.305586e+02 
5.671990e-01 1.242951e+02 
5.838690e-01 1.190155e+02 
6.018840e-01 1.137434e+02 
6.202330e-01 1.087979e+02 
6.379250e-01 1.043830e+02 
6.545410e-01 1.005391e+02 
6.714560e-01 9.688561e+01 
6.892080e-01 9.331361e+01 
7.066010e-01 9.005433e+01 
7.240540e-01 8.699439e+01 
7.420450e-01 8.405126e+01 
7.593780e-01 8.139732e+01 
7.764720e-01 7.893483e+01 
7.942840e-01 7.652310e+01 
8.116170e-01 7.431580e+01 
8.288310e-01 7.225022e+01 
8.462240e-01 7.027667e+01 
8.631980e-01 6.845400e+01 
8.810700e-01 6.663558e+01 
8.989410e-01 6.491403e+01 
9.166330e-01 6.329660e+01 
9.345640e-01 6.173858e+01 
9.515980e-01 6.033046e+01 
9.688720e-01 5.896784e+01 
9.865640e-01 5.763652e+01 
1.031870e+00 5.448663e+01 
1.063490e+00 5.248549e+01 
1.097920e+00 5.046868e+01 
1.134370e+00 4.849232e+01 
1.167730e+00 4.681343e+01 
1.203830e+00 4.511882e+01 
1.240470e+00 4.351541e+01 
1.275790e+00 4.206825e+01 
1.309140e+00 4.078420e+01 
1.342970e+00 3.955235e+01 
1.378420e+00 3.833453e+01 
1.413200e+00 3.720451e+01 
1.448110e+00 3.612814e+01 
1.484090e+00 3.507768e+01 
1.518820e+00 3.411350e+01 
1.552880e+00 3.321169e+01 
1.588630e+00 3.230853e+01 
1.623230e+00 3.147525e+01 
1.657720e+00 3.068117e+01 
1.692450e+00 2.991564e+01 
1.726400e+00 2.919686e+01 
1.762200e+00 2.846980e+01 
1.797880e+00 2.777558e+01 
1.833270e+00 2.711453e+01 
1.869070e+00 2.647173e+01 
1.903200e+00 2.588221e+01 
1.937740e+00 2.530705e+01 
1.973190e+00 2.473794e+01 
2.007440e+00 2.420752e+01 
2.042160e+00 2.368845e+01 
2.077900e+00 2.317250e+01 
2.112390e+00 2.269137e+01 
2.146220e+00 2.223427e+01 
2.181600e+00 2.177172e+01 
2.216930e+00 2.132482e+01 
2.250760e+00 2.091025e+01 
2.286500e+00 2.048584e+01 
2.321770e+00 2.008009e+01 
2.355950e+00 1.969846e+01 
2.391280e+00 1.931521e+01 
2.426240e+00 1.894705e+01 
2.460670e+00 1.859508e+01 
2.495640e+00 1.824809e+01 
2.531080e+00 1.790564e+01 
2.566220e+00 1.757563e+01 
2.600830e+00 1.725964e+01 
2.635080e+00 1.695546e+01 
2.670340e+00 1.664958e+01 
2.705970e+00 1.634917e+01 
2.740040e+00 1.606974e+01 
2.774520e+00 1.579364e+01 
2.809730e+00 1.551865e+01 
2.844390e+00 1.525499e+01 
2.879960e+00 1.499086e+01 
2.914860e+00 1.473807e+01 
2.949410e+00 1.449423e+01 
2.984440e+00 1.425242e+01 
3.019760e+00 1.401467e+01 
3.054730e+00 1.378533e+01 
3.089030e+00 1.356453e+01 
3.124060e+00 1.334462e+01 
3.159560e+00 1.312701e+01 
3.194710e+00 1.291622e+01 
3.229010e+00 1.271554e+01 
3.263320e+00 1.251834e+01 
3.297930e+00 1.232418e+01 
3.332830e+00 1.213263e+01 
3.368040e+00 1.194348e+01 
3.403300e+00 1.175828e+01 
3.438450e+00 1.157730e+01 
3.473060e+00 1.140332e+01 
3.508440e+00 1.122866e+01 
3.543110e+00 1.106152e+01 
3.577470e+00 1.089862e+01 
3.613040e+00 1.073385e+01 
3.648120e+00 1.057460e+01 
3.682910e+00 1.041998e+01 
3.718050e+00 1.026663e+01 
3.753320e+00 1.011598e+01 
3.787980e+00 9.970845e+00 
3.822290e+00 9.830039e+00 
3.857020e+00 9.690103e+00 
3.891920e+00 9.552296e+00 
3.926650e+00 9.417574e+00 
3.961970e+00 9.283364e+00 
3.997360e+00 9.151254e+00 
4.031670e+00 9.025857e+00 
4.066330e+00 8.901347e+00 
4.101420e+00 8.777985e+00 
4.136200e+00 8.657466e+00 
4.170810e+00 8.540078e+00 
4.206250e+00 8.421888e+00 
4.241580e+00 8.306474e+00 
4.276300e+00 8.194932e+00 
4.310970e+00 8.085568e+00 
4.346120e+00 7.976765e+00 
4.380600e+00 7.871868e+00 
4.414730e+00 7.770090e+00 
4.450350e+00 7.665408e+00 
4.485320e+00 7.564715e+00 
4.519810e+00 7.466962e+00 
4.555430e+00 7.367824e+00 
4.590870e+00 7.271024e+00 
4.625480e+00 7.178068e+00 
4.659910e+00 7.087366e+00 
4.695230e+00 6.995660e+00 
4.729960e+00 6.907147e+00 
4.764450e+00 6.820725e+00 
4.799530e+00 6.734186e+00 
4.834910e+00 6.648558e+00 
4.869700e+00 6.565652e+00 
4.904370e+00 6.484507e+00 
4.939450e+00 6.403828e+00 
4.973940e+00 6.325732e+00 
5.008430e+00 6.249040e+00 
5.043810e+00 6.171578e+00 
5.078840e+00 6.096148e+00 
5.113500e+00 6.022845e+00 
5.148890e+00 5.949028e+00 
5.184210e+00 5.876662e+00 
5.219060e+00 5.806464e+00 
5.253660e+00 5.737831e+00 
5.288570e+00 5.669779e+00 
5.323420e+00 5.602922e+00 
5.358440e+00 5.536789e+00 
5.393590e+00 5.471547e+00 
5.428310e+00 5.408062e+00 
5.462800e+00 5.345981e+00 
5.497640e+00 5.284314e+00 
5.532670e+00 5.223211e+00 
5.567280e+00 5.163797e+00 
5.602000e+00 5.105170e+00 
5.637270e+00 5.046503e+00 
5.672410e+00 4.988994e+00 
5.707020e+00 4.933271e+00 
5.742040e+00 4.877699e+00 
5.777430e+00 4.822431e+00 
5.812210e+00 4.768986e+00 
5.846820e+00 4.716568e+00 
5.881610e+00 4.664686e+00 
5.916510e+00 4.613456e+00 
5.951600e+00 4.562689e+00 
5.986560e+00 4.512872e+00 
6.021830e+00 4.463394e+00 
6.056490e+00 4.415498e+00 
6.091160e+00 4.368297e+00 
6.125830e+00 4.321809e+00 
6.161090e+00 4.275242e+00 
6.195760e+00 4.230132e+00 
6.230420e+00 4.185706e+00 
6.265690e+00 4.141173e+00 
6.300950e+00 4.097277e+00 
6.335620e+00 4.054755e+00 
6.370880e+00 4.012147e+00 
6.405550e+00 3.970873e+00 
6.440220e+00 3.930200e+00 
6.475480e+00 3.889436e+00 
6.510150e+00 3.849926e+00 
6.544810e+00 3.810974e+00 
6.580080e+00 3.771904e+00 
6.614750e+00 3.734046e+00 
6.649410e+00 3.696763e+00 
6.684080e+00 3.659998e+00 
6.719340e+00 3.623132e+00 
6.754010e+00 3.587392e+00 
6.788680e+00 3.552151e+00 
6.823940e+00 3.516806e+00 
6.859800e+00 3.481364e+00 
6.894470e+00 3.447596e+00 
6.929140e+00 3.414293e+00 
6.963800e+00 3.381448e+00 
6.999070e+00 3.348479e+00 
7.033730e+00 3.316555e+00 
7.068400e+00 3.285046e+00 
7.103660e+00 3.253429e+00 
7.138330e+00 3.222770e+00 
7.173600e+00 3.192030e+00 
7.208260e+00 3.162219e+00 
7.243530e+00 3.132281e+00 
7.277600e+00 3.103756e+00 
7.312860e+00 3.074636e+00 
7.348120e+00 3.045894e+00 
7.382790e+00 3.017998e+00 
7.417460e+00 2.990487e+00 
7.452720e+00 2.962883e+00 
7.487390e+00 2.936084e+00 
7.522650e+00 2.909174e+00 
7.557320e+00 2.883100e+00 
7.591990e+00 2.857369e+00 
7.627250e+00 2.831526e+00 
7.662510e+00 2.806007e+00 
7.697180e+00 2.781270e+00 
7.731850e+00 2.756852e+00 
7.766510e+00 2.732738e+00 
7.801180e+00 2.708909e+00 
7.836440e+00 2.685018e+00 
7.871110e+00 2.661841e+00 
7.906380e+00 2.638547e+00 
7.941040e+00 2.615931e+00 
7.976310e+00 2.593214e+00 
8.011570e+00 2.570802e+00 
8.046240e+00 2.549026e+00 
8.080900e+00 2.527511e+00 
8.115570e+00 2.506259e+00 
8.150830e+00 2.484964e+00 
8.185500e+00 2.464270e+00 
8.220770e+00 2.443461e+00 
8.255430e+00 2.423249e+00 
8.290100e+00 2.403314e+00 
8.324770e+00 2.383612e+00 
8.359430e+00 2.364139e+00 
8.394700e+00 2.344548e+00 
8.429960e+00 2.325226e+00 
8.464630e+00 2.306482e+00 
8.499890e+00 2.287633e+00 
8.534560e+00 2.269307e+00 
8.569200e+00 2.251199e+00 
