# Parameters:
# omega_b = 0.022209, omega_m = 0.120000, n_s = 1.045276, h = 67.992126, w = -1.000000, sigma_8 = 0.822835
# z = 1.300000
#
# k[1/Mpc] # P(k):
8.694000e-04 5.551547e+03 
2.077466e-03 1.247560e+04 
3.285532e-03 1.799485e+04 
4.493598e-03 2.223141e+04 
5.701664e-03 2.533819e+04 
6.909730e-03 2.748719e+04 
8.117797e-03 2.888441e+04 
9.325863e-03 2.963724e+04 
1.053393e-02 2.985601e+04 
1.174199e-02 2.964378e+04 
1.295006e-02 2.906747e+04 
1.415813e-02 2.821762e+04 
1.536619e-02 2.717316e+04 
1.657426e-02 2.599091e+04 
1.778233e-02 2.473073e+04 
1.899039e-02 2.347060e+04 
2.019846e-02 2.222624e+04 
2.140652e-02 2.101353e+04 
2.261459e-02 1.985540e+04 
2.382266e-02 1.877601e+04 
2.503072e-02 1.778780e+04 
2.623879e-02 1.689329e+04 
2.744685e-02 1.609398e+04 
2.865492e-02 1.538600e+04 
2.986299e-02 1.476266e+04 
3.100100e-02 1.424984e+04 
3.220400e-02 1.377704e+04 
3.288100e-02 1.354106e+04 
3.424300e-02 1.311976e+04 
3.555100e-02 1.277029e+04 
3.686000e-02 1.246467e+04 
3.795000e-02 1.223492e+04 
3.929100e-02 1.197455e+04 
4.039800e-02 1.176932e+04 
4.164000e-02 1.154346e+04 
4.294400e-02 1.129832e+04 
4.415000e-02 1.106645e+04 
4.542900e-02 1.080156e+04 
4.660900e-02 1.054736e+04 
4.782300e-02 1.026116e+04 
4.892900e-02 9.990479e+03 
5.031200e-02 9.635422e+03 
5.155900e-02 9.300934e+03 
5.238100e-02 9.076429e+03 
5.378200e-02 8.690831e+03 
5.513400e-02 8.319108e+03 
5.627600e-02 8.010879e+03 
5.735300e-02 7.729393e+03 
5.870100e-02 7.393952e+03 
5.988700e-02 7.117763e+03 
6.113500e-02 6.847431e+03 
6.225900e-02 6.622991e+03 
6.340100e-02 6.413031e+03 
6.480200e-02 6.177348e+03 
6.601100e-02 5.994549e+03 
6.725500e-02 5.824282e+03 
6.829100e-02 5.697190e+03 
6.958600e-02 5.552845e+03 
7.071100e-02 5.441791e+03 
7.192300e-02 5.335004e+03 
7.307400e-02 5.244675e+03 
7.412300e-02 5.170527e+03 
7.550400e-02 5.083814e+03 
7.663100e-02 5.019285e+03 
7.791200e-02 4.951994e+03 
7.912700e-02 4.890984e+03 
8.027600e-02 4.834024e+03 
8.138400e-02 4.778736e+03 
8.272200e-02 4.709905e+03 
8.406100e-02 4.637425e+03 
8.534100e-02 4.562019e+03 
8.653800e-02 4.485636e+03 
8.759800e-02 4.414613e+03 
8.900300e-02 4.314873e+03 
9.009000e-02 4.232969e+03 
9.113300e-02 4.150455e+03 
9.239600e-02 4.048625e+03 
9.358000e-02 3.950658e+03 
9.496100e-02 3.834029e+03 
9.608400e-02 3.739882e+03 
9.727500e-02 3.641459e+03 
9.852600e-02 3.539664e+03 
9.973800e-02 3.444844e+03 
1.009000e-01 3.357303e+03 
1.020900e-01 3.273601e+03 
1.034000e-01 3.186846e+03 
1.046000e-01 3.112477e+03 
1.057200e-01 3.050415e+03 
1.069100e-01 2.988430e+03 
1.082500e-01 2.926958e+03 
1.093900e-01 2.880201e+03 
1.105400e-01 2.836592e+03 
1.116900e-01 2.799357e+03 
1.129600e-01 2.760975e+03 
1.142000e-01 2.728412e+03 
1.153300e-01 2.700522e+03 
1.166400e-01 2.670632e+03 
1.177800e-01 2.645616e+03 
1.190000e-01 2.619661e+03 
1.201200e-01 2.594971e+03 
1.213400e-01 2.568462e+03 
1.227100e-01 2.535571e+03 
1.238900e-01 2.506930e+03 
1.250700e-01 2.475545e+03 
1.263200e-01 2.441646e+03 
1.275500e-01 2.405899e+03 
1.287500e-01 2.370311e+03 
1.299900e-01 2.331982e+03 
1.311300e-01 2.296452e+03 
1.323500e-01 2.257636e+03 
1.335900e-01 2.218527e+03 
1.347100e-01 2.183211e+03 
1.359800e-01 2.144002e+03 
1.372100e-01 2.106740e+03 
1.384300e-01 2.070853e+03 
1.395700e-01 2.038527e+03 
1.407700e-01 2.005385e+03 
1.420300e-01 1.972648e+03 
1.432800e-01 1.940927e+03 
1.444500e-01 1.913479e+03 
1.456300e-01 1.886378e+03 
1.468900e-01 1.859345e+03 
1.480500e-01 1.835358e+03 
1.491700e-01 1.813253e+03 
1.503800e-01 1.790611e+03 
1.516400e-01 1.767720e+03 
1.528200e-01 1.747607e+03 
1.540200e-01 1.727547e+03 
1.551900e-01 1.708915e+03 
1.564300e-01 1.689679e+03 
1.576600e-01 1.671098e+03 
1.588700e-01 1.653320e+03 
1.600900e-01 1.635726e+03 
1.612700e-01 1.618909e+03 
1.625400e-01 1.601146e+03 
1.637600e-01 1.584124e+03 
1.649500e-01 1.567659e+03 
1.662200e-01 1.550309e+03 
1.674000e-01 1.533922e+03 
1.685000e-01 1.518904e+03 
1.697500e-01 1.501757e+03 
1.710300e-01 1.484149e+03 
1.722200e-01 1.468075e+03 
1.734400e-01 1.451213e+03 
1.746400e-01 1.434893e+03 
1.758700e-01 1.418302e+03 
1.770900e-01 1.401816e+03 
1.782700e-01 1.386147e+03 
1.794600e-01 1.370475e+03 
1.807000e-01 1.354335e+03 
1.819100e-01 1.338859e+03 
1.830100e-01 1.325038e+03 
1.842200e-01 1.310084e+03 
1.855000e-01 1.294551e+03 
1.867000e-01 1.280484e+03 
1.879200e-01 1.266419e+03 
1.890900e-01 1.253211e+03 
1.902800e-01 1.240300e+03 
1.915200e-01 1.227065e+03 
1.926900e-01 1.214877e+03 
1.939000e-01 1.202797e+03 
1.951700e-01 1.190321e+03 
1.963100e-01 1.179393e+03 
1.975100e-01 1.168320e+03 
1.987800e-01 1.156784e+03 
2.000100e-01 1.145867e+03 
2.012500e-01 1.135217e+03 
2.023400e-01 1.125990e+03 
2.036100e-01 1.115420e+03 
2.048900e-01 1.105028e+03 
2.060400e-01 1.095829e+03 
2.072200e-01 1.086522e+03 
2.084200e-01 1.077189e+03 
2.096900e-01 1.067457e+03 
2.109200e-01 1.058171e+03 
2.121100e-01 1.049200e+03 
2.132700e-01 1.040570e+03 
2.145200e-01 1.031401e+03 
2.157200e-01 1.022610e+03 
2.168800e-01 1.014175e+03 
2.180700e-01 1.005639e+03 
2.193400e-01 9.965809e+02 
2.206000e-01 9.875822e+02 
2.217500e-01 9.794819e+02 
2.229500e-01 9.711420e+02 
2.241400e-01 9.627828e+02 
2.253500e-01 9.543930e+02 
2.264900e-01 9.465929e+02 
2.277100e-01 9.382643e+02 
2.289900e-01 9.295466e+02 
2.301500e-01 9.217535e+02 
2.313600e-01 9.137299e+02 
2.325600e-01 9.057294e+02 
2.337700e-01 8.977695e+02 
2.350000e-01 8.897864e+02 
2.362000e-01 8.820546e+02 
2.374100e-01 8.743056e+02 
2.386500e-01 8.664701e+02 
2.399100e-01 8.586158e+02 
2.410400e-01 8.516249e+02 
2.422500e-01 8.442282e+02 
2.435000e-01 8.366874e+02 
2.447300e-01 8.293685e+02 
2.458700e-01 8.226840e+02 
2.470600e-01 8.157919e+02 
2.483300e-01 8.085311e+02 
2.495600e-01 8.016181e+02 
2.507600e-01 7.949960e+02 
2.519600e-01 7.884558e+02 
2.532200e-01 7.816750e+02 
2.543700e-01 7.756257e+02 
2.555500e-01 7.695349e+02 
2.568000e-01 7.631615e+02 
2.580100e-01 7.570680e+02 
2.592400e-01 7.510404e+02 
2.604100e-01 7.454149e+02 
2.616100e-01 7.397122e+02 
2.628400e-01 7.339363e+02 
2.640600e-01 7.283692e+02 
2.652200e-01 7.231737e+02 
2.664300e-01 7.178157e+02 
2.676500e-01 7.124759e+02 
2.688400e-01 7.073964e+02 
2.700700e-01 7.022492e+02 
2.712400e-01 6.974081e+02 
2.724800e-01 6.923348e+02 
2.736700e-01 6.875669e+02 
2.748800e-01 6.828196e+02 
2.761000e-01 6.780862e+02 
2.773200e-01 6.734053e+02 
2.785400e-01 6.687962e+02 
2.797000e-01 6.645025e+02 
2.808900e-01 6.601441e+02 
2.821400e-01 6.556157e+02 
2.833900e-01 6.511392e+02 
2.845500e-01 6.470645e+02 
2.857800e-01 6.427893e+02 
2.870300e-01 6.384917e+02 
2.882100e-01 6.344776e+02 
2.893900e-01 6.305211e+02 
2.906300e-01 6.264157e+02 
2.918900e-01 6.222888e+02 
2.930500e-01 6.185287e+02 
2.942500e-01 6.146812e+02 
2.954200e-01 6.109771e+02 
2.966500e-01 6.071224e+02 
2.978900e-01 6.032769e+02 
2.990400e-01 5.997461e+02 
3.002700e-01 5.960123e+02 
3.015100e-01 5.922892e+02 
3.026800e-01 5.888113e+02 
3.038500e-01 5.853670e+02 
3.050300e-01 5.819268e+02 
3.062600e-01 5.783823e+02 
3.075000e-01 5.748449e+02 
3.087000e-01 5.714555e+02 
3.099100e-01 5.680711e+02 
3.111200e-01 5.647229e+02 
3.123100e-01 5.614673e+02 
3.135300e-01 5.581617e+02 
3.147300e-01 5.549416e+02 
3.159900e-01 5.515934e+02 
3.171800e-01 5.484668e+02 
3.183700e-01 5.453726e+02 
3.196300e-01 5.421278e+02 
3.208400e-01 5.390417e+02 
3.220300e-01 5.360349e+02 
3.232000e-01 5.331124e+02 
3.244300e-01 5.300711e+02 
3.256700e-01 5.270341e+02 
3.269200e-01 5.240017e+02 
3.280800e-01 5.212135e+02 
3.292500e-01 5.184354e+02 
3.304800e-01 5.155442e+02 
3.317100e-01 5.126798e+02 
3.328900e-01 5.099567e+02 
3.340700e-01 5.072576e+02 
3.353600e-01 5.043432e+02 
3.365300e-01 5.017274e+02 
3.377100e-01 4.991122e+02 
3.389200e-01 4.964540e+02 
3.401600e-01 4.937545e+02 
3.413700e-01 4.911523e+02 
3.425300e-01 4.886851e+02 
3.437700e-01 4.860706e+02 
3.449800e-01 4.835420e+02 
3.461800e-01 4.810560e+02 
3.473600e-01 4.786362e+02 
3.485800e-01 4.761650e+02 
3.498100e-01 4.736953e+02 
3.510200e-01 4.712867e+02 
3.522000e-01 4.689578e+02 
3.533900e-01 4.666287e+02 
3.546400e-01 4.642143e+02 
3.558400e-01 4.619170e+02 
3.570600e-01 4.596012e+02 
3.582700e-01 4.573236e+02 
3.595000e-01 4.550280e+02 
3.607100e-01 4.527951e+02 
3.618900e-01 4.506405e+02 
3.631200e-01 4.484130e+02 
3.643200e-01 4.462579e+02 
3.655500e-01 4.440672e+02 
3.667300e-01 4.419827e+02 
3.679500e-01 4.398568e+02 
3.691900e-01 4.377139e+02 
3.703600e-01 4.357083e+02 
3.715700e-01 4.336506e+02 
3.727700e-01 4.316264e+02 
3.739900e-01 4.295887e+02 
3.752000e-01 4.275908e+02 
3.763900e-01 4.256415e+02 
3.775800e-01 4.237074e+02 
3.788200e-01 4.217081e+02 
3.800300e-01 4.197727e+02 
3.812100e-01 4.179047e+02 
3.824200e-01 4.160072e+02 
3.836100e-01 4.141556e+02 
3.848600e-01 4.122258e+02 
3.860400e-01 4.104184e+02 
3.872400e-01 4.085943e+02 
3.884600e-01 4.067603e+02 
3.896500e-01 4.049875e+02 
3.908700e-01 4.031838e+02 
3.920600e-01 4.014379e+02 
3.933100e-01 3.996181e+02 
3.945300e-01 3.978557e+02 
3.957200e-01 3.961561e+02 
3.969300e-01 3.944428e+02 
3.981700e-01 3.927004e+02 
3.993500e-01 3.910547e+02 
4.094840e-01 3.774218e+02 
4.272360e-01 3.556046e+02 
4.454600e-01 3.355257e+02 
4.630560e-01 3.180432e+02 
4.804610e-01 3.023464e+02 
4.980690e-01 2.878773e+02 
5.159230e-01 2.744722e+02 
5.317440e-01 2.635437e+02 
5.489640e-01 2.525539e+02 
5.671990e-01 2.418457e+02 
5.838690e-01 2.328039e+02 
6.018840e-01 2.237549e+02 
6.202330e-01 2.152387e+02 
6.379250e-01 2.076200e+02 
6.545410e-01 2.009635e+02 
6.714560e-01 1.946179e+02 
6.892080e-01 1.883970e+02 
7.066010e-01 1.826989e+02 
7.240540e-01 1.773293e+02 
7.420450e-01 1.721418e+02 
7.593780e-01 1.674403e+02 
7.764720e-01 1.630613e+02 
7.942840e-01 1.587507e+02 
8.116170e-01 1.547857e+02 
8.288310e-01 1.510507e+02 
8.462240e-01 1.474668e+02 
8.631980e-01 1.441342e+02 
8.810700e-01 1.407909e+02 
8.989410e-01 1.376028e+02 
9.166330e-01 1.345899e+02 
9.345640e-01 1.316737e+02 
9.515980e-01 1.290156e+02 
9.688720e-01 1.264253e+02 
9.865640e-01 1.238769e+02 
1.031870e+00 1.177793e+02 
1.063490e+00 1.138478e+02 
1.097920e+00 1.098387e+02 
1.134370e+00 1.058601e+02 
1.167730e+00 1.024395e+02 
1.203830e+00 9.894032e+01 
1.240470e+00 9.559650e+01 
1.275790e+00 9.254362e+01 
1.309140e+00 8.981307e+01 
1.342970e+00 8.716153e+01 
1.378420e+00 8.452277e+01 
1.413200e+00 8.205244e+01 
1.448110e+00 7.968426e+01 
1.484090e+00 7.735463e+01 
1.518820e+00 7.520314e+01 
1.552880e+00 7.317916e+01 
1.588630e+00 7.114257e+01 
1.623230e+00 6.925340e+01 
1.657720e+00 6.744300e+01 
1.692450e+00 6.569389e+01 
1.726400e+00 6.404474e+01 
1.762200e+00 6.236955e+01 
1.797880e+00 6.076500e+01 
1.833270e+00 5.923317e+01 
1.869070e+00 5.773903e+01 
1.903200e+00 5.636614e+01 
1.937740e+00 5.502494e+01 
1.973190e+00 5.369530e+01 
2.007440e+00 5.245537e+01 
2.042160e+00 5.123953e+01 
2.077900e+00 5.002871e+01 
2.112390e+00 4.890075e+01 
2.146220e+00 4.782685e+01 
2.181600e+00 4.674010e+01 
2.216930e+00 4.568949e+01 
2.250760e+00 4.471496e+01 
2.286500e+00 4.371735e+01 
2.321770e+00 4.276353e+01 
2.355950e+00 4.186774e+01 
2.391280e+00 4.096665e+01 
2.426240e+00 4.010217e+01 
2.460670e+00 3.927663e+01 
2.495640e+00 3.846332e+01 
2.531080e+00 3.766064e+01 
2.566220e+00 3.688751e+01 
2.600830e+00 3.614822e+01 
2.635080e+00 3.543774e+01 
2.670340e+00 3.472503e+01 
2.705970e+00 3.402518e+01 
2.740040e+00 3.337453e+01 
2.774520e+00 3.273237e+01 
2.809730e+00 3.209389e+01 
2.844390e+00 3.148286e+01 
2.879960e+00 3.087258e+01 
2.914860e+00 3.028874e+01 
2.949410e+00 2.972618e+01 
2.984440e+00 2.916990e+01 
3.019760e+00 2.862312e+01 
3.054730e+00 2.809603e+01 
3.089030e+00 2.759112e+01 
3.124060e+00 2.708877e+01 
3.159560e+00 2.659231e+01 
3.194710e+00 2.611273e+01 
3.229010e+00 2.565684e+01 
3.263320e+00 2.521036e+01 
3.297930e+00 2.477120e+01 
3.332830e+00 2.433852e+01 
3.368040e+00 2.391257e+01 
3.403300e+00 2.349658e+01 
3.438450e+00 2.309119e+01 
3.473060e+00 2.270198e+01 
3.508440e+00 2.231219e+01 
3.543110e+00 2.193974e+01 
3.577470e+00 2.157874e+01 
3.613040e+00 2.121382e+01 
3.648120e+00 2.086141e+01 
3.682910e+00 2.052011e+01 
3.718050e+00 2.018301e+01 
3.753320e+00 1.985240e+01 
3.787980e+00 1.953454e+01 
3.822290e+00 1.922684e+01 
3.857020e+00 1.892195e+01 
3.891920e+00 1.862228e+01 
3.926650e+00 1.833018e+01 
3.961970e+00 1.803981e+01 
3.997360e+00 1.775514e+01 
4.031670e+00 1.748523e+01 
4.066330e+00 1.721787e+01 
4.101420e+00 1.695321e+01 
4.136200e+00 1.669591e+01 
4.170810e+00 1.644548e+01 
4.206250e+00 1.619412e+01 
4.241580e+00 1.594894e+01 
4.276300e+00 1.571289e+01 
4.310970e+00 1.548201e+01 
4.346120e+00 1.525273e+01 
4.380600e+00 1.503225e+01 
4.414730e+00 1.481850e+01 
4.450350e+00 1.459970e+01 
4.485320e+00 1.438939e+01 
4.519810e+00 1.418595e+01 
4.555430e+00 1.398004e+01 
4.590870e+00 1.377929e+01 
4.625480e+00 1.358700e+01 
4.659910e+00 1.339949e+01 
4.695230e+00 1.321087e+01 
4.729960e+00 1.302906e+01 
4.764450e+00 1.285193e+01 
4.799530e+00 1.267510e+01 
4.834910e+00 1.250025e+01 
4.869700e+00 1.233157e+01 
4.904370e+00 1.216665e+01 
4.939450e+00 1.200294e+01 
4.973940e+00 1.184500e+01 
5.008430e+00 1.168997e+01 
5.043810e+00 1.153384e+01 
5.078840e+00 1.138208e+01 
5.113500e+00 1.123468e+01 
5.148890e+00 1.108700e+01 
5.184210e+00 1.094233e+01 
5.219060e+00 1.080218e+01 
5.253660e+00 1.066557e+01 
5.288570e+00 1.053018e+01 
5.323420e+00 1.039743e+01 
5.358440e+00 1.026640e+01 
5.393590e+00 1.013720e+01 
5.428310e+00 1.001190e+01 
5.462800e+00 9.889617e+00 
5.497640e+00 9.768205e+00 
5.532670e+00 9.648339e+00 
5.567280e+00 9.531957e+00 
5.602000e+00 9.417163e+00 
5.637270e+00 9.302608e+00 
5.672410e+00 9.190419e+00 
5.707020e+00 9.081757e+00 
5.742040e+00 8.973803e+00 
5.777430e+00 8.866553e+00 
5.812210e+00 8.762881e+00 
5.846820e+00 8.661457e+00 
5.881610e+00 8.561160e+00 
5.916510e+00 8.462160e+00 
5.951600e+00 8.364348e+00 
5.986560e+00 8.268511e+00 
6.021830e+00 8.173361e+00 
6.056490e+00 8.081462e+00 
6.091160e+00 7.991077e+00 
6.125830e+00 7.902086e+00 
6.161090e+00 7.813037e+00 
6.195760e+00 7.726944e+00 
6.230420e+00 7.642183e+00 
6.265690e+00 7.557253e+00 
6.300950e+00 7.473851e+00 
6.335620e+00 7.393081e+00 
6.370880e+00 7.312169e+00 
6.405550e+00 7.233932e+00 
6.440220e+00 7.156901e+00 
6.475480e+00 7.079716e+00 
6.510150e+00 7.005001e+00 
6.544810e+00 6.931532e+00 
6.580080e+00 6.857857e+00 
6.614750e+00 6.786484e+00 
6.649410e+00 6.716332e+00 
6.684080e+00 6.647192e+00 
6.719340e+00 6.577878e+00 
6.754010e+00 6.510757e+00 
6.788680e+00 6.444732e+00 
6.823940e+00 6.378526e+00 
6.859800e+00 6.312150e+00 
6.894470e+00 6.249008e+00 
6.929140e+00 6.186780e+00 
6.963800e+00 6.125420e+00 
6.999070e+00 6.063847e+00 
7.033730e+00 6.004338e+00 
7.068400e+00 5.945613e+00 
7.103660e+00 5.886696e+00 
7.138330e+00 5.829607e+00 
7.173600e+00 5.772441e+00 
7.208260e+00 5.717011e+00 
7.243530e+00 5.661353e+00 
7.277600e+00 5.608384e+00 
7.312860e+00 5.554361e+00 
7.348120e+00 5.501051e+00 
7.382790e+00 5.449315e+00 
7.417460e+00 5.398390e+00 
7.452720e+00 5.347343e+00 
7.487390e+00 5.297794e+00 
7.522650e+00 5.248046e+00 
7.557320e+00 5.199863e+00 
7.591990e+00 5.152327e+00 
7.627250e+00 5.104591e+00 
7.662510e+00 5.057460e+00 
7.697180e+00 5.011829e+00 
7.731850e+00 4.966811e+00 
7.766510e+00 4.922358e+00 
7.801180e+00 4.878436e+00 
7.836440e+00 4.834412e+00 
7.871110e+00 4.791713e+00 
7.906380e+00 4.748804e+00 
7.941040e+00 4.707148e+00 
7.976310e+00 4.665338e+00 
8.011570e+00 4.624125e+00 
8.046240e+00 4.584087e+00 
8.080900e+00 4.544533e+00 
8.115570e+00 4.505467e+00 
8.150830e+00 4.466332e+00 
8.185500e+00 4.428304e+00 
8.220770e+00 4.390071e+00 
8.255430e+00 4.352939e+00 
8.290100e+00 4.316363e+00 
8.324770e+00 4.280224e+00 
8.359430e+00 4.244509e+00 
8.394700e+00 4.208582e+00 
8.429960e+00 4.173152e+00 
8.464630e+00 4.138786e+00 
8.499890e+00 4.104232e+00 
8.534560e+00 4.070640e+00 
8.569200e+00 4.037451e+00 
