# Parameters:
# omega_b = 0.022492, omega_m = 0.129921, n_s = 0.936614, h = 81.220472, w = -1.000000, sigma_8 = 0.759843
# z = 1.300000
#
# k[1/Mpc] # P(k):
8.694000e-04 5.549424e+03 
2.077466e-03 1.144975e+04 
3.285532e-03 1.586271e+04 
4.493598e-03 1.910978e+04 
5.701664e-03 2.139857e+04 
6.909730e-03 2.291306e+04 
8.117797e-03 2.384140e+04 
9.325863e-03 2.428057e+04 
1.053393e-02 2.432270e+04 
1.174199e-02 2.404911e+04 
1.295006e-02 2.351318e+04 
1.415813e-02 2.278410e+04 
1.536619e-02 2.191862e+04 
1.657426e-02 2.095338e+04 
1.778233e-02 1.990983e+04 
1.899039e-02 1.882982e+04 
2.019846e-02 1.776591e+04 
2.140652e-02 1.675654e+04 
2.261459e-02 1.580614e+04 
2.382266e-02 1.492217e+04 
2.503072e-02 1.411139e+04 
2.623879e-02 1.337494e+04 
2.744685e-02 1.271302e+04 
2.865492e-02 1.212314e+04 
2.986299e-02 1.160010e+04 
3.100100e-02 1.116601e+04 
3.220400e-02 1.076240e+04 
3.288100e-02 1.055942e+04 
3.424300e-02 1.019483e+04 
3.555100e-02 9.890835e+03 
3.686000e-02 9.624579e+03 
3.795000e-02 9.425068e+03 
3.929100e-02 9.201530e+03 
4.039800e-02 9.028108e+03 
4.164000e-02 8.840459e+03 
4.294400e-02 8.642042e+03 
4.415000e-02 8.457330e+03 
4.542900e-02 8.250146e+03 
4.660900e-02 8.053156e+03 
4.782300e-02 7.833293e+03 
4.892900e-02 7.625871e+03 
5.031200e-02 7.353964e+03 
5.155900e-02 7.097459e+03 
5.238100e-02 6.924776e+03 
5.378200e-02 6.626776e+03 
5.513400e-02 6.336452e+03 
5.627600e-02 6.092247e+03 
5.735300e-02 5.865302e+03 
5.870100e-02 5.588201e+03 
5.988700e-02 5.353616e+03 
6.113500e-02 5.118069e+03 
6.225900e-02 4.918511e+03 
6.340100e-02 4.730169e+03 
6.480200e-02 4.519459e+03 
6.601100e-02 4.358858e+03 
6.725500e-02 4.213225e+03 
6.829100e-02 4.108087e+03 
6.958600e-02 3.992095e+03 
7.071100e-02 3.905826e+03 
7.192300e-02 3.825106e+03 
7.307400e-02 3.758490e+03 
7.412300e-02 3.704834e+03 
7.550400e-02 3.643254e+03 
7.663100e-02 3.597948e+03 
7.791200e-02 3.551073e+03 
7.912700e-02 3.508535e+03 
8.027600e-02 3.468606e+03 
8.138400e-02 3.429577e+03 
8.272200e-02 3.380528e+03 
8.406100e-02 3.328369e+03 
8.534100e-02 3.273586e+03 
8.653800e-02 3.217751e+03 
8.759800e-02 3.165673e+03 
8.900300e-02 3.092339e+03 
9.009000e-02 3.031988e+03 
9.113300e-02 2.971078e+03 
9.239600e-02 2.895817e+03 
9.358000e-02 2.823276e+03 
9.496100e-02 2.736633e+03 
9.608400e-02 2.666501e+03 
9.727500e-02 2.593041e+03 
9.852600e-02 2.516518e+03 
9.973800e-02 2.445022e+03 
1.009000e-01 2.378844e+03 
1.020900e-01 2.315025e+03 
1.034000e-01 2.248711e+03 
1.046000e-01 2.191671e+03 
1.057200e-01 2.143785e+03 
1.069100e-01 2.095919e+03 
1.082500e-01 2.048298e+03 
1.093900e-01 2.012106e+03 
1.105400e-01 1.978369e+03 
1.116900e-01 1.949775e+03 
1.129600e-01 1.920428e+03 
1.142000e-01 1.895960e+03 
1.153300e-01 1.875271e+03 
1.166400e-01 1.853531e+03 
1.177800e-01 1.835826e+03 
1.190000e-01 1.817691e+03 
1.201200e-01 1.800961e+03 
1.213400e-01 1.783089e+03 
1.227100e-01 1.761333e+03 
1.238900e-01 1.742405e+03 
1.250700e-01 1.721684e+03 
1.263200e-01 1.699220e+03 
1.275500e-01 1.675352e+03 
1.287500e-01 1.651392e+03 
1.299900e-01 1.625290e+03 
1.311300e-01 1.600826e+03 
1.323500e-01 1.573713e+03 
1.335900e-01 1.546067e+03 
1.347100e-01 1.520684e+03 
1.359800e-01 1.492227e+03 
1.372100e-01 1.464627e+03 
1.384300e-01 1.437842e+03 
1.395700e-01 1.413202e+03 
1.407700e-01 1.387904e+03 
1.420300e-01 1.362319e+03 
1.432800e-01 1.337559e+03 
1.444500e-01 1.315746e+03 
1.456300e-01 1.294235e+03 
1.468900e-01 1.272728e+03 
1.480500e-01 1.253642e+03 
1.491700e-01 1.236153e+03 
1.503800e-01 1.218360e+03 
1.516400e-01 1.200474e+03 
1.528200e-01 1.185148e+03 
1.540200e-01 1.169870e+03 
1.551900e-01 1.156167e+03 
1.564300e-01 1.142143e+03 
1.576600e-01 1.128869e+03 
1.588700e-01 1.116497e+03 
1.600900e-01 1.104277e+03 
1.612700e-01 1.093042e+03 
1.625400e-01 1.081176e+03 
1.637600e-01 1.069945e+03 
1.649500e-01 1.059162e+03 
1.662200e-01 1.047796e+03 
1.674000e-01 1.037048e+03 
1.685000e-01 1.027196e+03 
1.697500e-01 1.015839e+03 
1.710300e-01 1.004070e+03 
1.722200e-01 9.933256e+02 
1.734400e-01 9.817358e+02 
1.746400e-01 9.705063e+02 
1.758700e-01 9.589808e+02 
1.770900e-01 9.473072e+02 
1.782700e-01 9.362150e+02 
1.794600e-01 9.249515e+02 
1.807000e-01 9.132413e+02 
1.819100e-01 9.020187e+02 
1.830100e-01 8.918413e+02 
1.842200e-01 8.808087e+02 
1.855000e-01 8.693509e+02 
1.867000e-01 8.588739e+02 
1.879200e-01 8.484056e+02 
1.890900e-01 8.385765e+02 
1.902800e-01 8.289548e+02 
1.915200e-01 8.190974e+02 
1.926900e-01 8.100338e+02 
1.939000e-01 8.010822e+02 
1.951700e-01 7.918428e+02 
1.963100e-01 7.837731e+02 
1.975100e-01 7.756520e+02 
1.987800e-01 7.671949e+02 
2.000100e-01 7.592201e+02 
2.012500e-01 7.515015e+02 
2.023400e-01 7.448164e+02 
2.036100e-01 7.371773e+02 
2.048900e-01 7.297344e+02 
2.060400e-01 7.231476e+02 
2.072200e-01 7.164902e+02 
2.084200e-01 7.098756e+02 
2.096900e-01 7.029797e+02 
2.109200e-01 6.964014e+02 
2.121100e-01 6.901007e+02 
2.132700e-01 6.840434e+02 
2.145200e-01 6.776092e+02 
2.157200e-01 6.714777e+02 
2.168800e-01 6.656124e+02 
2.180700e-01 6.596780e+02 
2.193400e-01 6.534082e+02 
2.206000e-01 6.472287e+02 
2.217500e-01 6.416672e+02 
2.229500e-01 6.359421e+02 
2.241400e-01 6.302898e+02 
2.253500e-01 6.246198e+02 
2.264900e-01 6.193490e+02 
2.277100e-01 6.137770e+02 
2.289900e-01 6.080059e+02 
2.301500e-01 6.028471e+02 
2.313600e-01 5.975371e+02 
2.325600e-01 5.923655e+02 
2.337700e-01 5.872200e+02 
2.350000e-01 5.820591e+02 
2.362000e-01 5.771153e+02 
2.374100e-01 5.722243e+02 
2.386500e-01 5.672779e+02 
2.399100e-01 5.623188e+02 
2.410400e-01 5.579853e+02 
2.422500e-01 5.534094e+02 
2.435000e-01 5.487432e+02 
2.447300e-01 5.442242e+02 
2.458700e-01 5.401396e+02 
2.470600e-01 5.359270e+02 
2.483300e-01 5.314879e+02 
2.495600e-01 5.272639e+02 
2.507600e-01 5.232218e+02 
2.519600e-01 5.192286e+02 
2.532200e-01 5.150873e+02 
2.543700e-01 5.113701e+02 
2.555500e-01 5.076117e+02 
2.568000e-01 5.036781e+02 
2.580100e-01 4.999162e+02 
2.592400e-01 4.961442e+02 
2.604100e-01 4.926008e+02 
2.616100e-01 4.890082e+02 
2.628400e-01 4.853689e+02 
2.640600e-01 4.817957e+02 
2.652200e-01 4.784345e+02 
2.664300e-01 4.749680e+02 
2.676500e-01 4.715129e+02 
2.688400e-01 4.681696e+02 
2.700700e-01 4.647459e+02 
2.712400e-01 4.615258e+02 
2.724800e-01 4.581513e+02 
2.736700e-01 4.549405e+02 
2.748800e-01 4.517028e+02 
2.761000e-01 4.484749e+02 
2.773200e-01 4.452830e+02 
2.785400e-01 4.421207e+02 
2.797000e-01 4.391337e+02 
2.808900e-01 4.361022e+02 
2.821400e-01 4.329529e+02 
2.833900e-01 4.298382e+02 
2.845500e-01 4.269631e+02 
2.857800e-01 4.239471e+02 
2.870300e-01 4.209158e+02 
2.882100e-01 4.180851e+02 
2.893900e-01 4.152776e+02 
2.906300e-01 4.123555e+02 
2.918900e-01 4.094188e+02 
2.930500e-01 4.067438e+02 
2.942500e-01 4.040034e+02 
2.954200e-01 4.013544e+02 
2.966500e-01 3.985985e+02 
2.978900e-01 3.958496e+02 
2.990400e-01 3.933264e+02 
3.002700e-01 3.906534e+02 
3.015100e-01 3.879863e+02 
3.026800e-01 3.854953e+02 
3.038500e-01 3.830290e+02 
3.050300e-01 3.805661e+02 
3.062600e-01 3.780260e+02 
3.075000e-01 3.754915e+02 
3.087000e-01 3.730636e+02 
3.099100e-01 3.706399e+02 
3.111200e-01 3.682427e+02 
3.123100e-01 3.659124e+02 
3.135300e-01 3.635469e+02 
3.147300e-01 3.612430e+02 
3.159900e-01 3.588482e+02 
3.171800e-01 3.566132e+02 
3.183700e-01 3.544025e+02 
3.196300e-01 3.520848e+02 
3.208400e-01 3.498810e+02 
3.220300e-01 3.477344e+02 
3.232000e-01 3.456501e+02 
3.244300e-01 3.434823e+02 
3.256700e-01 3.413180e+02 
3.269200e-01 3.391576e+02 
3.280800e-01 3.371716e+02 
3.292500e-01 3.351949e+02 
3.304800e-01 3.331387e+02 
3.317100e-01 3.311020e+02 
3.328900e-01 3.291662e+02 
3.340700e-01 3.272479e+02 
3.353600e-01 3.251794e+02 
3.365300e-01 3.233241e+02 
3.377100e-01 3.214696e+02 
3.389200e-01 3.195850e+02 
3.401600e-01 3.176715e+02 
3.413700e-01 3.158291e+02 
3.425300e-01 3.140838e+02 
3.437700e-01 3.122347e+02 
3.449800e-01 3.104467e+02 
3.461800e-01 3.086893e+02 
3.473600e-01 3.069795e+02 
3.485800e-01 3.052355e+02 
3.498100e-01 3.034929e+02 
3.510200e-01 3.017938e+02 
3.522000e-01 3.001511e+02 
3.533900e-01 2.985087e+02 
3.546400e-01 2.968090e+02 
3.558400e-01 2.951921e+02 
3.570600e-01 2.935625e+02 
3.582700e-01 2.919601e+02 
3.595000e-01 2.903454e+02 
3.607100e-01 2.887759e+02 
3.618900e-01 2.872624e+02 
3.631200e-01 2.856981e+02 
3.643200e-01 2.841849e+02 
3.655500e-01 2.826469e+02 
3.667300e-01 2.811837e+02 
3.679500e-01 2.796935e+02 
3.691900e-01 2.781916e+02 
3.703600e-01 2.767863e+02 
3.715700e-01 2.753447e+02 
3.727700e-01 2.739267e+02 
3.739900e-01 2.724999e+02 
3.752000e-01 2.711020e+02 
3.763900e-01 2.697383e+02 
3.775800e-01 2.683854e+02 
3.788200e-01 2.669872e+02 
3.800300e-01 2.656339e+02 
3.812100e-01 2.643285e+02 
3.824200e-01 2.630031e+02 
3.836100e-01 2.617099e+02 
3.848600e-01 2.603624e+02 
3.860400e-01 2.591005e+02 
3.872400e-01 2.578272e+02 
3.884600e-01 2.565480e+02 
3.896500e-01 2.553119e+02 
3.908700e-01 2.540545e+02 
3.920600e-01 2.528376e+02 
3.933100e-01 2.515693e+02 
3.945300e-01 2.503412e+02 
3.957200e-01 2.491572e+02 
3.969300e-01 2.479639e+02 
3.981700e-01 2.467504e+02 
3.993500e-01 2.456045e+02 
4.094840e-01 2.361260e+02 
4.272360e-01 2.209964e+02 
4.454600e-01 2.071288e+02 
4.630560e-01 1.951076e+02 
4.804610e-01 1.843656e+02 
4.980690e-01 1.745100e+02 
5.159230e-01 1.654274e+02 
5.317440e-01 1.580544e+02 
5.489640e-01 1.506770e+02 
5.671990e-01 1.435210e+02 
5.838690e-01 1.375000e+02 
6.018840e-01 1.314963e+02 
6.202330e-01 1.258696e+02 
6.379250e-01 1.208492e+02 
6.545410e-01 1.164785e+02 
6.714560e-01 1.123231e+02 
6.892080e-01 1.082593e+02 
7.066010e-01 1.045483e+02 
7.240540e-01 1.010616e+02 
7.420450e-01 9.770388e+01 
7.593780e-01 9.467192e+01 
7.764720e-01 9.185610e+01 
7.942840e-01 8.909451e+01 
8.116170e-01 8.656357e+01 
8.288310e-01 8.419105e+01 
8.462240e-01 8.192192e+01 
8.631980e-01 7.982274e+01 
8.810700e-01 7.772576e+01 
8.989410e-01 7.573712e+01 
9.166330e-01 7.386638e+01 
9.345640e-01 7.206295e+01 
9.515980e-01 7.042985e+01 
9.688720e-01 6.884729e+01 
9.865640e-01 6.729907e+01 
1.031870e+00 6.362880e+01 
1.063490e+00 6.129151e+01 
1.097920e+00 5.893150e+01 
1.134370e+00 5.661458e+01 
1.167730e+00 5.464294e+01 
1.203830e+00 5.264927e+01 
1.240470e+00 5.076057e+01 
1.275790e+00 4.905398e+01 
1.309140e+00 4.753828e+01 
1.342970e+00 4.608225e+01 
1.378420e+00 4.464192e+01 
1.413200e+00 4.330438e+01 
1.448110e+00 4.203017e+01 
1.484090e+00 4.078524e+01 
1.518820e+00 3.964236e+01 
1.552880e+00 3.857331e+01 
1.588630e+00 3.750257e+01 
1.623230e+00 3.651425e+01 
1.657720e+00 3.557182e+01 
1.692450e+00 3.466391e+01 
1.726400e+00 3.381148e+01 
1.762200e+00 3.294899e+01 
1.797880e+00 3.212551e+01 
1.833270e+00 3.134148e+01 
1.869070e+00 3.057912e+01 
1.903200e+00 2.988014e+01 
1.937740e+00 2.919848e+01 
1.973190e+00 2.852411e+01 
2.007440e+00 2.789595e+01 
2.042160e+00 2.728128e+01 
2.077900e+00 2.667031e+01 
2.112390e+00 2.610116e+01 
2.146220e+00 2.556038e+01 
2.181600e+00 2.501347e+01 
2.216930e+00 2.448523e+01 
2.250760e+00 2.399544e+01 
2.286500e+00 2.349424e+01 
2.321770e+00 2.301529e+01 
2.355950e+00 2.256522e+01 
2.391280e+00 2.211318e+01 
2.426240e+00 2.167926e+01 
2.460670e+00 2.126468e+01 
2.495640e+00 2.085614e+01 
2.531080e+00 2.045311e+01 
2.566220e+00 2.006485e+01 
2.600830e+00 1.969333e+01 
2.635080e+00 1.933595e+01 
2.670340e+00 1.897700e+01 
2.705970e+00 1.862449e+01 
2.740040e+00 1.829667e+01 
2.774520e+00 1.797293e+01 
2.809730e+00 1.765071e+01 
2.844390e+00 1.734199e+01 
2.879960e+00 1.703306e+01 
2.914860e+00 1.673743e+01 
2.949410e+00 1.645235e+01 
2.984440e+00 1.616996e+01 
3.019760e+00 1.589231e+01 
3.054730e+00 1.562453e+01 
3.089030e+00 1.536717e+01 
3.124060e+00 1.511091e+01 
3.159560e+00 1.485742e+01 
3.194710e+00 1.461209e+01 
3.229010e+00 1.437863e+01 
3.263320e+00 1.414944e+01 
3.297930e+00 1.392384e+01 
3.332830e+00 1.370136e+01 
3.368040e+00 1.348185e+01 
3.403300e+00 1.326707e+01 
3.438450e+00 1.305737e+01 
3.473060e+00 1.285584e+01 
3.508440e+00 1.265363e+01 
3.543110e+00 1.246019e+01 
3.577470e+00 1.227199e+01 
3.613040e+00 1.208162e+01 
3.648120e+00 1.189764e+01 
3.682910e+00 1.171913e+01 
3.718050e+00 1.154229e+01 
3.753320e+00 1.136863e+01 
3.787980e+00 1.120141e+01 
3.822290e+00 1.103926e+01 
3.857020e+00 1.087821e+01 
3.891920e+00 1.071970e+01 
3.926650e+00 1.056486e+01 
3.961970e+00 1.041068e+01 
3.997360e+00 1.025907e+01 
4.031670e+00 1.011519e+01 
4.066330e+00 9.972398e+00 
4.101420e+00 9.830948e+00 
4.136200e+00 9.692918e+00 
4.170810e+00 9.558492e+00 
4.206250e+00 9.423229e+00 
4.241580e+00 9.291174e+00 
4.276300e+00 9.163674e+00 
4.310970e+00 9.038740e+00 
4.346120e+00 8.914493e+00 
4.380600e+00 8.794767e+00 
4.414730e+00 8.678620e+00 
4.450350e+00 8.559286e+00 
4.485320e+00 8.444515e+00 
4.519810e+00 8.333184e+00 
4.555430e+00 8.220326e+00 
4.590870e+00 8.110163e+00 
4.625480e+00 8.004429e+00 
4.659910e+00 7.901270e+00 
4.695230e+00 7.797092e+00 
4.729960e+00 7.696571e+00 
4.764450e+00 7.598472e+00 
4.799530e+00 7.500309e+00 
4.834910e+00 7.403191e+00 
4.869700e+00 7.309224e+00 
4.904370e+00 7.217273e+00 
4.939450e+00 7.125880e+00 
4.973940e+00 7.037473e+00 
5.008430e+00 6.950665e+00 
5.043810e+00 6.863033e+00 
5.078840e+00 6.777733e+00 
5.113500e+00 6.694846e+00 
5.148890e+00 6.611477e+00 
5.184210e+00 6.529758e+00 
5.219060e+00 6.450510e+00 
5.253660e+00 6.373071e+00 
5.288570e+00 6.296295e+00 
5.323420e+00 6.220894e+00 
5.358440e+00 6.146337e+00 
5.393590e+00 6.072794e+00 
5.428310e+00 6.001284e+00 
5.462800e+00 5.931386e+00 
5.497640e+00 5.861962e+00 
5.532670e+00 5.793226e+00 
5.567280e+00 5.726412e+00 
5.602000e+00 5.660489e+00 
5.637270e+00 5.594554e+00 
5.672410e+00 5.529931e+00 
5.707020e+00 5.467321e+00 
5.742040e+00 5.404932e+00 
5.777430e+00 5.342898e+00 
5.812210e+00 5.282916e+00 
5.846820e+00 5.224111e+00 
5.881610e+00 5.165917e+00 
5.916510e+00 5.108459e+00 
5.951600e+00 5.051556e+00 
5.986560e+00 4.995735e+00 
6.021830e+00 4.940299e+00 
6.056490e+00 4.886662e+00 
6.091160e+00 4.833826e+00 
6.125830e+00 4.781794e+00 
6.161090e+00 4.729682e+00 
6.195760e+00 4.679217e+00 
6.230420e+00 4.629522e+00 
6.265690e+00 4.579711e+00 
6.300950e+00 4.530656e+00 
6.335620e+00 4.483139e+00 
6.370880e+00 4.435529e+00 
6.405550e+00 4.389423e+00 
6.440220e+00 4.343994e+00 
6.475480e+00 4.298466e+00 
6.510150e+00 4.254352e+00 
6.544810e+00 4.210885e+00 
6.580080e+00 4.167290e+00 
6.614750e+00 4.125049e+00 
6.649410e+00 4.083466e+00 
6.684080e+00 4.042465e+00 
6.719340e+00 4.001354e+00 
6.754010e+00 3.961509e+00 
6.788680e+00 3.922243e+00 
6.823940e+00 3.882863e+00 
6.859800e+00 3.843377e+00 
6.894470e+00 3.805768e+00 
6.929140e+00 3.768683e+00 
6.963800e+00 3.732109e+00 
6.999070e+00 3.695401e+00 
7.033730e+00 3.659868e+00 
7.068400e+00 3.624799e+00 
7.103660e+00 3.589610e+00 
7.138330e+00 3.555494e+00 
7.173600e+00 3.521296e+00 
7.208260e+00 3.488133e+00 
7.243530e+00 3.454830e+00 
7.277600e+00 3.423110e+00 
7.312860e+00 3.390735e+00 
7.348120e+00 3.358784e+00 
7.382790e+00 3.327772e+00 
7.417460e+00 3.297206e+00 
7.452720e+00 3.266542e+00 
7.487390e+00 3.236775e+00 
7.522650e+00 3.206886e+00 
7.557320e+00 3.177927e+00 
7.591990e+00 3.149350e+00 
7.627250e+00 3.120651e+00 
7.662510e+00 3.092312e+00 
7.697180e+00 3.064850e+00 
7.731850e+00 3.037747e+00 
7.766510e+00 3.010982e+00 
7.801180e+00 2.984534e+00 
7.836440e+00 2.958018e+00 
7.871110e+00 2.932297e+00 
7.906380e+00 2.906447e+00 
7.941040e+00 2.881349e+00 
7.976310e+00 2.856146e+00 
8.011570e+00 2.831289e+00 
8.046240e+00 2.807139e+00 
8.080900e+00 2.783278e+00 
8.115570e+00 2.759709e+00 
8.150830e+00 2.736095e+00 
8.185500e+00 2.713146e+00 
8.220770e+00 2.690072e+00 
8.255430e+00 2.667660e+00 
8.290100e+00 2.645567e+00 
8.324770e+00 2.623734e+00 
8.359430e+00 2.602155e+00 
8.394700e+00 2.580446e+00 
8.429960e+00 2.559038e+00 
8.464630e+00 2.538271e+00 
8.499890e+00 2.517389e+00 
8.534560e+00 2.497087e+00 
8.569200e+00 2.477027e+00 
