# Parameters:
# omega_b = 0.021626, omega_m = 0.126339, n_s = 1.021654, h = 55.000000, w = -1.000000, sigma_8 = 0.825984
# z = 1.300000
#
# k[1/Mpc] # P(k):
8.694000e-04 5.998213e+03 
2.077466e-03 1.329291e+04 
3.285532e-03 1.912294e+04 
4.493598e-03 2.363219e+04 
5.701664e-03 2.699014e+04 
6.909730e-03 2.936097e+04 
8.117797e-03 3.094572e+04 
9.325863e-03 3.185062e+04 
1.053393e-02 3.218959e+04 
1.174199e-02 3.207208e+04 
1.295006e-02 3.156545e+04 
1.415813e-02 3.076184e+04 
1.536619e-02 2.974512e+04 
1.657426e-02 2.857872e+04 
1.778233e-02 2.735113e+04 
1.899039e-02 2.616043e+04 
2.019846e-02 2.496901e+04 
2.140652e-02 2.376084e+04 
2.261459e-02 2.257516e+04 
2.382266e-02 2.145150e+04 
2.503072e-02 2.040840e+04 
2.623879e-02 1.945115e+04 
2.744685e-02 1.858212e+04 
2.865492e-02 1.780103e+04 
2.986299e-02 1.710301e+04 
3.100100e-02 1.651900e+04 
3.220400e-02 1.597164e+04 
3.288100e-02 1.569406e+04 
3.424300e-02 1.519124e+04 
3.555100e-02 1.476689e+04 
3.686000e-02 1.439011e+04 
3.795000e-02 1.410430e+04 
3.929100e-02 1.377945e+04 
4.039800e-02 1.352514e+04 
4.164000e-02 1.324858e+04 
4.294400e-02 1.295621e+04 
4.415000e-02 1.268532e+04 
4.542900e-02 1.238483e+04 
4.660900e-02 1.210178e+04 
4.782300e-02 1.179047e+04 
4.892900e-02 1.149958e+04 
5.031200e-02 1.112240e+04 
5.155900e-02 1.076983e+04 
5.238100e-02 1.053399e+04 
5.378200e-02 1.012993e+04 
5.513400e-02 9.741671e+03 
5.627600e-02 9.421196e+03 
5.735300e-02 9.130576e+03 
5.870100e-02 8.788239e+03 
5.988700e-02 8.510298e+03 
6.113500e-02 8.241164e+03 
6.225900e-02 8.018148e+03 
6.340100e-02 7.806915e+03 
6.480200e-02 7.563330e+03 
6.601100e-02 7.364361e+03 
6.725500e-02 7.168388e+03 
6.829100e-02 7.012669e+03 
6.958600e-02 6.827370e+03 
7.071100e-02 6.676749e+03 
7.192300e-02 6.525614e+03 
7.307400e-02 6.392914e+03 
7.412300e-02 6.280926e+03 
7.550400e-02 6.146715e+03 
7.663100e-02 6.045876e+03 
7.791200e-02 5.941345e+03 
7.912700e-02 5.849480e+03 
8.027600e-02 5.767105e+03 
8.138400e-02 5.690603e+03 
8.272200e-02 5.600641e+03 
8.406100e-02 5.511550e+03 
8.534100e-02 5.424786e+03 
8.653800e-02 5.340924e+03 
8.759800e-02 5.264907e+03 
8.900300e-02 5.160623e+03 
9.009000e-02 5.076413e+03 
9.113300e-02 4.992171e+03 
9.239600e-02 4.888377e+03 
9.358000e-02 4.788389e+03 
9.496100e-02 4.668461e+03 
9.608400e-02 4.570797e+03 
9.727500e-02 4.467909e+03 
9.852600e-02 4.359324e+03 
9.973800e-02 4.256837e+03 
1.009000e-01 4.161089e+03 
1.020900e-01 4.066565e+03 
1.034000e-01 3.966904e+03 
1.046000e-01 3.879692e+03 
1.057200e-01 3.803694e+03 
1.069100e-01 3.726508e+03 
1.082500e-01 3.646154e+03 
1.093900e-01 3.582559e+03 
1.105400e-01 3.521701e+03 
1.116900e-01 3.466322e+03 
1.129600e-01 3.408103e+03 
1.142000e-01 3.356048e+03 
1.153300e-01 3.310933e+03 
1.166400e-01 3.261707e+03 
1.177800e-01 3.221052e+03 
1.190000e-01 3.179110e+03 
1.201200e-01 3.141800e+03 
1.213400e-01 3.102167e+03 
1.227100e-01 3.058045e+03 
1.238900e-01 3.020662e+03 
1.250700e-01 2.982981e+03 
1.263200e-01 2.943402e+03 
1.275500e-01 2.904044e+03 
1.287500e-01 2.865773e+03 
1.299900e-01 2.825931e+03 
1.311300e-01 2.789409e+03 
1.323500e-01 2.750113e+03 
1.335900e-01 2.710491e+03 
1.347100e-01 2.674698e+03 
1.359800e-01 2.634646e+03 
1.372100e-01 2.596015e+03 
1.384300e-01 2.558376e+03 
1.395700e-01 2.523518e+03 
1.407700e-01 2.487586e+03 
1.420300e-01 2.450479e+03 
1.432800e-01 2.414495e+03 
1.444500e-01 2.381634e+03 
1.456300e-01 2.349179e+03 
1.468900e-01 2.315598e+03 
1.480500e-01 2.285430e+03 
1.491700e-01 2.257112e+03 
1.503800e-01 2.227432e+03 
1.516400e-01 2.197291e+03 
1.528200e-01 2.170183e+03 
1.540200e-01 2.143156e+03 
1.551900e-01 2.117823e+03 
1.564300e-01 2.091619e+03 
1.576600e-01 2.066378e+03 
1.588700e-01 2.042314e+03 
1.600900e-01 2.018531e+03 
1.612700e-01 1.996282e+03 
1.625400e-01 1.972788e+03 
1.637600e-01 1.950726e+03 
1.649500e-01 1.929647e+03 
1.662200e-01 1.907555e+03 
1.674000e-01 1.887348e+03 
1.685000e-01 1.868829e+03 
1.697500e-01 1.848041e+03 
1.710300e-01 1.827040e+03 
1.722200e-01 1.807867e+03 
1.734400e-01 1.788276e+03 
1.746400e-01 1.769331e+03 
1.758700e-01 1.750162e+03 
1.770900e-01 1.731305e+03 
1.782700e-01 1.713376e+03 
1.794600e-01 1.695485e+03 
1.807000e-01 1.677084e+03 
1.819100e-01 1.659434e+03 
1.830100e-01 1.643571e+03 
1.842200e-01 1.626385e+03 
1.855000e-01 1.608517e+03 
1.867000e-01 1.592087e+03 
1.879200e-01 1.575655e+03 
1.890900e-01 1.560168e+03 
1.902800e-01 1.544761e+03 
1.915200e-01 1.528964e+03 
1.926900e-01 1.514341e+03 
1.939000e-01 1.499603e+03 
1.951700e-01 1.484382e+03 
1.963100e-01 1.470982e+03 
1.975100e-01 1.457225e+03 
1.987800e-01 1.442892e+03 
2.000100e-01 1.429285e+03 
2.012500e-01 1.415910e+03 
2.023400e-01 1.404322e+03 
2.036100e-01 1.391042e+03 
2.048900e-01 1.377964e+03 
2.060400e-01 1.366388e+03 
2.072200e-01 1.354682e+03 
2.084200e-01 1.343004e+03 
2.096900e-01 1.330827e+03 
2.109200e-01 1.319208e+03 
2.121100e-01 1.308094e+03 
2.132700e-01 1.297408e+03 
2.145200e-01 1.286055e+03 
2.157200e-01 1.275246e+03 
2.168800e-01 1.264911e+03 
2.180700e-01 1.254452e+03 
2.193400e-01 1.243380e+03 
2.206000e-01 1.232429e+03 
2.217500e-01 1.222570e+03 
2.229500e-01 1.212419e+03 
2.241400e-01 1.202263e+03 
2.253500e-01 1.192069e+03 
2.264900e-01 1.182591e+03 
2.277100e-01 1.172447e+03 
2.289900e-01 1.161801e+03 
2.301500e-01 1.152284e+03 
2.313600e-01 1.142484e+03 
2.325600e-01 1.132620e+03 
2.337700e-01 1.122805e+03 
2.350000e-01 1.112961e+03 
2.362000e-01 1.103374e+03 
2.374100e-01 1.093704e+03 
2.386500e-01 1.083926e+03 
2.399100e-01 1.074124e+03 
2.410400e-01 1.065307e+03 
2.422500e-01 1.055966e+03 
2.435000e-01 1.046444e+03 
2.447300e-01 1.037187e+03 
2.458700e-01 1.028669e+03 
2.470600e-01 1.019886e+03 
2.483300e-01 1.010635e+03 
2.495600e-01 1.001809e+03 
2.507600e-01 9.933310e+02 
2.519600e-01 9.849581e+02 
2.532200e-01 9.762783e+02 
2.543700e-01 9.685353e+02 
2.555500e-01 9.607395e+02 
2.568000e-01 9.525830e+02 
2.580100e-01 9.447854e+02 
2.592400e-01 9.370971e+02 
2.604100e-01 9.299329e+02 
2.616100e-01 9.226709e+02 
2.628400e-01 9.153163e+02 
2.640600e-01 9.082695e+02 
2.652200e-01 9.017098e+02 
2.664300e-01 8.949453e+02 
2.676500e-01 8.882041e+02 
2.688400e-01 8.818325e+02 
2.700700e-01 8.754018e+02 
2.712400e-01 8.693536e+02 
2.724800e-01 8.630153e+02 
2.736700e-01 8.570894e+02 
2.748800e-01 8.512210e+02 
2.761000e-01 8.453697e+02 
2.773200e-01 8.395832e+02 
2.785400e-01 8.339015e+02 
2.797000e-01 8.286428e+02 
2.808900e-01 8.233047e+02 
2.821400e-01 8.177581e+02 
2.833900e-01 8.122763e+02 
2.845500e-01 8.073211e+02 
2.857800e-01 8.021217e+02 
2.870300e-01 7.968948e+02 
2.882100e-01 7.920125e+02 
2.893900e-01 7.872151e+02 
2.906300e-01 7.822450e+02 
2.918900e-01 7.772485e+02 
2.930500e-01 7.726959e+02 
2.942500e-01 7.680397e+02 
2.954200e-01 7.635654e+02 
2.966500e-01 7.589089e+02 
2.978900e-01 7.542631e+02 
2.990400e-01 7.499972e+02 
3.002700e-01 7.454879e+02 
3.015100e-01 7.409921e+02 
3.026800e-01 7.367921e+02 
3.038500e-01 7.326324e+02 
3.050300e-01 7.284774e+02 
3.062600e-01 7.241935e+02 
3.075000e-01 7.199178e+02 
3.087000e-01 7.158208e+02 
3.099100e-01 7.117295e+02 
3.111200e-01 7.076795e+02 
3.123100e-01 7.037372e+02 
3.135300e-01 6.997342e+02 
3.147300e-01 6.958345e+02 
3.159900e-01 6.917793e+02 
3.171800e-01 6.879878e+02 
3.183700e-01 6.842325e+02 
3.196300e-01 6.802942e+02 
3.208400e-01 6.765483e+02 
3.220300e-01 6.728985e+02 
3.232000e-01 6.693453e+02 
3.244300e-01 6.656453e+02 
3.256700e-01 6.619504e+02 
3.269200e-01 6.582609e+02 
3.280800e-01 6.548683e+02 
3.292500e-01 6.514833e+02 
3.304800e-01 6.479589e+02 
3.317100e-01 6.444670e+02 
3.328900e-01 6.411471e+02 
3.340700e-01 6.378564e+02 
3.353600e-01 6.342994e+02 
3.365300e-01 6.311054e+02 
3.377100e-01 6.279120e+02 
3.389200e-01 6.246660e+02 
3.401600e-01 6.213693e+02 
3.413700e-01 6.181897e+02 
3.425300e-01 6.151739e+02 
3.437700e-01 6.119780e+02 
3.449800e-01 6.088868e+02 
3.461800e-01 6.058477e+02 
3.473600e-01 6.028893e+02 
3.485800e-01 5.998679e+02 
3.498100e-01 5.968482e+02 
3.510200e-01 5.939032e+02 
3.522000e-01 5.910553e+02 
3.533900e-01 5.882072e+02 
3.546400e-01 5.852562e+02 
3.558400e-01 5.824483e+02 
3.570600e-01 5.796175e+02 
3.582700e-01 5.768335e+02 
3.595000e-01 5.740273e+02 
3.607100e-01 5.712996e+02 
3.618900e-01 5.686691e+02 
3.631200e-01 5.659496e+02 
3.643200e-01 5.633184e+02 
3.655500e-01 5.606435e+02 
3.667300e-01 5.580982e+02 
3.679500e-01 5.555071e+02 
3.691900e-01 5.528952e+02 
3.703600e-01 5.504505e+02 
3.715700e-01 5.479422e+02 
3.727700e-01 5.454746e+02 
3.739900e-01 5.429925e+02 
3.752000e-01 5.405626e+02 
3.763900e-01 5.381916e+02 
3.775800e-01 5.358390e+02 
3.788200e-01 5.334070e+02 
3.800300e-01 5.310528e+02 
3.812100e-01 5.287840e+02 
3.824200e-01 5.264818e+02 
3.836100e-01 5.242351e+02 
3.848600e-01 5.218935e+02 
3.860400e-01 5.197003e+02 
3.872400e-01 5.174867e+02 
3.884600e-01 5.152653e+02 
3.896500e-01 5.131195e+02 
3.908700e-01 5.109363e+02 
3.920600e-01 5.088229e+02 
3.933100e-01 5.066198e+02 
3.945300e-01 5.044862e+02 
3.957200e-01 5.024344e+02 
3.969300e-01 5.003674e+02 
3.981700e-01 4.982651e+02 
3.993500e-01 4.962796e+02 
4.094840e-01 4.798426e+02 
4.272360e-01 4.536491e+02 
4.454600e-01 4.295779e+02 
4.630560e-01 4.086045e+02 
4.804610e-01 3.897213e+02 
4.980690e-01 3.722463e+02 
5.159230e-01 3.559757e+02 
5.317440e-01 3.426543e+02 
5.489640e-01 3.291924e+02 
5.671990e-01 3.160176e+02 
5.838690e-01 3.048590e+02 
6.018840e-01 2.936594e+02 
6.202330e-01 2.830886e+02 
6.379250e-01 2.736189e+02 
6.545410e-01 2.653300e+02 
6.714560e-01 2.574201e+02 
6.892080e-01 2.496602e+02 
7.066010e-01 2.425456e+02 
7.240540e-01 2.358350e+02 
7.420450e-01 2.293457e+02 
7.593780e-01 2.234562e+02 
7.764720e-01 2.179656e+02 
7.942840e-01 2.125523e+02 
8.116170e-01 2.075654e+02 
8.288310e-01 2.028565e+02 
8.462240e-01 1.983309e+02 
8.631980e-01 1.941111e+02 
8.810700e-01 1.898677e+02 
8.989410e-01 1.858083e+02 
9.166330e-01 1.819616e+02 
9.345640e-01 1.782293e+02 
9.515980e-01 1.748135e+02 
9.688720e-01 1.714733e+02 
9.865640e-01 1.681748e+02 
1.031870e+00 1.602368e+02 
1.063490e+00 1.550775e+02 
1.097920e+00 1.497820e+02 
1.134370e+00 1.444916e+02 
1.167730e+00 1.399130e+02 
1.203830e+00 1.351956e+02 
1.240470e+00 1.306640e+02 
1.275790e+00 1.265006e+02 
1.309140e+00 1.227614e+02 
1.342970e+00 1.191081e+02 
1.378420e+00 1.154605e+02 
1.413200e+00 1.120305e+02 
1.448110e+00 1.087316e+02 
1.484090e+00 1.054753e+02 
1.518820e+00 1.024593e+02 
1.552880e+00 9.961442e+01 
1.588630e+00 9.674610e+01 
1.623230e+00 9.407979e+01 
1.657720e+00 9.151941e+01 
1.692450e+00 8.904323e+01 
1.726400e+00 8.670510e+01 
1.762200e+00 8.432698e+01 
1.797880e+00 8.204690e+01 
1.833270e+00 7.986862e+01 
1.869070e+00 7.774254e+01 
1.903200e+00 7.578834e+01 
1.937740e+00 7.387886e+01 
1.973190e+00 7.198558e+01 
2.007440e+00 7.022043e+01 
2.042160e+00 6.848941e+01 
2.077900e+00 6.676545e+01 
2.112390e+00 6.516062e+01 
2.146220e+00 6.363278e+01 
2.181600e+00 6.208751e+01 
2.216930e+00 6.059440e+01 
2.250760e+00 5.921037e+01 
2.286500e+00 5.779454e+01 
2.321770e+00 5.644185e+01 
2.355950e+00 5.517280e+01 
2.391280e+00 5.389683e+01 
2.426240e+00 5.267413e+01 
2.460670e+00 5.150779e+01 
2.495640e+00 5.035981e+01 
2.531080e+00 4.922797e+01 
2.566220e+00 4.813892e+01 
2.600830e+00 4.709878e+01 
2.635080e+00 4.610044e+01 
2.670340e+00 4.510070e+01 
2.705970e+00 4.411997e+01 
2.740040e+00 4.320909e+01 
2.774520e+00 4.231127e+01 
2.809730e+00 4.141992e+01 
2.844390e+00 4.056803e+01 
2.879960e+00 3.971873e+01 
2.914860e+00 3.890726e+01 
2.949410e+00 3.812626e+01 
2.984440e+00 3.735539e+01 
3.019760e+00 3.659851e+01 
3.054730e+00 3.586964e+01 
3.089030e+00 3.517330e+01 
3.124060e+00 3.448128e+01 
3.159560e+00 3.379831e+01 
3.194710e+00 3.313979e+01 
3.229010e+00 3.251453e+01 
3.263320e+00 3.190357e+01 
3.297930e+00 3.130327e+01 
3.332830e+00 3.071266e+01 
3.368040e+00 3.013236e+01 
3.403300e+00 2.956652e+01 
3.438450e+00 2.901620e+01 
3.473060e+00 2.848837e+01 
3.508440e+00 2.796088e+01 
3.543110e+00 2.745741e+01 
3.577470e+00 2.697078e+01 
3.613040e+00 2.647935e+01 
3.648120e+00 2.600541e+01 
3.682910e+00 2.554711e+01 
3.718050e+00 2.509551e+01 
3.753320e+00 2.465317e+01 
3.787980e+00 2.422859e+01 
3.822290e+00 2.381819e+01 
3.857020e+00 2.341234e+01 
3.891920e+00 2.301398e+01 
3.926650e+00 2.262643e+01 
3.961970e+00 2.224168e+01 
3.997360e+00 2.186538e+01 
4.031670e+00 2.150893e+01 
4.066330e+00 2.115654e+01 
4.101420e+00 2.080796e+01 
4.136200e+00 2.047006e+01 
4.170810e+00 2.014137e+01 
4.206250e+00 1.981220e+01 
4.241580e+00 1.949143e+01 
4.276300e+00 1.918327e+01 
4.310970e+00 1.888231e+01 
4.346120e+00 1.858383e+01 
4.380600e+00 1.829733e+01 
4.414730e+00 1.801974e+01 
4.450350e+00 1.773644e+01 
4.485320e+00 1.746427e+01 
4.519810e+00 1.720159e+01 
4.555430e+00 1.693605e+01 
4.590870e+00 1.667747e+01 
4.625480e+00 1.643023e+01 
4.659910e+00 1.618926e+01 
4.695230e+00 1.594758e+01 
4.729960e+00 1.571483e+01 
4.764450e+00 1.548837e+01 
4.799530e+00 1.526276e+01 
4.834910e+00 1.503977e+01 
4.869700e+00 1.482516e+01 
4.904370e+00 1.461552e+01 
4.939450e+00 1.440763e+01 
4.973940e+00 1.420750e+01 
5.008430e+00 1.401116e+01 
5.043810e+00 1.381377e+01 
5.078840e+00 1.362217e+01 
5.113500e+00 1.343616e+01 
5.148890e+00 1.325033e+01 
5.184210e+00 1.306838e+01 
5.219060e+00 1.289230e+01 
5.253660e+00 1.272102e+01 
5.288570e+00 1.255133e+01 
5.323420e+00 1.238519e+01 
5.358440e+00 1.222146e+01 
5.393590e+00 1.206007e+01 
5.428310e+00 1.190388e+01 
5.462800e+00 1.175164e+01 
5.497640e+00 1.160054e+01 
5.532670e+00 1.145169e+01 
5.567280e+00 1.130731e+01 
5.602000e+00 1.116494e+01 
5.637270e+00 1.102316e+01 
5.672410e+00 1.088441e+01 
5.707020e+00 1.075006e+01 
5.742040e+00 1.061690e+01 
5.777430e+00 1.048472e+01 
5.812210e+00 1.035698e+01 
5.846820e+00 1.023224e+01 
5.881610e+00 1.010898e+01 
5.916510e+00 9.987355e+00 
5.951600e+00 9.867418e+00 
5.986560e+00 9.750026e+00 
6.021830e+00 9.633508e+00 
6.056490e+00 9.521138e+00 
6.091160e+00 9.410762e+00 
6.125830e+00 9.302119e+00 
6.161090e+00 9.193497e+00 
6.195760e+00 9.088647e+00 
6.230420e+00 8.985444e+00 
6.265690e+00 8.882069e+00 
6.300950e+00 8.780803e+00 
6.335620e+00 8.682755e+00 
6.370880e+00 8.584557e+00 
6.405550e+00 8.489748e+00 
6.440220e+00 8.396470e+00 
6.475480e+00 8.303027e+00 
6.510150e+00 8.212653e+00 
6.544810e+00 8.123943e+00 
6.580080e+00 8.035001e+00 
6.614750e+00 7.948856e+00 
6.649410e+00 7.864324e+00 
6.684080e+00 7.781051e+00 
6.719340e+00 7.697585e+00 
6.754010e+00 7.616824e+00 
6.788680e+00 7.537514e+00 
6.823940e+00 7.458000e+00 
6.859800e+00 7.378296e+00 
6.894470e+00 7.302582e+00 
6.929140e+00 7.228009e+00 
6.963800e+00 7.154488e+00 
6.999070e+00 7.080732e+00 
7.033730e+00 7.009571e+00 
7.068400e+00 6.939359e+00 
7.103660e+00 6.868927e+00 
7.138330e+00 6.800727e+00 
7.173600e+00 6.732518e+00 
7.208260e+00 6.666391e+00 
7.243530e+00 6.600001e+00 
7.277600e+00 6.536880e+00 
7.312860e+00 6.472560e+00 
7.348120e+00 6.409096e+00 
7.382790e+00 6.347515e+00 
7.417460e+00 6.286982e+00 
7.452720e+00 6.226348e+00 
7.487390e+00 6.167501e+00 
7.522650e+00 6.108425e+00 
7.557320e+00 6.051262e+00 
7.591990e+00 5.994890e+00 
7.627250e+00 5.938288e+00 
7.662510e+00 5.882409e+00 
7.697180e+00 5.828371e+00 
7.731850e+00 5.775086e+00 
7.766510e+00 5.722477e+00 
7.801180e+00 5.670501e+00 
7.836440e+00 5.618442e+00 
7.871110e+00 5.567977e+00 
7.906380e+00 5.517267e+00 
7.941040e+00 5.468044e+00 
7.976310e+00 5.418673e+00 
8.011570e+00 5.370048e+00 
8.046240e+00 5.322813e+00 
8.080900e+00 5.276154e+00 
8.115570e+00 5.230084e+00 
8.150830e+00 5.183971e+00 
8.185500e+00 5.139167e+00 
8.220770e+00 5.094126e+00 
8.255430e+00 5.050384e+00 
8.290100e+00 5.007354e+00 
8.324770e+00 4.964847e+00 
8.359430e+00 4.922840e+00 
8.394700e+00 4.880589e+00 
8.429960e+00 4.838942e+00 
8.464630e+00 4.798567e+00 
8.499890e+00 4.757973e+00 
8.534560e+00 4.718512e+00 
8.569200e+00 4.679527e+00 
