# Parameters:
# omega_b = 0.022303, omega_m = 0.124134, n_s = 0.933465, h = 61.614173, w = -1.000000, sigma_8 = 0.818110
# z = 1.300000
#
# k[1/Mpc] # P(k):
8.694000e-04 8.844662e+03 
2.077466e-03 1.814244e+04 
3.285532e-03 2.496117e+04 
4.493598e-03 2.987882e+04 
5.701664e-03 3.326850e+04 
6.909730e-03 3.543522e+04 
8.117797e-03 3.668311e+04 
9.325863e-03 3.716994e+04 
1.053393e-02 3.704665e+04 
1.174199e-02 3.644708e+04 
1.295006e-02 3.545569e+04 
1.415813e-02 3.418092e+04 
1.536619e-02 3.271602e+04 
1.657426e-02 3.112812e+04 
1.778233e-02 2.949632e+04 
1.899039e-02 2.791568e+04 
2.019846e-02 2.637616e+04 
2.140652e-02 2.487686e+04 
2.261459e-02 2.344758e+04 
2.382266e-02 2.211881e+04 
2.503072e-02 2.090360e+04 
2.623879e-02 1.980297e+04 
2.744685e-02 1.881644e+04 
2.865492e-02 1.793884e+04 
2.986299e-02 1.716148e+04 
3.100100e-02 1.651620e+04 
3.220400e-02 1.591508e+04 
3.288100e-02 1.561156e+04 
3.424300e-02 1.506338e+04 
3.555100e-02 1.460177e+04 
3.686000e-02 1.419207e+04 
3.795000e-02 1.388092e+04 
3.929100e-02 1.352617e+04 
4.039800e-02 1.324736e+04 
4.164000e-02 1.294339e+04 
4.294400e-02 1.262099e+04 
4.415000e-02 1.232201e+04 
4.542900e-02 1.199059e+04 
4.660900e-02 1.167913e+04 
4.782300e-02 1.133831e+04 
4.892900e-02 1.102146e+04 
5.031200e-02 1.061332e+04 
5.155900e-02 1.023517e+04 
5.238100e-02 9.983914e+03 
5.378200e-02 9.556278e+03 
5.513400e-02 9.148343e+03 
5.627600e-02 8.812960e+03 
5.735300e-02 8.508956e+03 
5.870100e-02 8.149849e+03 
5.988700e-02 7.856753e+03 
6.113500e-02 7.571835e+03 
6.225900e-02 7.335923e+03 
6.340100e-02 7.114478e+03 
6.480200e-02 6.863521e+03 
6.601100e-02 6.664749e+03 
6.725500e-02 6.475011e+03 
6.829100e-02 6.329066e+03 
6.958600e-02 6.159291e+03 
7.071100e-02 6.024556e+03 
7.192300e-02 5.891530e+03 
7.307400e-02 5.776085e+03 
7.412300e-02 5.679258e+03 
7.550400e-02 5.563388e+03 
7.663100e-02 5.475966e+03 
7.791200e-02 5.383994e+03 
7.912700e-02 5.301193e+03 
8.027600e-02 5.225089e+03 
8.138400e-02 5.152676e+03 
8.272200e-02 5.065029e+03 
8.406100e-02 4.975719e+03 
8.534100e-02 4.886287e+03 
8.653800e-02 4.798435e+03 
8.759800e-02 4.718276e+03 
8.900300e-02 4.607890e+03 
9.009000e-02 4.518839e+03 
9.113300e-02 4.430290e+03 
9.239600e-02 4.321881e+03 
9.358000e-02 4.218489e+03 
9.496100e-02 4.096356e+03 
9.608400e-02 3.998147e+03 
9.727500e-02 3.895725e+03 
9.852600e-02 3.790123e+03 
9.973800e-02 3.691717e+03 
1.009000e-01 3.600822e+03 
1.020900e-01 3.513546e+03 
1.034000e-01 3.422732e+03 
1.046000e-01 3.344501e+03 
1.057200e-01 3.278315e+03 
1.069100e-01 3.211804e+03 
1.082500e-01 3.144542e+03 
1.093900e-01 3.092403e+03 
1.105400e-01 3.043164e+03 
1.116900e-01 2.999575e+03 
1.129600e-01 2.954070e+03 
1.142000e-01 2.913986e+03 
1.153300e-01 2.879175e+03 
1.166400e-01 2.841092e+03 
1.177800e-01 2.808945e+03 
1.190000e-01 2.775448e+03 
1.201200e-01 2.744132e+03 
1.213400e-01 2.710591e+03 
1.227100e-01 2.670603e+03 
1.238900e-01 2.636185e+03 
1.250700e-01 2.599771e+03 
1.263200e-01 2.560970e+03 
1.275500e-01 2.521170e+03 
1.287500e-01 2.482087e+03 
1.299900e-01 2.440804e+03 
1.311300e-01 2.402938e+03 
1.323500e-01 2.362150e+03 
1.335900e-01 2.321328e+03 
1.347100e-01 2.284821e+03 
1.359800e-01 2.244411e+03 
1.372100e-01 2.206255e+03 
1.384300e-01 2.169531e+03 
1.395700e-01 2.136525e+03 
1.407700e-01 2.102666e+03 
1.420300e-01 2.069118e+03 
1.432800e-01 2.036603e+03 
1.444500e-01 2.008166e+03 
1.456300e-01 1.980087e+03 
1.468900e-01 1.951722e+03 
1.480500e-01 1.926445e+03 
1.491700e-01 1.902918e+03 
1.503800e-01 1.878512e+03 
1.516400e-01 1.853736e+03 
1.528200e-01 1.831504e+03 
1.540200e-01 1.809334e+03 
1.551900e-01 1.788349e+03 
1.564300e-01 1.766589e+03 
1.576600e-01 1.745425e+03 
1.588700e-01 1.725001e+03 
1.600900e-01 1.704788e+03 
1.612700e-01 1.685375e+03 
1.625400e-01 1.664877e+03 
1.637600e-01 1.645337e+03 
1.649500e-01 1.626498e+03 
1.662200e-01 1.606703e+03 
1.674000e-01 1.588291e+03 
1.685000e-01 1.571422e+03 
1.697500e-01 1.552394e+03 
1.710300e-01 1.533082e+03 
1.722200e-01 1.515457e+03 
1.734400e-01 1.497406e+03 
1.746400e-01 1.479955e+03 
1.758700e-01 1.462335e+03 
1.770900e-01 1.445067e+03 
1.782700e-01 1.428656e+03 
1.794600e-01 1.412378e+03 
1.807000e-01 1.395705e+03 
1.819100e-01 1.379719e+03 
1.830100e-01 1.365515e+03 
1.842200e-01 1.350159e+03 
1.855000e-01 1.334206e+03 
1.867000e-01 1.319727e+03 
1.879200e-01 1.305251e+03 
1.890900e-01 1.291637e+03 
1.902800e-01 1.278232e+03 
1.915200e-01 1.264491e+03 
1.926900e-01 1.251801e+03 
1.939000e-01 1.239103e+03 
1.951700e-01 1.225991e+03 
1.963100e-01 1.214466e+03 
1.975100e-01 1.202681e+03 
1.987800e-01 1.190406e+03 
2.000100e-01 1.178756e+03 
2.012500e-01 1.167314e+03 
2.023400e-01 1.157402e+03 
2.036100e-01 1.146038e+03 
2.048900e-01 1.134825e+03 
2.060400e-01 1.124901e+03 
2.072200e-01 1.114863e+03 
2.084200e-01 1.104805e+03 
2.096900e-01 1.094318e+03 
2.109200e-01 1.084313e+03 
2.121100e-01 1.074697e+03 
2.132700e-01 1.065450e+03 
2.145200e-01 1.055627e+03 
2.157200e-01 1.046252e+03 
2.168800e-01 1.037278e+03 
2.180700e-01 1.028198e+03 
2.193400e-01 1.018586e+03 
2.206000e-01 1.009078e+03 
2.217500e-01 1.000520e+03 
2.229500e-01 9.917099e+02 
2.241400e-01 9.829199e+02 
2.253500e-01 9.740998e+02 
2.264900e-01 9.659006e+02 
2.277100e-01 9.571538e+02 
2.289900e-01 9.480071e+02 
2.301500e-01 9.398314e+02 
2.313600e-01 9.314150e+02 
2.325600e-01 9.230177e+02 
2.337700e-01 9.146641e+02 
2.350000e-01 9.062873e+02 
2.362000e-01 8.981661e+02 
2.374100e-01 8.900172e+02 
2.386500e-01 8.817786e+02 
2.399100e-01 8.735215e+02 
2.410400e-01 8.661542e+02 
2.422500e-01 8.583581e+02 
2.435000e-01 8.504114e+02 
2.447300e-01 8.426962e+02 
2.458700e-01 8.356365e+02 
2.470600e-01 8.283586e+02 
2.483300e-01 8.206930e+02 
2.495600e-01 8.133920e+02 
2.507600e-01 8.063945e+02 
2.519600e-01 7.994847e+02 
2.532200e-01 7.923221e+02 
2.543700e-01 7.859333e+02 
2.555500e-01 7.795016e+02 
2.568000e-01 7.727727e+02 
2.580100e-01 7.663404e+02 
2.592400e-01 7.599845e+02 
2.604100e-01 7.540561e+02 
2.616100e-01 7.480471e+02 
2.628400e-01 7.419620e+02 
2.640600e-01 7.361064e+02 
2.652200e-01 7.306458e+02 
2.664300e-01 7.250152e+02 
2.676500e-01 7.194045e+02 
2.688400e-01 7.140761e+02 
2.700700e-01 7.086824e+02 
2.712400e-01 7.036099e+02 
2.724800e-01 6.982949e+02 
2.736700e-01 6.933064e+02 
2.748800e-01 6.883463e+02 
2.761000e-01 6.834012e+02 
2.773200e-01 6.785115e+02 
2.785400e-01 6.737003e+02 
2.797000e-01 6.692252e+02 
2.808900e-01 6.646831e+02 
2.821400e-01 6.599643e+02 
2.833900e-01 6.553002e+02 
2.845500e-01 6.510608e+02 
2.857800e-01 6.466131e+02 
2.870300e-01 6.421425e+02 
2.882100e-01 6.379673e+02 
2.893900e-01 6.338546e+02 
2.906300e-01 6.295885e+02 
2.918900e-01 6.253006e+02 
2.930500e-01 6.213941e+02 
2.942500e-01 6.173974e+02 
2.954200e-01 6.135509e+02 
2.966500e-01 6.095486e+02 
2.978900e-01 6.055559e+02 
2.990400e-01 6.018904e+02 
3.002700e-01 5.980141e+02 
3.015100e-01 5.941490e+02 
3.026800e-01 5.905387e+02 
3.038500e-01 5.869636e+02 
3.050300e-01 5.833930e+02 
3.062600e-01 5.797122e+02 
3.075000e-01 5.760391e+02 
3.087000e-01 5.725200e+02 
3.099100e-01 5.690063e+02 
3.111200e-01 5.655295e+02 
3.123100e-01 5.621474e+02 
3.135300e-01 5.587136e+02 
3.147300e-01 5.553689e+02 
3.159900e-01 5.518914e+02 
3.171800e-01 5.486431e+02 
3.183700e-01 5.454279e+02 
3.196300e-01 5.420566e+02 
3.208400e-01 5.388504e+02 
3.220300e-01 5.357269e+02 
3.232000e-01 5.326894e+02 
3.244300e-01 5.295280e+02 
3.256700e-01 5.263713e+02 
3.269200e-01 5.232197e+02 
3.280800e-01 5.203221e+02 
3.292500e-01 5.174341e+02 
3.304800e-01 5.144284e+02 
3.317100e-01 5.114508e+02 
3.328900e-01 5.086202e+02 
3.340700e-01 5.058149e+02 
3.353600e-01 5.027861e+02 
3.365300e-01 5.000678e+02 
3.377100e-01 4.973504e+02 
3.389200e-01 4.945886e+02 
3.401600e-01 4.917840e+02 
3.413700e-01 4.890811e+02 
3.425300e-01 4.865189e+02 
3.437700e-01 4.838040e+02 
3.449800e-01 4.811785e+02 
3.461800e-01 4.785975e+02 
3.473600e-01 4.760858e+02 
3.485800e-01 4.735226e+02 
3.498100e-01 4.709611e+02 
3.510200e-01 4.684633e+02 
3.522000e-01 4.660481e+02 
3.533900e-01 4.636330e+02 
3.546400e-01 4.611325e+02 
3.558400e-01 4.587536e+02 
3.570600e-01 4.563556e+02 
3.582700e-01 4.539975e+02 
3.595000e-01 4.516209e+02 
3.607100e-01 4.493114e+02 
3.618900e-01 4.470847e+02 
3.631200e-01 4.447830e+02 
3.643200e-01 4.425561e+02 
3.655500e-01 4.402926e+02 
3.667300e-01 4.381390e+02 
3.679500e-01 4.359473e+02 
3.691900e-01 4.337382e+02 
3.703600e-01 4.316707e+02 
3.715700e-01 4.295498e+02 
3.727700e-01 4.274633e+02 
3.739900e-01 4.253647e+02 
3.752000e-01 4.233101e+02 
3.763900e-01 4.213056e+02 
3.775800e-01 4.193168e+02 
3.788200e-01 4.172611e+02 
3.800300e-01 4.152712e+02 
3.812100e-01 4.133537e+02 
3.824200e-01 4.114079e+02 
3.836100e-01 4.095093e+02 
3.848600e-01 4.075307e+02 
3.860400e-01 4.056776e+02 
3.872400e-01 4.038075e+02 
3.884600e-01 4.019308e+02 
3.896500e-01 4.001179e+02 
3.908700e-01 3.982737e+02 
3.920600e-01 3.964885e+02 
3.933100e-01 3.946279e+02 
3.945300e-01 3.928260e+02 
3.957200e-01 3.910925e+02 
3.969300e-01 3.893461e+02 
3.981700e-01 3.875701e+02 
3.993500e-01 3.858928e+02 
4.094840e-01 3.720177e+02 
4.272360e-01 3.499248e+02 
4.454600e-01 3.296728e+02 
4.630560e-01 3.120868e+02 
4.804610e-01 2.963196e+02 
4.980690e-01 2.817944e+02 
5.159230e-01 2.683391e+02 
5.317440e-01 2.573701e+02 
5.489640e-01 2.463381e+02 
5.671990e-01 2.355894e+02 
5.838690e-01 2.265168e+02 
6.018840e-01 2.174411e+02 
6.202330e-01 2.089054e+02 
6.379250e-01 2.012751e+02 
6.545410e-01 1.946142e+02 
6.714560e-01 1.882695e+02 
6.892080e-01 1.820550e+02 
7.066010e-01 1.763676e+02 
7.240540e-01 1.710127e+02 
7.420450e-01 1.658429e+02 
7.593780e-01 1.611601e+02 
7.764720e-01 1.568014e+02 
7.942840e-01 1.525124e+02 
8.116170e-01 1.485688e+02 
8.288310e-01 1.448548e+02 
8.462240e-01 1.412919e+02 
8.631980e-01 1.379792e+02 
8.810700e-01 1.346561e+02 
8.989410e-01 1.314871e+02 
9.166330e-01 1.284922e+02 
9.345640e-01 1.255938e+02 
9.515980e-01 1.229512e+02 
9.688720e-01 1.203759e+02 
9.865640e-01 1.178417e+02 
1.031870e+00 1.117786e+02 
1.063490e+00 1.078694e+02 
1.097920e+00 1.038822e+02 
1.134370e+00 9.992708e+01 
1.167730e+00 9.652708e+01 
1.203830e+00 9.305094e+01 
1.240470e+00 8.973116e+01 
1.275790e+00 8.670270e+01 
1.309140e+00 8.399566e+01 
1.342970e+00 8.137029e+01 
1.378420e+00 7.875983e+01 
1.413200e+00 7.631889e+01 
1.448110e+00 7.398216e+01 
1.484090e+00 7.168601e+01 
1.518820e+00 6.956874e+01 
1.552880e+00 6.758003e+01 
1.588630e+00 6.558201e+01 
1.623230e+00 6.373131e+01 
1.657720e+00 6.196014e+01 
1.692450e+00 6.025186e+01 
1.726400e+00 5.864416e+01 
1.762200e+00 5.701372e+01 
1.797880e+00 5.545451e+01 
1.833270e+00 5.396826e+01 
1.869070e+00 5.252137e+01 
1.903200e+00 5.119405e+01 
1.937740e+00 4.989937e+01 
1.973190e+00 4.861810e+01 
2.007440e+00 4.742528e+01 
2.042160e+00 4.625766e+01 
2.077900e+00 4.509671e+01 
2.112390e+00 4.401696e+01 
2.146220e+00 4.299076e+01 
2.181600e+00 4.195397e+01 
2.216930e+00 4.095337e+01 
2.250760e+00 4.002664e+01 
2.286500e+00 3.907943e+01 
2.321770e+00 3.817527e+01 
2.355950e+00 3.732743e+01 
2.391280e+00 3.647615e+01 
2.426240e+00 3.566069e+01 
2.460670e+00 3.488307e+01 
2.495640e+00 3.411799e+01 
2.531080e+00 3.336437e+01 
2.566220e+00 3.263954e+01 
2.600830e+00 3.194741e+01 
2.635080e+00 3.128317e+01 
2.670340e+00 3.061814e+01 
2.705970e+00 2.996595e+01 
2.740040e+00 2.936033e+01 
2.774520e+00 2.876357e+01 
2.809730e+00 2.817115e+01 
2.844390e+00 2.760489e+01 
2.879960e+00 2.704018e+01 
2.914860e+00 2.650076e+01 
2.949410e+00 2.598157e+01 
2.984440e+00 2.546901e+01 
3.019760e+00 2.496585e+01 
3.054730e+00 2.448129e+01 
3.089030e+00 2.401805e+01 
3.124060e+00 2.355759e+01 
3.159560e+00 2.310311e+01 
3.194710e+00 2.266476e+01 
3.229010e+00 2.224842e+01 
3.263320e+00 2.184138e+01 
3.297930e+00 2.144138e+01 
3.332830e+00 2.104783e+01 
3.368040e+00 2.066088e+01 
3.403300e+00 2.028335e+01 
3.438450e+00 1.991605e+01 
3.473060e+00 1.956365e+01 
3.508440e+00 1.921131e+01 
3.543110e+00 1.887488e+01 
3.577470e+00 1.854937e+01 
3.613040e+00 1.822057e+01 
3.648120e+00 1.790343e+01 
3.682910e+00 1.759657e+01 
3.718050e+00 1.729392e+01 
3.753320e+00 1.699736e+01 
3.787980e+00 1.671257e+01 
3.822290e+00 1.643714e+01 
3.857020e+00 1.616456e+01 
3.891920e+00 1.589688e+01 
3.926650e+00 1.563629e+01 
3.961970e+00 1.537744e+01 
3.997360e+00 1.512401e+01 
4.031670e+00 1.488388e+01 
4.066330e+00 1.464636e+01 
4.101420e+00 1.441133e+01 
4.136200e+00 1.418320e+01 
4.170810e+00 1.396124e+01 
4.206250e+00 1.373877e+01 
4.241580e+00 1.352190e+01 
4.276300e+00 1.331335e+01 
4.310970e+00 1.310955e+01 
4.346120e+00 1.290733e+01 
4.380600e+00 1.271309e+01 
4.414730e+00 1.252484e+01 
4.450350e+00 1.233245e+01 
4.485320e+00 1.214758e+01 
4.519810e+00 1.196897e+01 
4.555430e+00 1.178832e+01 
4.590870e+00 1.161233e+01 
4.625480e+00 1.144394e+01 
4.659910e+00 1.127979e+01 
4.695230e+00 1.111491e+01 
4.729960e+00 1.095606e+01 
4.764450e+00 1.080141e+01 
4.799530e+00 1.064721e+01 
4.834910e+00 1.049477e+01 
4.869700e+00 1.034789e+01 
4.904370e+00 1.020436e+01 
4.939450e+00 1.006197e+01 
4.973940e+00 9.924751e+00 
5.008430e+00 9.790112e+00 
5.043810e+00 9.654642e+00 
5.078840e+00 9.523069e+00 
5.113500e+00 9.395310e+00 
5.148890e+00 9.267497e+00 
5.184210e+00 9.142325e+00 
5.219060e+00 9.021141e+00 
5.253660e+00 8.903145e+00 
5.288570e+00 8.786235e+00 
5.323420e+00 8.671697e+00 
5.358440e+00 8.558741e+00 
5.393590e+00 8.447390e+00 
5.428310e+00 8.339516e+00 
5.462800e+00 8.234310e+00 
5.497640e+00 8.129879e+00 
5.532670e+00 8.026891e+00 
5.567280e+00 7.926949e+00 
5.602000e+00 7.828395e+00 
5.637270e+00 7.730163e+00 
5.672410e+00 7.634005e+00 
5.707020e+00 7.540891e+00 
5.742040e+00 7.448497e+00 
5.777430e+00 7.356745e+00 
5.812210e+00 7.268074e+00 
5.846820e+00 7.181421e+00 
5.881610e+00 7.095771e+00 
5.916510e+00 7.011246e+00 
5.951600e+00 6.927822e+00 
5.986560e+00 6.846130e+00 
6.021830e+00 6.765041e+00 
6.056490e+00 6.686789e+00 
6.091160e+00 6.609881e+00 
6.125830e+00 6.534176e+00 
6.161090e+00 6.458464e+00 
6.195760e+00 6.385337e+00 
6.230420e+00 6.313355e+00 
6.265690e+00 6.241247e+00 
6.300950e+00 6.170538e+00 
6.335620e+00 6.102073e+00 
6.370880e+00 6.033501e+00 
6.405550e+00 5.967258e+00 
6.440220e+00 5.902070e+00 
6.475480e+00 5.836763e+00 
6.510150e+00 5.773580e+00 
6.544810e+00 5.711516e+00 
6.580080e+00 5.649288e+00 
6.614750e+00 5.589014e+00 
6.649410e+00 5.529842e+00 
6.684080e+00 5.471544e+00 
6.719340e+00 5.413109e+00 
6.754010e+00 5.356553e+00 
6.788680e+00 5.300980e+00 
6.823940e+00 5.245262e+00 
6.859800e+00 5.189410e+00 
6.894470e+00 5.136337e+00 
6.929140e+00 5.084057e+00 
6.963800e+00 5.032514e+00 
6.999070e+00 4.980803e+00 
7.033730e+00 4.930889e+00 
7.068400e+00 4.881638e+00 
7.103660e+00 4.832233e+00 
7.138330e+00 4.784388e+00 
7.173600e+00 4.736525e+00 
7.208260e+00 4.690122e+00 
7.243530e+00 4.643535e+00 
7.277600e+00 4.599235e+00 
7.312860e+00 4.554089e+00 
7.348120e+00 4.509544e+00 
7.382790e+00 4.466319e+00 
7.417460e+00 4.423814e+00 
7.452720e+00 4.381230e+00 
7.487390e+00 4.339901e+00 
7.522650e+00 4.298410e+00 
7.557320e+00 4.258269e+00 
7.591990e+00 4.218684e+00 
7.627250e+00 4.178937e+00 
7.662510e+00 4.139698e+00 
7.697180e+00 4.101746e+00 
7.731850e+00 4.064323e+00 
7.766510e+00 4.027373e+00 
7.801180e+00 3.990868e+00 
7.836440e+00 3.954311e+00 
7.871110e+00 3.918876e+00 
7.906380e+00 3.883270e+00 
7.941040e+00 3.848707e+00 
7.976310e+00 3.814042e+00 
8.011570e+00 3.779901e+00 
8.046240e+00 3.746736e+00 
8.080900e+00 3.713974e+00 
8.115570e+00 3.681628e+00 
8.150830e+00 3.649260e+00 
8.185500e+00 3.617810e+00 
8.220770e+00 3.586193e+00 
8.255430e+00 3.555487e+00 
8.290100e+00 3.525287e+00 
8.324770e+00 3.495453e+00 
8.359430e+00 3.465971e+00 
8.394700e+00 3.436316e+00 
8.429960e+00 3.407093e+00 
8.464630e+00 3.378770e+00 
8.499890e+00 3.350293e+00 
8.534560e+00 3.322610e+00 
8.569200e+00 3.295261e+00 
