# Parameters:
# omega_b = 0.021579, omega_m = 0.148110, n_s = 0.872047, h = 67.519685, w = -1.000000, sigma_8 = 0.852756
# z = 1.300000
#
# k[1/Mpc] # P(k):
8.694000e-04 6.612412e+03 
2.077466e-03 1.308700e+04 
3.285532e-03 1.784404e+04 
4.493598e-03 2.135831e+04 
5.701664e-03 2.388459e+04 
6.909730e-03 2.561390e+04 
8.117797e-03 2.673544e+04 
9.325863e-03 2.734783e+04 
1.053393e-02 2.754588e+04 
1.174199e-02 2.741384e+04 
1.295006e-02 2.700401e+04 
1.415813e-02 2.638366e+04 
1.536619e-02 2.560917e+04 
1.657426e-02 2.471693e+04 
1.778233e-02 2.373590e+04 
1.899039e-02 2.271150e+04 
2.019846e-02 2.167664e+04 
2.140652e-02 2.066192e+04 
2.261459e-02 1.967812e+04 
2.382266e-02 1.873958e+04 
2.503072e-02 1.785796e+04 
2.623879e-02 1.703763e+04 
2.744685e-02 1.627940e+04 
2.865492e-02 1.558610e+04 
2.986299e-02 1.495522e+04 
3.100100e-02 1.441618e+04 
3.220400e-02 1.390088e+04 
3.288100e-02 1.363478e+04 
3.424300e-02 1.314541e+04 
3.555100e-02 1.272575e+04 
3.686000e-02 1.234884e+04 
3.795000e-02 1.206189e+04 
3.929100e-02 1.173754e+04 
4.039800e-02 1.148735e+04 
4.164000e-02 1.122048e+04 
4.294400e-02 1.094841e+04 
4.415000e-02 1.070300e+04 
4.542900e-02 1.044074e+04 
4.660900e-02 1.019941e+04 
4.782300e-02 9.941705e+03 
4.892900e-02 9.704342e+03 
5.031200e-02 9.400556e+03 
5.155900e-02 9.119074e+03 
5.238100e-02 8.931063e+03 
5.378200e-02 8.608010e+03 
5.513400e-02 8.293364e+03 
5.627600e-02 8.027633e+03 
5.735300e-02 7.779154e+03 
5.870100e-02 7.473025e+03 
5.988700e-02 7.210737e+03 
6.113500e-02 6.943212e+03 
6.225900e-02 6.711602e+03 
6.340100e-02 6.487149e+03 
6.480200e-02 6.228133e+03 
6.601100e-02 6.021258e+03 
6.725500e-02 5.824883e+03 
6.829100e-02 5.675271e+03 
6.958600e-02 5.503216e+03 
7.071100e-02 5.368067e+03 
7.192300e-02 5.235630e+03 
7.307400e-02 5.121446e+03 
7.412300e-02 5.026218e+03 
7.550400e-02 4.913244e+03 
7.663100e-02 4.828893e+03 
7.791200e-02 4.741976e+03 
7.912700e-02 4.665993e+03 
8.027600e-02 4.598167e+03 
8.138400e-02 4.535454e+03 
8.272200e-02 4.462118e+03 
8.406100e-02 4.389958e+03 
8.534100e-02 4.320250e+03 
8.653800e-02 4.253333e+03 
8.759800e-02 4.192935e+03 
8.900300e-02 4.110441e+03 
9.009000e-02 4.044062e+03 
9.113300e-02 3.977754e+03 
9.239600e-02 3.896067e+03 
9.358000e-02 3.817300e+03 
9.496100e-02 3.722478e+03 
9.608400e-02 3.644943e+03 
9.727500e-02 3.562992e+03 
9.852600e-02 3.475579e+03 
9.973800e-02 3.392591e+03 
1.009000e-01 3.314667e+03 
1.020900e-01 3.236614e+03 
1.034000e-01 3.153814e+03 
1.046000e-01 3.080821e+03 
1.057200e-01 3.016336e+03 
1.069100e-01 2.950584e+03 
1.082500e-01 2.881349e+03 
1.093900e-01 2.826210e+03 
1.105400e-01 2.773251e+03 
1.116900e-01 2.724803e+03 
1.129600e-01 2.673877e+03 
1.142000e-01 2.628457e+03 
1.153300e-01 2.589325e+03 
1.166400e-01 2.546982e+03 
1.177800e-01 2.512628e+03 
1.190000e-01 2.477483e+03 
1.201200e-01 2.447213e+03 
1.213400e-01 2.415239e+03 
1.227100e-01 2.381088e+03 
1.238900e-01 2.352409e+03 
1.250700e-01 2.324296e+03 
1.263200e-01 2.294964e+03 
1.275500e-01 2.266227e+03 
1.287500e-01 2.238316e+03 
1.299900e-01 2.209311e+03 
1.311300e-01 2.182535e+03 
1.323500e-01 2.153450e+03 
1.335900e-01 2.123738e+03 
1.347100e-01 2.096401e+03 
1.359800e-01 2.065402e+03 
1.372100e-01 2.034699e+03 
1.384300e-01 2.004437e+03 
1.395700e-01 1.975584e+03 
1.407700e-01 1.945753e+03 
1.420300e-01 1.913921e+03 
1.432800e-01 1.883076e+03 
1.444500e-01 1.854170e+03 
1.456300e-01 1.825649e+03 
1.468900e-01 1.795930e+03 
1.480500e-01 1.769188e+03 
1.491700e-01 1.744157e+03 
1.503800e-01 1.718005e+03 
1.516400e-01 1.691565e+03 
1.528200e-01 1.668208e+03 
1.540200e-01 1.644937e+03 
1.551900e-01 1.623709e+03 
1.564300e-01 1.601902e+03 
1.576600e-01 1.581251e+03 
1.588700e-01 1.561987e+03 
1.600900e-01 1.542985e+03 
1.612700e-01 1.525855e+03 
1.625400e-01 1.507766e+03 
1.637600e-01 1.491053e+03 
1.649500e-01 1.475242e+03 
1.662200e-01 1.458697e+03 
1.674000e-01 1.443705e+03 
1.685000e-01 1.429965e+03 
1.697500e-01 1.414494e+03 
1.710300e-01 1.398819e+03 
1.722200e-01 1.384506e+03 
1.734400e-01 1.369617e+03 
1.746400e-01 1.355208e+03 
1.758700e-01 1.340514e+03 
1.770900e-01 1.325827e+03 
1.782700e-01 1.311863e+03 
1.794600e-01 1.297728e+03 
1.807000e-01 1.283057e+03 
1.819100e-01 1.268987e+03 
1.830100e-01 1.256129e+03 
1.842200e-01 1.242165e+03 
1.855000e-01 1.227643e+03 
1.867000e-01 1.214119e+03 
1.879200e-01 1.200598e+03 
1.890900e-01 1.187847e+03 
1.902800e-01 1.175097e+03 
1.915200e-01 1.162030e+03 
1.926900e-01 1.149937e+03 
1.939000e-01 1.137749e+03 
1.951700e-01 1.125167e+03 
1.963100e-01 1.114107e+03 
1.975100e-01 1.102793e+03 
1.987800e-01 1.091009e+03 
2.000100e-01 1.079849e+03 
2.012500e-01 1.068937e+03 
2.023400e-01 1.059487e+03 
2.036100e-01 1.048679e+03 
2.048900e-01 1.038114e+03 
2.060400e-01 1.028764e+03 
2.072200e-01 1.019318e+03 
2.084200e-01 1.009981e+03 
2.096900e-01 1.000246e+03 
2.109200e-01 9.909602e+02 
2.121100e-01 9.821661e+02 
2.132700e-01 9.737162e+02 
2.145200e-01 9.647400e+02 
2.157200e-01 9.562610e+02 
2.168800e-01 9.481840e+02 
2.180700e-01 9.400109e+02 
2.193400e-01 9.314024e+02 
2.206000e-01 9.229680e+02 
2.217500e-01 9.153757e+02 
2.229500e-01 9.075588e+02 
2.241400e-01 8.998693e+02 
2.253500e-01 8.921549e+02 
2.264900e-01 8.849823e+02 
2.277100e-01 8.773826e+02 
2.289900e-01 8.694923e+02 
2.301500e-01 8.624379e+02 
2.313600e-01 8.551749e+02 
2.325600e-01 8.480267e+02 
2.337700e-01 8.409134e+02 
2.350000e-01 8.337781e+02 
2.362000e-01 8.268973e+02 
2.374100e-01 8.200363e+02 
2.386500e-01 8.130972e+02 
2.399100e-01 8.061397e+02 
2.410400e-01 7.999764e+02 
2.422500e-01 7.934578e+02 
2.435000e-01 7.868103e+02 
2.447300e-01 7.803578e+02 
2.458700e-01 7.744672e+02 
2.470600e-01 7.683921e+02 
2.483300e-01 7.619905e+02 
2.495600e-01 7.558823e+02 
2.507600e-01 7.500142e+02 
2.519600e-01 7.442171e+02 
2.532200e-01 7.382054e+02 
2.543700e-01 7.328095e+02 
2.555500e-01 7.273537e+02 
2.568000e-01 7.216437e+02 
2.580100e-01 7.161834e+02 
2.592400e-01 7.107313e+02 
2.604100e-01 7.056199e+02 
2.616100e-01 7.004377e+02 
2.628400e-01 6.951881e+02 
2.640600e-01 6.900721e+02 
2.652200e-01 6.852747e+02 
2.664300e-01 6.803268e+02 
2.676500e-01 6.753954e+02 
2.688400e-01 6.706601e+02 
2.700700e-01 6.658339e+02 
2.712400e-01 6.612944e+02 
2.724800e-01 6.565371e+02 
2.736700e-01 6.520375e+02 
2.748800e-01 6.475278e+02 
2.761000e-01 6.430314e+02 
2.773200e-01 6.385848e+02 
2.785400e-01 6.341932e+02 
2.797000e-01 6.300742e+02 
2.808900e-01 6.258933e+02 
2.821400e-01 6.215495e+02 
2.833900e-01 6.172544e+02 
2.845500e-01 6.133192e+02 
2.857800e-01 6.091905e+02 
2.870300e-01 6.050405e+02 
2.882100e-01 6.011644e+02 
2.893900e-01 5.973329e+02 
2.906300e-01 5.933513e+02 
2.918900e-01 5.893491e+02 
2.930500e-01 5.857029e+02 
2.942500e-01 5.819695e+02 
2.954200e-01 5.783675e+02 
2.966500e-01 5.746193e+02 
2.978900e-01 5.708802e+02 
2.990400e-01 5.674474e+02 
3.002700e-01 5.638121e+02 
3.015100e-01 5.601850e+02 
3.026800e-01 5.567970e+02 
3.038500e-01 5.534419e+02 
3.050300e-01 5.500909e+02 
3.062600e-01 5.466319e+02 
3.075000e-01 5.431802e+02 
3.087000e-01 5.398730e+02 
3.099100e-01 5.365710e+02 
3.111200e-01 5.333025e+02 
3.123100e-01 5.301210e+02 
3.135300e-01 5.268910e+02 
3.147300e-01 5.237447e+02 
3.159900e-01 5.204735e+02 
3.171800e-01 5.174161e+02 
3.183700e-01 5.143888e+02 
3.196300e-01 5.112145e+02 
3.208400e-01 5.081956e+02 
3.220300e-01 5.052546e+02 
3.232000e-01 5.023935e+02 
3.244300e-01 4.994152e+02 
3.256700e-01 4.964414e+02 
3.269200e-01 4.934724e+02 
3.280800e-01 4.907426e+02 
3.292500e-01 4.880210e+02 
3.304800e-01 4.851882e+02 
3.317100e-01 4.823818e+02 
3.328900e-01 4.797141e+02 
3.340700e-01 4.770701e+02 
3.353600e-01 4.742149e+02 
3.365300e-01 4.716524e+02 
3.377100e-01 4.690906e+02 
3.389200e-01 4.664871e+02 
3.401600e-01 4.638431e+02 
3.413700e-01 4.612953e+02 
3.425300e-01 4.588802e+02 
3.437700e-01 4.563211e+02 
3.449800e-01 4.538463e+02 
3.461800e-01 4.514134e+02 
3.473600e-01 4.490461e+02 
3.485800e-01 4.466306e+02 
3.498100e-01 4.442167e+02 
3.510200e-01 4.418628e+02 
3.522000e-01 4.395868e+02 
3.533900e-01 4.373108e+02 
3.546400e-01 4.349558e+02 
3.558400e-01 4.327153e+02 
3.570600e-01 4.304569e+02 
3.582700e-01 4.282360e+02 
3.595000e-01 4.259976e+02 
3.607100e-01 4.238233e+02 
3.618900e-01 4.217275e+02 
3.631200e-01 4.195610e+02 
3.643200e-01 4.174650e+02 
3.655500e-01 4.153345e+02 
3.667300e-01 4.133075e+02 
3.679500e-01 4.112463e+02 
3.691900e-01 4.091688e+02 
3.703600e-01 4.072245e+02 
3.715700e-01 4.052298e+02 
3.727700e-01 4.032677e+02 
3.739900e-01 4.012947e+02 
3.752000e-01 3.993644e+02 
3.763900e-01 3.974811e+02 
3.775800e-01 3.956126e+02 
3.788200e-01 3.936811e+02 
3.800300e-01 3.918116e+02 
3.812100e-01 3.900109e+02 
3.824200e-01 3.881845e+02 
3.836100e-01 3.864022e+02 
3.848600e-01 3.845449e+02 
3.860400e-01 3.828053e+02 
3.872400e-01 3.810498e+02 
3.884600e-01 3.792893e+02 
3.896500e-01 3.775892e+02 
3.908700e-01 3.758596e+02 
3.920600e-01 3.741855e+02 
3.933100e-01 3.724405e+02 
3.945300e-01 3.707507e+02 
3.957200e-01 3.691261e+02 
3.969300e-01 3.674898e+02 
3.981700e-01 3.658257e+02 
3.993500e-01 3.642541e+02 
4.094840e-01 3.512576e+02 
4.272360e-01 3.305851e+02 
4.454600e-01 3.116385e+02 
4.630560e-01 2.951772e+02 
4.804610e-01 2.804016e+02 
4.980690e-01 2.667682e+02 
5.159230e-01 2.541178e+02 
5.317440e-01 2.437879e+02 
5.489640e-01 2.333835e+02 
5.671990e-01 2.232303e+02 
5.838690e-01 2.146499e+02 
6.018840e-01 2.060581e+02 
6.202330e-01 1.979710e+02 
6.379250e-01 1.907376e+02 
6.545410e-01 1.844211e+02 
6.714560e-01 1.784036e+02 
6.892080e-01 1.725088e+02 
7.066010e-01 1.671148e+02 
7.240540e-01 1.620368e+02 
7.420450e-01 1.571365e+02 
7.593780e-01 1.527001e+02 
7.764720e-01 1.485719e+02 
7.942840e-01 1.445120e+02 
8.116170e-01 1.407812e+02 
8.288310e-01 1.372704e+02 
8.462240e-01 1.339037e+02 
8.631980e-01 1.307760e+02 
8.810700e-01 1.276402e+02 
8.989410e-01 1.246522e+02 
9.166330e-01 1.218301e+02 
9.345640e-01 1.190996e+02 
9.515980e-01 1.166126e+02 
9.688720e-01 1.141903e+02 
9.865640e-01 1.118082e+02 
1.031870e+00 1.061135e+02 
1.063490e+00 1.024452e+02 
1.097920e+00 9.870661e+01 
1.134370e+00 9.500027e+01 
1.167730e+00 9.181598e+01 
1.203830e+00 8.856190e+01 
1.240470e+00 8.545497e+01 
1.275790e+00 8.262095e+01 
1.309140e+00 8.008806e+01 
1.342970e+00 7.763174e+01 
1.378420e+00 7.518920e+01 
1.413200e+00 7.290501e+01 
1.448110e+00 7.071739e+01 
1.484090e+00 6.856792e+01 
1.518820e+00 6.658503e+01 
1.552880e+00 6.472166e+01 
1.588630e+00 6.284875e+01 
1.623230e+00 6.111344e+01 
1.657720e+00 5.945243e+01 
1.692450e+00 5.784913e+01 
1.726400e+00 5.633940e+01 
1.762200e+00 5.480775e+01 
1.797880e+00 5.334230e+01 
1.833270e+00 5.194472e+01 
1.869070e+00 5.058342e+01 
1.903200e+00 4.933392e+01 
1.937740e+00 4.811440e+01 
1.973190e+00 4.690686e+01 
2.007440e+00 4.578193e+01 
2.042160e+00 4.468021e+01 
2.077900e+00 4.358432e+01 
2.112390e+00 4.256423e+01 
2.146220e+00 4.159433e+01 
2.181600e+00 4.061378e+01 
2.216930e+00 3.966692e+01 
2.250760e+00 3.878947e+01 
2.286500e+00 3.789212e+01 
2.321770e+00 3.703507e+01 
2.355950e+00 3.623080e+01 
2.391280e+00 3.542294e+01 
2.426240e+00 3.464857e+01 
2.460670e+00 3.390969e+01 
2.495640e+00 3.318237e+01 
2.531080e+00 3.246551e+01 
2.566220e+00 3.177569e+01 
2.600830e+00 3.111661e+01 
2.635080e+00 3.048369e+01 
2.670340e+00 2.984947e+01 
2.705970e+00 2.922728e+01 
2.740040e+00 2.864931e+01 
2.774520e+00 2.807946e+01 
2.809730e+00 2.751341e+01 
2.844390e+00 2.697205e+01 
2.879960e+00 2.643176e+01 
2.914860e+00 2.591548e+01 
2.949410e+00 2.541836e+01 
2.984440e+00 2.492722e+01 
3.019760e+00 2.444492e+01 
3.054730e+00 2.398032e+01 
3.089030e+00 2.353568e+01 
3.124060e+00 2.309358e+01 
3.159560e+00 2.265704e+01 
3.194710e+00 2.223570e+01 
3.229010e+00 2.183538e+01 
3.263320e+00 2.144372e+01 
3.297930e+00 2.105871e+01 
3.332830e+00 2.067974e+01 
3.368040e+00 2.030691e+01 
3.403300e+00 1.994299e+01 
3.438450e+00 1.958869e+01 
3.473060e+00 1.924866e+01 
3.508440e+00 1.890852e+01 
3.543110e+00 1.858363e+01 
3.577470e+00 1.826898e+01 
3.613040e+00 1.795109e+01 
3.648120e+00 1.764440e+01 
3.682910e+00 1.734751e+01 
3.718050e+00 1.705448e+01 
3.753320e+00 1.676725e+01 
3.787980e+00 1.649132e+01 
3.822290e+00 1.622434e+01 
3.857020e+00 1.596000e+01 
3.891920e+00 1.570031e+01 
3.926650e+00 1.544737e+01 
3.961970e+00 1.519602e+01 
3.997360e+00 1.494978e+01 
4.031670e+00 1.471641e+01 
4.066330e+00 1.448547e+01 
4.101420e+00 1.425692e+01 
4.136200e+00 1.403491e+01 
4.170810e+00 1.381888e+01 
4.206250e+00 1.360224e+01 
4.241580e+00 1.339101e+01 
4.276300e+00 1.318777e+01 
4.310970e+00 1.298907e+01 
4.346120e+00 1.279185e+01 
4.380600e+00 1.260233e+01 
4.414730e+00 1.241864e+01 
4.450350e+00 1.223078e+01 
4.485320e+00 1.205024e+01 
4.519810e+00 1.187571e+01 
4.555430e+00 1.169914e+01 
4.590870e+00 1.152708e+01 
4.625480e+00 1.136238e+01 
4.659910e+00 1.120181e+01 
4.695230e+00 1.104042e+01 
4.729960e+00 1.088489e+01 
4.764450e+00 1.073342e+01 
4.799530e+00 1.058232e+01 
4.834910e+00 1.043293e+01 
4.869700e+00 1.028892e+01 
4.904370e+00 1.014817e+01 
4.939450e+00 1.000850e+01 
4.973940e+00 9.873841e+00 
5.008430e+00 9.741700e+00 
5.043810e+00 9.608689e+00 
5.078840e+00 9.479470e+00 
5.113500e+00 9.353983e+00 
5.148890e+00 9.228352e+00 
5.184210e+00 9.105300e+00 
5.219060e+00 8.986144e+00 
5.253660e+00 8.870075e+00 
5.288570e+00 8.755063e+00 
5.323420e+00 8.642352e+00 
5.358440e+00 8.531165e+00 
5.393590e+00 8.421546e+00 
5.428310e+00 8.315299e+00 
5.462800e+00 8.211650e+00 
5.497640e+00 8.108753e+00 
5.532670e+00 8.007228e+00 
5.567280e+00 7.908683e+00 
5.602000e+00 7.811497e+00 
5.637270e+00 7.714591e+00 
5.672410e+00 7.619715e+00 
5.707020e+00 7.527834e+00 
5.742040e+00 7.436615e+00 
5.777430e+00 7.346013e+00 
5.812210e+00 7.258447e+00 
5.846820e+00 7.172843e+00 
5.881610e+00 7.088216e+00 
5.916510e+00 7.004694e+00 
5.951600e+00 6.922225e+00 
5.986560e+00 6.841450e+00 
6.021830e+00 6.761264e+00 
6.056490e+00 6.683856e+00 
6.091160e+00 6.607754e+00 
6.125830e+00 6.532836e+00 
6.161090e+00 6.457898e+00 
6.195760e+00 6.385497e+00 
6.230420e+00 6.314224e+00 
6.265690e+00 6.242820e+00 
6.300950e+00 6.172759e+00 
6.335620e+00 6.104916e+00 
6.370880e+00 6.036962e+00 
6.405550e+00 5.971299e+00 
6.440220e+00 5.906671e+00 
6.475480e+00 5.841922e+00 
6.510150e+00 5.779264e+00 
6.544810e+00 5.717690e+00 
6.580080e+00 5.655950e+00 
6.614750e+00 5.596145e+00 
6.649410e+00 5.537412e+00 
6.684080e+00 5.479540e+00 
6.719340e+00 5.421527e+00 
6.754010e+00 5.365369e+00 
6.788680e+00 5.310162e+00 
6.823940e+00 5.254809e+00 
6.859800e+00 5.199320e+00 
6.894470e+00 5.146574e+00 
6.929140e+00 5.094608e+00 
6.963800e+00 5.043371e+00 
6.999070e+00 4.991964e+00 
7.033730e+00 4.942325e+00 
7.068400e+00 4.893344e+00 
7.103660e+00 4.844207e+00 
7.138330e+00 4.796613e+00 
7.173600e+00 4.748987e+00 
7.208260e+00 4.702812e+00 
7.243530e+00 4.656450e+00 
7.277600e+00 4.612353e+00 
7.312860e+00 4.567402e+00 
7.348120e+00 4.523047e+00 
7.382790e+00 4.480004e+00 
7.417460e+00 4.437662e+00 
7.452720e+00 4.395232e+00 
7.487390e+00 4.354051e+00 
7.522650e+00 4.312707e+00 
7.557320e+00 4.272697e+00 
7.591990e+00 4.233239e+00 
7.627250e+00 4.193617e+00 
7.662510e+00 4.154499e+00 
7.697180e+00 4.116653e+00 
7.731850e+00 4.079328e+00 
7.766510e+00 4.042473e+00 
7.801180e+00 4.006061e+00 
7.836440e+00 3.969590e+00 
7.871110e+00 3.934234e+00 
7.906380e+00 3.898706e+00 
7.941040e+00 3.864217e+00 
7.976310e+00 3.829616e+00 
8.011570e+00 3.795530e+00 
8.046240e+00 3.762416e+00 
8.080900e+00 3.729705e+00 
8.115570e+00 3.697405e+00 
8.150830e+00 3.665076e+00 
8.185500e+00 3.633664e+00 
8.220770e+00 3.602083e+00 
8.255430e+00 3.571412e+00 
8.290100e+00 3.541231e+00 
8.324770e+00 3.511413e+00 
8.359430e+00 3.481945e+00 
8.394700e+00 3.452304e+00 
8.429960e+00 3.423090e+00 
8.464630e+00 3.394769e+00 
8.499890e+00 3.366294e+00 
8.534560e+00 3.338612e+00 
8.569200e+00 3.311263e+00 
