# Parameters:
# omega_b = 0.021925, omega_m = 0.146732, n_s = 0.983858, h = 60.669291, w = -1.000000, sigma_8 = 0.704724
# z = 1.300000
#
# k[1/Mpc] # P(k):
8.694000e-04 2.963507e+03 
2.077466e-03 6.467762e+03 
3.285532e-03 9.277691e+03 
4.493598e-03 1.149333e+04 
5.701664e-03 1.319197e+04 
6.909730e-03 1.444422e+04 
8.117797e-03 1.533733e+04 
9.325863e-03 1.591708e+04 
1.053393e-02 1.623283e+04 
1.174199e-02 1.633199e+04 
1.295006e-02 1.624349e+04 
1.415813e-02 1.600710e+04 
1.536619e-02 1.565826e+04 
1.657426e-02 1.522182e+04 
1.778233e-02 1.472632e+04 
1.899039e-02 1.420822e+04 
2.019846e-02 1.367043e+04 
2.140652e-02 1.312101e+04 
2.261459e-02 1.257277e+04 
2.382266e-02 1.204084e+04 
2.503072e-02 1.153500e+04 
2.623879e-02 1.105953e+04 
2.744685e-02 1.061602e+04 
2.865492e-02 1.020765e+04 
2.986299e-02 9.834013e+03 
3.100100e-02 9.513439e+03 
3.220400e-02 9.206166e+03 
3.288100e-02 9.047273e+03 
3.424300e-02 8.754944e+03 
3.555100e-02 8.504315e+03 
3.686000e-02 8.279575e+03 
3.795000e-02 8.108725e+03 
3.929100e-02 7.916084e+03 
4.039800e-02 7.767719e+03 
4.164000e-02 7.609438e+03 
4.294400e-02 7.447708e+03 
4.415000e-02 7.301314e+03 
4.542900e-02 7.143706e+03 
4.660900e-02 6.997683e+03 
4.782300e-02 6.839844e+03 
4.892900e-02 6.693149e+03 
5.031200e-02 6.503290e+03 
5.155900e-02 6.325098e+03 
5.238100e-02 6.205033e+03 
5.378200e-02 5.997144e+03 
5.513400e-02 5.793144e+03 
5.627600e-02 5.620421e+03 
5.735300e-02 5.459256e+03 
5.870100e-02 5.262002e+03 
5.988700e-02 5.094593e+03 
6.113500e-02 4.925273e+03 
6.225900e-02 4.779353e+03 
6.340100e-02 4.637650e+03 
6.480200e-02 4.472705e+03 
6.601100e-02 4.338641e+03 
6.725500e-02 4.208814e+03 
6.829100e-02 4.107850e+03 
6.958600e-02 3.989930e+03 
7.071100e-02 3.895852e+03 
7.192300e-02 3.802745e+03 
7.307400e-02 3.721931e+03 
7.412300e-02 3.654315e+03 
7.550400e-02 3.574048e+03 
7.663100e-02 3.514228e+03 
7.791200e-02 3.452945e+03 
7.912700e-02 3.399830e+03 
8.027600e-02 3.352820e+03 
8.138400e-02 3.309705e+03 
8.272200e-02 3.259758e+03 
8.406100e-02 3.211057e+03 
8.534100e-02 3.164421e+03 
8.653800e-02 3.119836e+03 
8.759800e-02 3.079636e+03 
8.900300e-02 3.024701e+03 
9.009000e-02 2.980370e+03 
9.113300e-02 2.935852e+03 
9.239600e-02 2.880750e+03 
9.358000e-02 2.827238e+03 
9.496100e-02 2.762148e+03 
9.608400e-02 2.708485e+03 
9.727500e-02 2.651402e+03 
9.852600e-02 2.589624e+03 
9.973800e-02 2.530545e+03 
1.009000e-01 2.474721e+03 
1.020900e-01 2.418005e+03 
1.034000e-01 2.357493e+03 
1.046000e-01 2.303793e+03 
1.057200e-01 2.255854e+03 
1.069100e-01 2.206815e+03 
1.082500e-01 2.154788e+03 
1.093900e-01 2.113186e+03 
1.105400e-01 2.073131e+03 
1.116900e-01 2.036391e+03 
1.129600e-01 1.997769e+03 
1.142000e-01 1.963373e+03 
1.153300e-01 1.933829e+03 
1.166400e-01 1.902000e+03 
1.177800e-01 1.876412e+03 
1.190000e-01 1.850349e+03 
1.201200e-01 1.828267e+03 
1.213400e-01 1.805008e+03 
1.227100e-01 1.780707e+03 
1.238900e-01 1.760397e+03 
1.250700e-01 1.740794e+03 
1.263200e-01 1.720416e+03 
1.275500e-01 1.700618e+03 
1.287500e-01 1.681399e+03 
1.299900e-01 1.661441e+03 
1.311300e-01 1.642934e+03 
1.323500e-01 1.622709e+03 
1.335900e-01 1.601886e+03 
1.347100e-01 1.582518e+03 
1.359800e-01 1.560388e+03 
1.372100e-01 1.538146e+03 
1.384300e-01 1.516083e+03 
1.395700e-01 1.494723e+03 
1.407700e-01 1.472596e+03 
1.420300e-01 1.448589e+03 
1.432800e-01 1.425326e+03 
1.444500e-01 1.403236e+03 
1.456300e-01 1.381443e+03 
1.468900e-01 1.358622e+03 
1.480500e-01 1.338056e+03 
1.491700e-01 1.318803e+03 
1.503800e-01 1.298684e+03 
1.516400e-01 1.278365e+03 
1.528200e-01 1.260501e+03 
1.540200e-01 1.242705e+03 
1.551900e-01 1.226609e+03 
1.564300e-01 1.210110e+03 
1.576600e-01 1.194575e+03 
1.588700e-01 1.180192e+03 
1.600900e-01 1.166015e+03 
1.612700e-01 1.153404e+03 
1.625400e-01 1.140085e+03 
1.637600e-01 1.127845e+03 
1.649500e-01 1.116304e+03 
1.662200e-01 1.104230e+03 
1.674000e-01 1.093311e+03 
1.685000e-01 1.083303e+03 
1.697500e-01 1.072002e+03 
1.710300e-01 1.060521e+03 
1.722200e-01 1.050036e+03 
1.734400e-01 1.039018e+03 
1.746400e-01 1.028349e+03 
1.758700e-01 1.017424e+03 
1.770900e-01 1.006416e+03 
1.782700e-01 9.959491e+02 
1.794600e-01 9.852829e+02 
1.807000e-01 9.741656e+02 
1.819100e-01 9.635038e+02 
1.830100e-01 9.536893e+02 
1.842200e-01 9.430199e+02 
1.855000e-01 9.319219e+02 
1.867000e-01 9.215365e+02 
1.879200e-01 9.111545e+02 
1.890900e-01 9.013608e+02 
1.902800e-01 8.915569e+02 
1.915200e-01 8.815095e+02 
1.926900e-01 8.722146e+02 
1.939000e-01 8.628567e+02 
1.951700e-01 8.531963e+02 
1.963100e-01 8.447138e+02 
1.975100e-01 8.360582e+02 
1.987800e-01 8.270441e+02 
2.000100e-01 8.185193e+02 
2.012500e-01 8.102113e+02 
2.023400e-01 8.030159e+02 
2.036100e-01 7.947945e+02 
2.048900e-01 7.867881e+02 
2.060400e-01 7.797025e+02 
2.072200e-01 7.725460e+02 
2.084200e-01 7.654962e+02 
2.096900e-01 7.581464e+02 
2.109200e-01 7.511346e+02 
2.121100e-01 7.445056e+02 
2.132700e-01 7.381365e+02 
2.145200e-01 7.313705e+02 
2.157200e-01 7.249767e+02 
2.168800e-01 7.188849e+02 
2.180700e-01 7.127204e+02 
2.193400e-01 7.062230e+02 
2.206000e-01 6.998485e+02 
2.217500e-01 6.941103e+02 
2.229500e-01 6.882024e+02 
2.241400e-01 6.823682e+02 
2.253500e-01 6.765147e+02 
2.264900e-01 6.710723e+02 
2.277100e-01 6.652953e+02 
2.289900e-01 6.592858e+02 
2.301500e-01 6.539130e+02 
2.313600e-01 6.483813e+02 
2.325600e-01 6.429152e+02 
2.337700e-01 6.374759e+02 
2.350000e-01 6.320200e+02 
2.362000e-01 6.267513e+02 
2.374100e-01 6.214889e+02 
2.386500e-01 6.161667e+02 
2.399100e-01 6.108308e+02 
2.410400e-01 6.060949e+02 
2.422500e-01 6.010849e+02 
2.435000e-01 5.959762e+02 
2.447300e-01 5.910163e+02 
2.458700e-01 5.864835e+02 
2.470600e-01 5.818090e+02 
2.483300e-01 5.768834e+02 
2.495600e-01 5.721823e+02 
2.507600e-01 5.676638e+02 
2.519600e-01 5.632004e+02 
2.532200e-01 5.585720e+02 
2.543700e-01 5.544171e+02 
2.555500e-01 5.502160e+02 
2.568000e-01 5.458194e+02 
2.580100e-01 5.416153e+02 
2.592400e-01 5.374163e+02 
2.604100e-01 5.334792e+02 
2.616100e-01 5.294878e+02 
2.628400e-01 5.254448e+02 
2.640600e-01 5.215041e+02 
2.652200e-01 5.178087e+02 
2.664300e-01 5.139977e+02 
2.676500e-01 5.101995e+02 
2.688400e-01 5.065513e+02 
2.700700e-01 5.028322e+02 
2.712400e-01 4.993343e+02 
2.724800e-01 4.956687e+02 
2.736700e-01 4.922007e+02 
2.748800e-01 4.887237e+02 
2.761000e-01 4.852571e+02 
2.773200e-01 4.818292e+02 
2.785400e-01 4.784429e+02 
2.797000e-01 4.752652e+02 
2.808900e-01 4.720399e+02 
2.821400e-01 4.686891e+02 
2.833900e-01 4.653760e+02 
2.845500e-01 4.623379e+02 
2.857800e-01 4.591506e+02 
2.870300e-01 4.559469e+02 
2.882100e-01 4.529551e+02 
2.893900e-01 4.499956e+02 
2.906300e-01 4.469192e+02 
2.918900e-01 4.438271e+02 
2.930500e-01 4.410103e+02 
2.942500e-01 4.381255e+02 
2.954200e-01 4.353399e+02 
2.966500e-01 4.324416e+02 
2.978900e-01 4.295504e+02 
2.990400e-01 4.268962e+02 
3.002700e-01 4.240835e+02 
3.015100e-01 4.212763e+02 
3.026800e-01 4.186542e+02 
3.038500e-01 4.160579e+02 
3.050300e-01 4.134649e+02 
3.062600e-01 4.107854e+02 
3.075000e-01 4.081118e+02 
3.087000e-01 4.055503e+02 
3.099100e-01 4.029931e+02 
3.111200e-01 4.004613e+02 
3.123100e-01 3.979958e+02 
3.135300e-01 3.954929e+02 
3.147300e-01 3.930551e+02 
3.159900e-01 3.905207e+02 
3.171800e-01 3.881508e+02 
3.183700e-01 3.858037e+02 
3.196300e-01 3.833426e+02 
3.208400e-01 3.810024e+02 
3.220300e-01 3.787227e+02 
3.232000e-01 3.765049e+02 
3.244300e-01 3.741963e+02 
3.256700e-01 3.718915e+02 
3.269200e-01 3.695905e+02 
3.280800e-01 3.674752e+02 
3.292500e-01 3.653661e+02 
3.304800e-01 3.631709e+02 
3.317100e-01 3.609964e+02 
3.328900e-01 3.589295e+02 
3.340700e-01 3.568812e+02 
3.353600e-01 3.546700e+02 
3.365300e-01 3.526857e+02 
3.377100e-01 3.507022e+02 
3.389200e-01 3.486865e+02 
3.401600e-01 3.466397e+02 
3.413700e-01 3.446685e+02 
3.425300e-01 3.428007e+02 
3.437700e-01 3.408218e+02 
3.449800e-01 3.389082e+02 
3.461800e-01 3.370271e+02 
3.473600e-01 3.351974e+02 
3.485800e-01 3.333317e+02 
3.498100e-01 3.314674e+02 
3.510200e-01 3.296495e+02 
3.522000e-01 3.278920e+02 
3.533900e-01 3.261346e+02 
3.546400e-01 3.243189e+02 
3.558400e-01 3.225917e+02 
3.570600e-01 3.208509e+02 
3.582700e-01 3.191391e+02 
3.595000e-01 3.174139e+02 
3.607100e-01 3.157394e+02 
3.618900e-01 3.141264e+02 
3.631200e-01 3.124591e+02 
3.643200e-01 3.108461e+02 
3.655500e-01 3.092067e+02 
3.667300e-01 3.076469e+02 
3.679500e-01 3.060637e+02 
3.691900e-01 3.044680e+02 
3.703600e-01 3.029747e+02 
3.715700e-01 3.014427e+02 
3.727700e-01 2.999359e+02 
3.739900e-01 2.984217e+02 
3.752000e-01 2.969419e+02 
3.763900e-01 2.954983e+02 
3.775800e-01 2.940661e+02 
3.788200e-01 2.925857e+02 
3.800300e-01 2.911528e+02 
3.812100e-01 2.897741e+02 
3.824200e-01 2.883764e+02 
3.836100e-01 2.870126e+02 
3.848600e-01 2.855915e+02 
3.860400e-01 2.842605e+02 
3.872400e-01 2.829174e+02 
3.884600e-01 2.815721e+02 
3.896500e-01 2.802737e+02 
3.908700e-01 2.789528e+02 
3.920600e-01 2.776743e+02 
3.933100e-01 2.763418e+02 
3.945300e-01 2.750514e+02 
3.957200e-01 2.738120e+02 
3.969300e-01 2.725641e+02 
3.981700e-01 2.712950e+02 
3.993500e-01 2.700965e+02 
4.094840e-01 2.601952e+02 
4.272360e-01 2.444774e+02 
4.454600e-01 2.300915e+02 
4.630560e-01 2.175986e+02 
4.804610e-01 2.063838e+02 
4.980690e-01 1.960275e+02 
5.159230e-01 1.864126e+02 
5.317440e-01 1.785541e+02 
5.489640e-01 1.706369e+02 
5.671990e-01 1.629057e+02 
5.838690e-01 1.563688e+02 
6.018840e-01 1.498221e+02 
6.202330e-01 1.436626e+02 
6.379250e-01 1.381540e+02 
6.545410e-01 1.333477e+02 
6.714560e-01 1.287728e+02 
6.892080e-01 1.242942e+02 
7.066010e-01 1.202020e+02 
7.240540e-01 1.163548e+02 
7.420450e-01 1.126496e+02 
7.593780e-01 1.093031e+02 
7.764720e-01 1.061940e+02 
7.942840e-01 1.031441e+02 
8.116170e-01 1.003482e+02 
8.288310e-01 9.772603e+01 
8.462240e-01 9.521679e+01 
8.631980e-01 9.289378e+01 
8.810700e-01 9.057137e+01 
8.989410e-01 8.836678e+01 
9.166330e-01 8.629073e+01 
9.345640e-01 8.428663e+01 
9.515980e-01 8.246947e+01 
9.688720e-01 8.070595e+01 
9.865640e-01 7.897774e+01 
1.031870e+00 7.486886e+01 
1.063490e+00 7.224087e+01 
1.097920e+00 6.957781e+01 
1.134370e+00 6.695285e+01 
1.167730e+00 6.471018e+01 
1.203830e+00 6.243190e+01 
1.240470e+00 6.026579e+01 
1.275790e+00 5.829916e+01 
1.309140e+00 5.654730e+01 
1.342970e+00 5.485644e+01 
1.378420e+00 5.317917e+01 
1.413200e+00 5.161567e+01 
1.448110e+00 5.012101e+01 
1.484090e+00 4.865689e+01 
1.518820e+00 4.730845e+01 
1.552880e+00 4.604314e+01 
1.588630e+00 4.477271e+01 
1.623230e+00 4.359739e+01 
1.657720e+00 4.247434e+01 
1.692450e+00 4.138989e+01 
1.726400e+00 4.036935e+01 
1.762200e+00 3.933492e+01 
1.797880e+00 3.834551e+01 
1.833270e+00 3.740202e+01 
1.869070e+00 3.648316e+01 
1.903200e+00 3.563955e+01 
1.937740e+00 3.481574e+01 
1.973190e+00 3.399981e+01 
2.007440e+00 3.323897e+01 
2.042160e+00 3.249370e+01 
2.077900e+00 3.175228e+01 
2.112390e+00 3.106094e+01 
2.146220e+00 3.040357e+01 
2.181600e+00 2.973826e+01 
2.216930e+00 2.909528e+01 
2.250760e+00 2.849880e+01 
2.286500e+00 2.788817e+01 
2.321770e+00 2.730437e+01 
2.355950e+00 2.675554e+01 
2.391280e+00 2.620410e+01 
2.426240e+00 2.567466e+01 
2.460670e+00 2.516877e+01 
2.495640e+00 2.467021e+01 
2.531080e+00 2.417824e+01 
2.566220e+00 2.370430e+01 
2.600830e+00 2.325079e+01 
2.635080e+00 2.281455e+01 
2.670340e+00 2.237636e+01 
2.705970e+00 2.194614e+01 
2.740040e+00 2.154613e+01 
2.774520e+00 2.115116e+01 
2.809730e+00 2.075812e+01 
2.844390e+00 2.038161e+01 
2.879960e+00 2.000494e+01 
2.914860e+00 1.964466e+01 
2.949410e+00 1.929735e+01 
2.984440e+00 1.895341e+01 
3.019760e+00 1.861539e+01 
3.054730e+00 1.828949e+01 
3.089030e+00 1.797646e+01 
3.124060e+00 1.766489e+01 
3.159560e+00 1.735686e+01 
3.194710e+00 1.705890e+01 
3.229010e+00 1.677545e+01 
3.263320e+00 1.649743e+01 
3.297930e+00 1.622387e+01 
3.332830e+00 1.595423e+01 
3.368040e+00 1.568838e+01 
3.403300e+00 1.542844e+01 
3.438450e+00 1.517479e+01 
3.473060e+00 1.493112e+01 
3.508440e+00 1.468691e+01 
3.543110e+00 1.445338e+01 
3.577470e+00 1.422638e+01 
3.613040e+00 1.399689e+01 
3.648120e+00 1.377529e+01 
3.682910e+00 1.356040e+01 
3.718050e+00 1.334771e+01 
3.753320e+00 1.313898e+01 
3.787980e+00 1.293814e+01 
3.822290e+00 1.274353e+01 
3.857020e+00 1.255044e+01 
3.891920e+00 1.236050e+01 
3.926650e+00 1.217510e+01 
3.961970e+00 1.199062e+01 
3.997360e+00 1.180941e+01 
4.031670e+00 1.163753e+01 
4.066330e+00 1.146713e+01 
4.101420e+00 1.129838e+01 
4.136200e+00 1.113396e+01 
4.170810e+00 1.097388e+01 
4.206250e+00 1.081301e+01 
4.241580e+00 1.065602e+01 
4.276300e+00 1.050461e+01 
4.310970e+00 1.035634e+01 
4.346120e+00 1.020898e+01 
4.380600e+00 1.006714e+01 
4.414730e+00 9.929576e+00 
4.450350e+00 9.788470e+00 
4.485320e+00 9.652791e+00 
4.519810e+00 9.521337e+00 
4.555430e+00 9.388166e+00 
4.590870e+00 9.258255e+00 
4.625480e+00 9.133694e+00 
4.659910e+00 9.012196e+00 
4.695230e+00 8.889690e+00 
4.729960e+00 8.771534e+00 
4.764450e+00 8.656306e+00 
4.799530e+00 8.541122e+00 
4.834910e+00 8.427189e+00 
4.869700e+00 8.317117e+00 
4.904370e+00 8.209452e+00 
4.939450e+00 8.102501e+00 
4.973940e+00 7.999173e+00 
5.008430e+00 7.897733e+00 
5.043810e+00 7.795443e+00 
5.078840e+00 7.695947e+00 
5.113500e+00 7.599286e+00 
5.148890e+00 7.502211e+00 
5.184210e+00 7.407079e+00 
5.219060e+00 7.314875e+00 
5.253660e+00 7.224888e+00 
5.288570e+00 7.135688e+00 
5.323420e+00 7.048160e+00 
5.358440e+00 6.961694e+00 
5.393590e+00 6.876418e+00 
5.428310e+00 6.793590e+00 
5.462800e+00 6.712683e+00 
5.497640e+00 6.632336e+00 
5.532670e+00 6.552882e+00 
5.567280e+00 6.475685e+00 
5.602000e+00 6.399530e+00 
5.637270e+00 6.323455e+00 
5.672410e+00 6.248924e+00 
5.707020e+00 6.176723e+00 
5.742040e+00 6.104872e+00 
5.777430e+00 6.033455e+00 
5.812210e+00 5.964410e+00 
5.846820e+00 5.896800e+00 
5.881610e+00 5.829918e+00 
5.916510e+00 5.763892e+00 
5.951600e+00 5.698574e+00 
5.986560e+00 5.634532e+00 
6.021830e+00 5.570941e+00 
6.056490e+00 5.509460e+00 
6.091160e+00 5.448937e+00 
6.125830e+00 5.389342e+00 
6.161090e+00 5.329685e+00 
6.195760e+00 5.271969e+00 
6.230420e+00 5.215139e+00 
6.265690e+00 5.158185e+00 
6.300950e+00 5.102162e+00 
6.335620e+00 5.047902e+00 
6.370880e+00 4.993540e+00 
6.405550e+00 4.940945e+00 
6.440220e+00 4.889146e+00 
6.475480e+00 4.837238e+00 
6.510150e+00 4.786964e+00 
6.544810e+00 4.737473e+00 
6.580080e+00 4.687839e+00 
6.614750e+00 4.639750e+00 
6.649410e+00 4.592454e+00 
6.684080e+00 4.545830e+00 
6.719340e+00 4.499085e+00 
6.754010e+00 4.453797e+00 
6.788680e+00 4.409202e+00 
6.823940e+00 4.364480e+00 
6.859800e+00 4.319641e+00 
6.894470e+00 4.276964e+00 
6.929140e+00 4.234895e+00 
6.963800e+00 4.193409e+00 
6.999070e+00 4.151775e+00 
7.033730e+00 4.111514e+00 
7.068400e+00 4.071780e+00 
7.103660e+00 4.031913e+00 
7.138330e+00 3.993275e+00 
7.173600e+00 3.954568e+00 
7.208260e+00 3.917036e+00 
7.243530e+00 3.879346e+00 
7.277600e+00 3.843462e+00 
7.312860e+00 3.806851e+00 
7.348120e+00 3.770720e+00 
7.382790e+00 3.735654e+00 
7.417460e+00 3.701110e+00 
7.452720e+00 3.666468e+00 
7.487390e+00 3.632840e+00 
7.522650e+00 3.599075e+00 
7.557320e+00 3.566378e+00 
7.591990e+00 3.534119e+00 
7.627250e+00 3.501723e+00 
7.662510e+00 3.469735e+00 
7.697180e+00 3.438753e+00 
7.731850e+00 3.408181e+00 
7.766510e+00 3.377992e+00 
7.801180e+00 3.348162e+00 
7.836440e+00 3.318267e+00 
7.871110e+00 3.289275e+00 
7.906380e+00 3.260138e+00 
7.941040e+00 3.231850e+00 
7.976310e+00 3.203450e+00 
8.011570e+00 3.175447e+00 
8.046240e+00 3.148240e+00 
8.080900e+00 3.121362e+00 
8.115570e+00 3.094815e+00 
8.150830e+00 3.068228e+00 
8.185500e+00 3.042392e+00 
8.220770e+00 3.016416e+00 
8.255430e+00 2.991185e+00 
8.290100e+00 2.966321e+00 
8.324770e+00 2.941750e+00 
8.359430e+00 2.917466e+00 
8.394700e+00 2.893037e+00 
8.429960e+00 2.868949e+00 
8.464630e+00 2.845588e+00 
8.499890e+00 2.822096e+00 
8.534560e+00 2.799258e+00 
8.569200e+00 2.776692e+00 
