# Parameters:
# omega_b = 0.022508, omega_m = 0.144803, n_s = 0.974409, h = 73.425197, w = -1.000000, sigma_8 = 0.788189
# z = 1.300000
#
# k[1/Mpc] # P(k):
8.694000e-04 3.628251e+03 
2.077466e-03 7.845220e+03 
3.285532e-03 1.119210e+04 
4.493598e-03 1.380848e+04 
5.701664e-03 1.578758e+04 
6.909730e-03 1.722490e+04 
8.117797e-03 1.823329e+04 
9.325863e-03 1.887090e+04 
1.053393e-02 1.919704e+04 
1.174199e-02 1.926672e+04 
1.295006e-02 1.911548e+04 
1.415813e-02 1.879175e+04 
1.536619e-02 1.833650e+04 
1.657426e-02 1.777636e+04 
1.778233e-02 1.712842e+04 
1.899039e-02 1.642554e+04 
2.019846e-02 1.570539e+04 
2.140652e-02 1.499866e+04 
2.261459e-02 1.431145e+04 
2.382266e-02 1.365344e+04 
2.503072e-02 1.303387e+04 
2.623879e-02 1.245687e+04 
2.744685e-02 1.192416e+04 
2.865492e-02 1.143827e+04 
2.986299e-02 1.099785e+04 
3.100100e-02 1.062388e+04 
3.220400e-02 1.026910e+04 
3.288100e-02 1.008753e+04 
3.424300e-02 9.756758e+03 
3.555100e-02 9.476833e+03 
3.686000e-02 9.229129e+03 
3.795000e-02 9.042870e+03 
3.929100e-02 8.835131e+03 
4.039800e-02 8.676040e+03 
4.164000e-02 8.506544e+03 
4.294400e-02 8.332460e+03 
4.415000e-02 8.173643e+03 
4.542900e-02 7.999975e+03 
4.660900e-02 7.837069e+03 
4.782300e-02 7.657674e+03 
4.892900e-02 7.489005e+03 
5.031200e-02 7.267913e+03 
5.155900e-02 7.058153e+03 
5.238100e-02 6.915901e+03 
5.378200e-02 6.668080e+03 
5.513400e-02 6.422815e+03 
5.627600e-02 6.213148e+03 
5.735300e-02 6.015346e+03 
5.870100e-02 5.769613e+03 
5.988700e-02 5.557801e+03 
6.113500e-02 5.341203e+03 
6.225900e-02 5.154030e+03 
6.340100e-02 4.973859e+03 
6.480200e-02 4.768195e+03 
6.601100e-02 4.607032e+03 
6.725500e-02 4.457122e+03 
6.829100e-02 4.345680e+03 
6.958600e-02 4.219967e+03 
7.071100e-02 4.123686e+03 
7.192300e-02 4.031371e+03 
7.307400e-02 3.953460e+03 
7.412300e-02 3.889650e+03 
7.550400e-02 3.815447e+03 
7.663100e-02 3.760750e+03 
7.791200e-02 3.704992e+03 
7.912700e-02 3.656191e+03 
8.027600e-02 3.612233e+03 
8.138400e-02 3.571027e+03 
8.272200e-02 3.521778e+03 
8.406100e-02 3.471940e+03 
8.534100e-02 3.422062e+03 
8.653800e-02 3.372702e+03 
8.759800e-02 3.327280e+03 
8.900300e-02 3.263950e+03 
9.009000e-02 3.212010e+03 
9.113300e-02 3.159373e+03 
9.239600e-02 3.093947e+03 
9.358000e-02 3.030234e+03 
9.496100e-02 2.952817e+03 
9.608400e-02 2.889201e+03 
9.727500e-02 2.821747e+03 
9.852600e-02 2.749444e+03 
9.973800e-02 2.680784e+03 
1.009000e-01 2.616310e+03 
1.020900e-01 2.551915e+03 
1.034000e-01 2.483853e+03 
1.046000e-01 2.424116e+03 
1.057200e-01 2.371993e+03 
1.069100e-01 2.319147e+03 
1.082500e-01 2.264444e+03 
1.093900e-01 2.221581e+03 
1.105400e-01 2.180829e+03 
1.116900e-01 2.144628e+03 
1.129600e-01 2.106955e+03 
1.142000e-01 2.074364e+03 
1.153300e-01 2.046641e+03 
1.166400e-01 2.017220e+03 
1.177800e-01 1.993716e+03 
1.190000e-01 1.969852e+03 
1.201200e-01 1.949350e+03 
1.213400e-01 1.927706e+03 
1.227100e-01 1.904152e+03 
1.238900e-01 1.884205e+03 
1.250700e-01 1.864071e+03 
1.263200e-01 1.842768e+03 
1.275500e-01 1.821236e+03 
1.287500e-01 1.799947e+03 
1.299900e-01 1.777238e+03 
1.311300e-01 1.755947e+03 
1.323500e-01 1.732343e+03 
1.335900e-01 1.707984e+03 
1.347100e-01 1.685257e+03 
1.359800e-01 1.659373e+03 
1.372100e-01 1.633513e+03 
1.384300e-01 1.608005e+03 
1.395700e-01 1.583628e+03 
1.407700e-01 1.558444e+03 
1.420300e-01 1.531675e+03 
1.432800e-01 1.505748e+03 
1.444500e-01 1.481721e+03 
1.456300e-01 1.458022e+03 
1.468900e-01 1.433630e+03 
1.480500e-01 1.411774e+03 
1.491700e-01 1.391512e+03 
1.503800e-01 1.370591e+03 
1.516400e-01 1.349529e+03 
1.528200e-01 1.331317e+03 
1.540200e-01 1.313168e+03 
1.551900e-01 1.296971e+03 
1.564300e-01 1.280419e+03 
1.576600e-01 1.264900e+03 
1.588700e-01 1.250617e+03 
1.600900e-01 1.236534e+03 
1.612700e-01 1.224026e+03 
1.625400e-01 1.210813e+03 
1.637600e-01 1.198592e+03 
1.649500e-01 1.187024e+03 
1.662200e-01 1.174885e+03 
1.674000e-01 1.163718e+03 
1.685000e-01 1.153480e+03 
1.697500e-01 1.141781e+03 
1.710300e-01 1.129754e+03 
1.722200e-01 1.118772e+03 
1.734400e-01 1.106977e+03 
1.746400e-01 1.095545e+03 
1.758700e-01 1.083781e+03 
1.770900e-01 1.071810e+03 
1.782700e-01 1.060428e+03 
1.794600e-01 1.048777e+03 
1.807000e-01 1.036601e+03 
1.819100e-01 1.024925e+03 
1.830100e-01 1.014180e+03 
1.842200e-01 1.002501e+03 
1.855000e-01 9.903581e+02 
1.867000e-01 9.790643e+02 
1.879200e-01 9.677757e+02 
1.890900e-01 9.571453e+02 
1.902800e-01 9.465933e+02 
1.915200e-01 9.357801e+02 
1.926900e-01 9.258042e+02 
1.939000e-01 9.158482e+02 
1.951700e-01 9.055705e+02 
1.963100e-01 8.965714e+02 
1.975100e-01 8.874563e+02 
1.987800e-01 8.779634e+02 
2.000100e-01 8.690041e+02 
2.012500e-01 8.603156e+02 
2.023400e-01 8.527901e+02 
2.036100e-01 8.441958e+02 
2.048900e-01 8.358437e+02 
2.060400e-01 8.284518e+02 
2.072200e-01 8.209845e+02 
2.084200e-01 8.136190e+02 
2.096900e-01 8.059394e+02 
2.109200e-01 7.986127e+02 
2.121100e-01 7.916602e+02 
2.132700e-01 7.849788e+02 
2.145200e-01 7.778807e+02 
2.157200e-01 7.711573e+02 
2.168800e-01 7.647442e+02 
2.180700e-01 7.582543e+02 
2.193400e-01 7.514111e+02 
2.206000e-01 7.446920e+02 
2.217500e-01 7.386436e+02 
2.229500e-01 7.324161e+02 
2.241400e-01 7.262842e+02 
2.253500e-01 7.201321e+02 
2.264900e-01 7.144118e+02 
2.277100e-01 7.083605e+02 
2.289900e-01 7.020884e+02 
2.301500e-01 6.964804e+02 
2.313600e-01 6.907065e+02 
2.325600e-01 6.850604e+02 
2.337700e-01 6.794414e+02 
2.350000e-01 6.738045e+02 
2.362000e-01 6.683897e+02 
2.374100e-01 6.630154e+02 
2.386500e-01 6.575792e+02 
2.399100e-01 6.521280e+02 
2.410400e-01 6.473352e+02 
2.422500e-01 6.422699e+02 
2.435000e-01 6.371039e+02 
2.447300e-01 6.320944e+02 
2.458700e-01 6.275435e+02 
2.470600e-01 6.228494e+02 
2.483300e-01 6.179022e+02 
2.495600e-01 6.131845e+02 
2.507600e-01 6.086563e+02 
2.519600e-01 6.041823e+02 
2.532200e-01 5.995420e+02 
2.543700e-01 5.953691e+02 
2.555500e-01 5.911444e+02 
2.568000e-01 5.867223e+02 
2.580100e-01 5.824930e+02 
2.592400e-01 5.782486e+02 
2.604100e-01 5.742597e+02 
2.616100e-01 5.702151e+02 
2.628400e-01 5.661175e+02 
2.640600e-01 5.620960e+02 
2.652200e-01 5.583136e+02 
2.664300e-01 5.544122e+02 
2.676500e-01 5.505235e+02 
2.688400e-01 5.467646e+02 
2.700700e-01 5.429178e+02 
2.712400e-01 5.392994e+02 
2.724800e-01 5.355071e+02 
2.736700e-01 5.319026e+02 
2.748800e-01 5.282719e+02 
2.761000e-01 5.246517e+02 
2.773200e-01 5.210716e+02 
2.785400e-01 5.175267e+02 
2.797000e-01 5.141836e+02 
2.808900e-01 5.107901e+02 
2.821400e-01 5.072644e+02 
2.833900e-01 5.037774e+02 
2.845500e-01 5.005646e+02 
2.857800e-01 4.971939e+02 
2.870300e-01 4.938057e+02 
2.882100e-01 4.906412e+02 
2.893900e-01 4.875051e+02 
2.906300e-01 4.842419e+02 
2.918900e-01 4.809619e+02 
2.930500e-01 4.779737e+02 
2.942500e-01 4.749124e+02 
2.954200e-01 4.719537e+02 
2.966500e-01 4.688750e+02 
2.978900e-01 4.658038e+02 
2.990400e-01 4.629842e+02 
3.002700e-01 4.599963e+02 
3.015100e-01 4.570140e+02 
3.026800e-01 4.542284e+02 
3.038500e-01 4.514699e+02 
3.050300e-01 4.487149e+02 
3.062600e-01 4.458705e+02 
3.075000e-01 4.430321e+02 
3.087000e-01 4.403127e+02 
3.099100e-01 4.375975e+02 
3.111200e-01 4.349104e+02 
3.123100e-01 4.322956e+02 
3.135300e-01 4.296409e+02 
3.147300e-01 4.270552e+02 
3.159900e-01 4.243668e+02 
3.171800e-01 4.218549e+02 
3.183700e-01 4.193682e+02 
3.196300e-01 4.167608e+02 
3.208400e-01 4.142812e+02 
3.220300e-01 4.118655e+02 
3.232000e-01 4.095171e+02 
3.244300e-01 4.070733e+02 
3.256700e-01 4.046331e+02 
3.269200e-01 4.021970e+02 
3.280800e-01 3.999572e+02 
3.292500e-01 3.977254e+02 
3.304800e-01 3.954028e+02 
3.317100e-01 3.931019e+02 
3.328900e-01 3.909147e+02 
3.340700e-01 3.887471e+02 
3.353600e-01 3.864073e+02 
3.365300e-01 3.843077e+02 
3.377100e-01 3.822087e+02 
3.389200e-01 3.800755e+02 
3.401600e-01 3.779092e+02 
3.413700e-01 3.758224e+02 
3.425300e-01 3.738448e+02 
3.437700e-01 3.717493e+02 
3.449800e-01 3.697228e+02 
3.461800e-01 3.677306e+02 
3.473600e-01 3.657923e+02 
3.485800e-01 3.638144e+02 
3.498100e-01 3.618380e+02 
3.510200e-01 3.599106e+02 
3.522000e-01 3.580471e+02 
3.533900e-01 3.561836e+02 
3.546400e-01 3.542553e+02 
3.558400e-01 3.524209e+02 
3.570600e-01 3.505717e+02 
3.582700e-01 3.487533e+02 
3.595000e-01 3.469206e+02 
3.607100e-01 3.451397e+02 
3.618900e-01 3.434227e+02 
3.631200e-01 3.416478e+02 
3.643200e-01 3.399306e+02 
3.655500e-01 3.381852e+02 
3.667300e-01 3.365245e+02 
3.679500e-01 3.348346e+02 
3.691900e-01 3.331312e+02 
3.703600e-01 3.315372e+02 
3.715700e-01 3.299018e+02 
3.727700e-01 3.282931e+02 
3.739900e-01 3.266750e+02 
3.752000e-01 3.250909e+02 
3.763900e-01 3.235453e+02 
3.775800e-01 3.220120e+02 
3.788200e-01 3.204270e+02 
3.800300e-01 3.188928e+02 
3.812100e-01 3.174139e+02 
3.824200e-01 3.159130e+02 
3.836100e-01 3.144485e+02 
3.848600e-01 3.129223e+02 
3.860400e-01 3.114928e+02 
3.872400e-01 3.100503e+02 
3.884600e-01 3.086024e+02 
3.896500e-01 3.072037e+02 
3.908700e-01 3.057808e+02 
3.920600e-01 3.044034e+02 
3.933100e-01 3.029679e+02 
3.945300e-01 3.015777e+02 
3.957200e-01 3.002391e+02 
3.969300e-01 2.988903e+02 
3.981700e-01 2.975187e+02 
3.993500e-01 2.962233e+02 
4.094840e-01 2.855061e+02 
4.272360e-01 2.684113e+02 
4.454600e-01 2.527176e+02 
4.630560e-01 2.390723e+02 
4.804610e-01 2.268271e+02 
4.980690e-01 2.155361e+02 
5.159230e-01 2.050733e+02 
5.317440e-01 1.965381e+02 
5.489640e-01 1.879544e+02 
5.671990e-01 1.795873e+02 
5.838690e-01 1.725205e+02 
6.018840e-01 1.654489e+02 
6.202330e-01 1.587982e+02 
6.379250e-01 1.528505e+02 
6.545410e-01 1.476597e+02 
6.714560e-01 1.427164e+02 
6.892080e-01 1.378746e+02 
7.066010e-01 1.334467e+02 
7.240540e-01 1.292804e+02 
7.420450e-01 1.252635e+02 
7.593780e-01 1.216315e+02 
7.764720e-01 1.182543e+02 
7.942840e-01 1.149379e+02 
8.116170e-01 1.118945e+02 
8.288310e-01 1.090368e+02 
8.462240e-01 1.063002e+02 
8.631980e-01 1.037639e+02 
8.810700e-01 1.012261e+02 
8.989410e-01 9.881455e+01 
9.166330e-01 9.654185e+01 
9.345640e-01 9.434678e+01 
9.515980e-01 9.235424e+01 
9.688720e-01 9.041897e+01 
9.865640e-01 8.852116e+01 
1.031870e+00 8.400365e+01 
1.063490e+00 8.111042e+01 
1.097920e+00 7.817580e+01 
1.134370e+00 7.527977e+01 
1.167730e+00 7.280312e+01 
1.203830e+00 7.028429e+01 
1.240470e+00 6.788744e+01 
1.275790e+00 6.570953e+01 
1.309140e+00 6.376811e+01 
1.342970e+00 6.189221e+01 
1.378420e+00 6.003029e+01 
1.413200e+00 5.829332e+01 
1.448110e+00 5.663198e+01 
1.484090e+00 5.500301e+01 
1.518820e+00 5.350186e+01 
1.552880e+00 5.209247e+01 
1.588630e+00 5.067656e+01 
1.623230e+00 4.936571e+01 
1.657720e+00 4.811217e+01 
1.692450e+00 4.690145e+01 
1.726400e+00 4.576136e+01 
1.762200e+00 4.460492e+01 
1.797880e+00 4.349822e+01 
1.833270e+00 4.244240e+01 
1.869070e+00 4.141340e+01 
1.903200e+00 4.046826e+01 
1.937740e+00 3.954500e+01 
1.973190e+00 3.863006e+01 
2.007440e+00 3.777662e+01 
2.042160e+00 3.694013e+01 
2.077900e+00 3.610745e+01 
2.112390e+00 3.533100e+01 
2.146220e+00 3.459215e+01 
2.181600e+00 3.384414e+01 
2.216930e+00 3.312087e+01 
2.250760e+00 3.244970e+01 
2.286500e+00 3.176234e+01 
2.321770e+00 3.110491e+01 
2.355950e+00 3.048681e+01 
2.391280e+00 2.986525e+01 
2.426240e+00 2.926837e+01 
2.460670e+00 2.869791e+01 
2.495640e+00 2.813554e+01 
2.531080e+00 2.758029e+01 
2.566220e+00 2.704518e+01 
2.600830e+00 2.653302e+01 
2.635080e+00 2.604029e+01 
2.670340e+00 2.554526e+01 
2.705970e+00 2.505900e+01 
2.740040e+00 2.460672e+01 
2.774520e+00 2.415997e+01 
2.809730e+00 2.371527e+01 
2.844390e+00 2.328924e+01 
2.879960e+00 2.286301e+01 
2.914860e+00 2.245507e+01 
2.949410e+00 2.206172e+01 
2.984440e+00 2.167214e+01 
3.019760e+00 2.128907e+01 
3.054730e+00 2.091962e+01 
3.089030e+00 2.056478e+01 
3.124060e+00 2.021151e+01 
3.159560e+00 1.986212e+01 
3.194710e+00 1.952409e+01 
3.229010e+00 1.920249e+01 
3.263320e+00 1.888697e+01 
3.297930e+00 1.857643e+01 
3.332830e+00 1.827022e+01 
3.368040e+00 1.796831e+01 
3.403300e+00 1.767306e+01 
3.438450e+00 1.738491e+01 
3.473060e+00 1.710805e+01 
3.508440e+00 1.683044e+01 
3.543110e+00 1.656496e+01 
3.577470e+00 1.630694e+01 
3.613040e+00 1.604601e+01 
3.648120e+00 1.579391e+01 
3.682910e+00 1.554943e+01 
3.718050e+00 1.530747e+01 
3.753320e+00 1.506995e+01 
3.787980e+00 1.484136e+01 
3.822290e+00 1.461982e+01 
3.857020e+00 1.439999e+01 
3.891920e+00 1.418370e+01 
3.926650e+00 1.397257e+01 
3.961970e+00 1.376246e+01 
3.997360e+00 1.355606e+01 
4.031670e+00 1.336026e+01 
4.066330e+00 1.316607e+01 
4.101420e+00 1.297375e+01 
4.136200e+00 1.278634e+01 
4.170810e+00 1.260386e+01 
4.206250e+00 1.242043e+01 
4.241580e+00 1.224141e+01 
4.276300e+00 1.206872e+01 
4.310970e+00 1.189962e+01 
4.346120e+00 1.173154e+01 
4.380600e+00 1.156971e+01 
4.414730e+00 1.141274e+01 
4.450350e+00 1.125171e+01 
4.485320e+00 1.109687e+01 
4.519810e+00 1.094683e+01 
4.555430e+00 1.079481e+01 
4.590870e+00 1.064650e+01 
4.625480e+00 1.050425e+01 
4.659910e+00 1.036550e+01 
4.695230e+00 1.022559e+01 
4.729960e+00 1.009065e+01 
4.764450e+00 9.959030e+00 
4.799530e+00 9.827447e+00 
4.834910e+00 9.697287e+00 
4.869700e+00 9.571509e+00 
4.904370e+00 9.448471e+00 
4.939450e+00 9.326239e+00 
4.973940e+00 9.208124e+00 
5.008430e+00 9.092162e+00 
5.043810e+00 8.975208e+00 
5.078840e+00 8.861434e+00 
5.113500e+00 8.750897e+00 
5.148890e+00 8.639879e+00 
5.184210e+00 8.531079e+00 
5.219060e+00 8.425615e+00 
5.253660e+00 8.322664e+00 
5.288570e+00 8.220608e+00 
5.323420e+00 8.120448e+00 
5.358440e+00 8.021484e+00 
5.393590e+00 7.923876e+00 
5.428310e+00 7.829064e+00 
5.462800e+00 7.736445e+00 
5.497640e+00 7.644463e+00 
5.532670e+00 7.553494e+00 
5.567280e+00 7.465106e+00 
5.602000e+00 7.377906e+00 
5.637270e+00 7.290771e+00 
5.672410e+00 7.205397e+00 
5.707020e+00 7.122688e+00 
5.742040e+00 7.040368e+00 
5.777430e+00 6.958542e+00 
5.812210e+00 6.879430e+00 
5.846820e+00 6.801939e+00 
5.881610e+00 6.725276e+00 
5.916510e+00 6.649589e+00 
5.951600e+00 6.574703e+00 
5.986560e+00 6.501274e+00 
6.021830e+00 6.428358e+00 
6.056490e+00 6.357855e+00 
6.091160e+00 6.288445e+00 
6.125830e+00 6.220095e+00 
6.161090e+00 6.151664e+00 
6.195760e+00 6.085440e+00 
6.230420e+00 6.020231e+00 
6.265690e+00 5.954877e+00 
6.300950e+00 5.890580e+00 
6.335620e+00 5.828302e+00 
6.370880e+00 5.765906e+00 
6.405550e+00 5.705520e+00 
6.440220e+00 5.646039e+00 
6.475480e+00 5.586431e+00 
6.510150e+00 5.528694e+00 
6.544810e+00 5.471846e+00 
6.580080e+00 5.414832e+00 
6.614750e+00 5.359593e+00 
6.649410e+00 5.305244e+00 
6.684080e+00 5.251663e+00 
6.719340e+00 5.197941e+00 
6.754010e+00 5.145889e+00 
6.788680e+00 5.094624e+00 
6.823940e+00 5.043214e+00 
6.859800e+00 4.991665e+00 
6.894470e+00 4.942587e+00 
6.929140e+00 4.894202e+00 
6.963800e+00 4.846485e+00 
6.999070e+00 4.798596e+00 
7.033730e+00 4.752268e+00 
7.068400e+00 4.706545e+00 
7.103660e+00 4.660667e+00 
7.138330e+00 4.616197e+00 
7.173600e+00 4.571634e+00 
7.208260e+00 4.528421e+00 
7.243530e+00 4.485027e+00 
7.277600e+00 4.443703e+00 
7.312860e+00 4.401533e+00 
7.348120e+00 4.359915e+00 
7.382790e+00 4.319523e+00 
7.417460e+00 4.279726e+00 
7.452720e+00 4.239811e+00 
7.487390e+00 4.201064e+00 
7.522650e+00 4.162159e+00 
7.557320e+00 4.124466e+00 
7.591990e+00 4.087272e+00 
7.627250e+00 4.049919e+00 
7.662510e+00 4.013036e+00 
7.697180e+00 3.977302e+00 
7.731850e+00 3.942038e+00 
7.766510e+00 3.907214e+00 
7.801180e+00 3.872803e+00 
7.836440e+00 3.838304e+00 
7.871110e+00 3.804838e+00 
7.906380e+00 3.771205e+00 
7.941040e+00 3.738551e+00 
7.976310e+00 3.705762e+00 
8.011570e+00 3.673424e+00 
8.046240e+00 3.642006e+00 
8.080900e+00 3.610966e+00 
8.115570e+00 3.580305e+00 
8.150830e+00 3.549583e+00 
8.185500e+00 3.519728e+00 
8.220770e+00 3.489711e+00 
8.255430e+00 3.460555e+00 
8.290100e+00 3.431813e+00 
8.324770e+00 3.403409e+00 
8.359430e+00 3.375336e+00 
8.394700e+00 3.347095e+00 
8.429960e+00 3.319241e+00 
8.464630e+00 3.292219e+00 
8.499890e+00 3.265046e+00 
8.534560e+00 3.238628e+00 
8.569200e+00 3.212526e+00 
