# Parameters:
# omega_b = 0.021831, omega_m = 0.151969, n_s = 1.023228, h = 55.944882, w = -1.000000, sigma_8 = 0.843307
# z = 1.300000
#
# k[1/Mpc] # P(k):
8.694000e-04 3.272680e+03 
2.077466e-03 7.408877e+03 
3.285532e-03 1.087491e+04 
4.493598e-03 1.370651e+04 
5.701664e-03 1.595497e+04 
6.909730e-03 1.767873e+04 
8.117797e-03 1.896664e+04 
9.325863e-03 1.986462e+04 
1.053393e-02 2.042688e+04 
1.174199e-02 2.070858e+04 
1.295006e-02 2.074239e+04 
1.415813e-02 2.057617e+04 
1.536619e-02 2.025415e+04 
1.657426e-02 1.980812e+04 
1.778233e-02 1.927981e+04 
1.899039e-02 1.872022e+04 
2.019846e-02 1.812191e+04 
2.140652e-02 1.748808e+04 
2.261459e-02 1.683863e+04 
2.382266e-02 1.619668e+04 
2.503072e-02 1.557727e+04 
2.623879e-02 1.498742e+04 
2.744685e-02 1.442985e+04 
2.865492e-02 1.391103e+04 
2.986299e-02 1.343188e+04 
3.100100e-02 1.301713e+04 
3.220400e-02 1.261679e+04 
3.288100e-02 1.240866e+04 
3.424300e-02 1.202432e+04 
3.555100e-02 1.169385e+04 
3.686000e-02 1.139724e+04 
3.795000e-02 1.117209e+04 
3.929100e-02 1.091937e+04 
4.039800e-02 1.072604e+04 
4.164000e-02 1.052113e+04 
4.294400e-02 1.031410e+04 
4.415000e-02 1.012810e+04 
4.542900e-02 9.929622e+03 
4.660900e-02 9.746544e+03 
4.782300e-02 9.549377e+03 
4.892900e-02 9.366130e+03 
5.031200e-02 9.128635e+03 
5.155900e-02 8.904715e+03 
5.238100e-02 8.753182e+03 
5.378200e-02 8.489500e+03 
5.513400e-02 8.229044e+03 
5.627600e-02 8.007398e+03 
5.735300e-02 7.799957e+03 
5.870100e-02 7.545537e+03 
5.988700e-02 7.329306e+03 
6.113500e-02 7.109889e+03 
6.225900e-02 6.919464e+03 
6.340100e-02 6.732384e+03 
6.480200e-02 6.511176e+03 
6.601100e-02 6.326951e+03 
6.725500e-02 6.144471e+03 
6.829100e-02 5.999139e+03 
6.958600e-02 5.826581e+03 
7.071100e-02 5.686386e+03 
7.192300e-02 5.545819e+03 
7.307400e-02 5.422566e+03 
7.412300e-02 5.318806e+03 
7.550400e-02 5.195226e+03 
7.663100e-02 5.103250e+03 
7.791200e-02 5.009895e+03 
7.912700e-02 4.930447e+03 
8.027600e-02 4.861589e+03 
8.138400e-02 4.799856e+03 
8.272200e-02 4.730468e+03 
8.406100e-02 4.665050e+03 
8.534100e-02 4.604707e+03 
8.653800e-02 4.548485e+03 
8.759800e-02 4.498439e+03 
8.900300e-02 4.430732e+03 
9.009000e-02 4.376287e+03 
9.113300e-02 4.321371e+03 
9.239600e-02 4.253028e+03 
9.358000e-02 4.185989e+03 
9.496100e-02 4.103085e+03 
9.608400e-02 4.033820e+03 
9.727500e-02 3.959380e+03 
9.852600e-02 3.876822e+03 
9.973800e-02 3.796868e+03 
1.009000e-01 3.720487e+03 
1.020900e-01 3.640829e+03 
1.034000e-01 3.554806e+03 
1.046000e-01 3.477407e+03 
1.057200e-01 3.406566e+03 
1.069100e-01 3.333460e+03 
1.082500e-01 3.254111e+03 
1.093900e-01 3.189628e+03 
1.105400e-01 3.126941e+03 
1.116900e-01 3.068205e+03 
1.129600e-01 3.006117e+03 
1.142000e-01 2.950056e+03 
1.153300e-01 2.901824e+03 
1.166400e-01 2.849721e+03 
1.177800e-01 2.808153e+03 
1.190000e-01 2.765976e+03 
1.201200e-01 2.731226e+03 
1.213400e-01 2.694814e+03 
1.227100e-01 2.658786e+03 
1.238900e-01 2.629142e+03 
1.250700e-01 2.602053e+03 
1.263200e-01 2.574456e+03 
1.275500e-01 2.548890e+03 
1.287500e-01 2.524549e+03 
1.299900e-01 2.500010e+03 
1.311300e-01 2.477402e+03 
1.323500e-01 2.452904e+03 
1.335900e-01 2.427501e+03 
1.347100e-01 2.403636e+03 
1.359800e-01 2.376017e+03 
1.372100e-01 2.347574e+03 
1.384300e-01 2.318966e+03 
1.395700e-01 2.290379e+03 
1.407700e-01 2.260619e+03 
1.420300e-01 2.227043e+03 
1.432800e-01 2.194482e+03 
1.444500e-01 2.162394e+03 
1.456300e-01 2.130719e+03 
1.468900e-01 2.096853e+03 
1.480500e-01 2.066121e+03 
1.491700e-01 2.037094e+03 
1.503800e-01 2.006435e+03 
1.516400e-01 1.975410e+03 
1.528200e-01 1.947875e+03 
1.540200e-01 1.920443e+03 
1.551900e-01 1.895582e+03 
1.564300e-01 1.870086e+03 
1.576600e-01 1.846138e+03 
1.588700e-01 1.824042e+03 
1.600900e-01 1.802275e+03 
1.612700e-01 1.783189e+03 
1.625400e-01 1.763031e+03 
1.637600e-01 1.744734e+03 
1.649500e-01 1.727620e+03 
1.662200e-01 1.709774e+03 
1.674000e-01 1.693964e+03 
1.685000e-01 1.679470e+03 
1.697500e-01 1.663262e+03 
1.710300e-01 1.646947e+03 
1.722200e-01 1.632047e+03 
1.734400e-01 1.616585e+03 
1.746400e-01 1.601617e+03 
1.758700e-01 1.586306e+03 
1.770900e-01 1.570912e+03 
1.782700e-01 1.556269e+03 
1.794600e-01 1.541317e+03 
1.807000e-01 1.525709e+03 
1.819100e-01 1.510734e+03 
1.830100e-01 1.496836e+03 
1.842200e-01 1.481703e+03 
1.855000e-01 1.465948e+03 
1.867000e-01 1.451034e+03 
1.879200e-01 1.436118e+03 
1.890900e-01 1.422013e+03 
1.902800e-01 1.407735e+03 
1.915200e-01 1.393098e+03 
1.926900e-01 1.379513e+03 
1.939000e-01 1.365709e+03 
1.951700e-01 1.351454e+03 
1.963100e-01 1.338900e+03 
1.975100e-01 1.325999e+03 
1.987800e-01 1.312561e+03 
2.000100e-01 1.299828e+03 
2.012500e-01 1.287369e+03 
2.023400e-01 1.276576e+03 
2.036100e-01 1.264239e+03 
2.048900e-01 1.252208e+03 
2.060400e-01 1.241560e+03 
2.072200e-01 1.230804e+03 
2.084200e-01 1.220230e+03 
2.096900e-01 1.209203e+03 
2.109200e-01 1.198681e+03 
2.121100e-01 1.188773e+03 
2.132700e-01 1.179254e+03 
2.145200e-01 1.169139e+03 
2.157200e-01 1.159610e+03 
2.168800e-01 1.150542e+03 
2.180700e-01 1.141365e+03 
2.193400e-01 1.131695e+03 
2.206000e-01 1.122214e+03 
2.217500e-01 1.113678e+03 
2.229500e-01 1.104887e+03 
2.241400e-01 1.096194e+03 
2.253500e-01 1.087470e+03 
2.264900e-01 1.079357e+03 
2.277100e-01 1.070716e+03 
2.289900e-01 1.061696e+03 
2.301500e-01 1.053629e+03 
2.313600e-01 1.045321e+03 
2.325600e-01 1.037032e+03 
2.337700e-01 1.028782e+03 
2.350000e-01 1.020505e+03 
2.362000e-01 1.012469e+03 
2.374100e-01 1.004392e+03 
2.386500e-01 9.962216e+02 
2.399100e-01 9.880287e+02 
2.410400e-01 9.806821e+02 
2.422500e-01 9.729000e+02 
2.435000e-01 9.649635e+02 
2.447300e-01 9.572449e+02 
2.458700e-01 9.501416e+02 
2.470600e-01 9.428155e+02 
2.483300e-01 9.350951e+02 
2.495600e-01 9.277127e+02 
2.507600e-01 9.205989e+02 
2.519600e-01 9.135710e+02 
2.532200e-01 9.062827e+02 
2.543700e-01 8.997435e+02 
2.555500e-01 8.931336e+02 
2.568000e-01 8.862155e+02 
2.580100e-01 8.795996e+02 
2.592400e-01 8.730184e+02 
2.604100e-01 8.668590e+02 
2.616100e-01 8.606139e+02 
2.628400e-01 8.542874e+02 
2.640600e-01 8.481626e+02 
2.652200e-01 8.424352e+02 
2.664300e-01 8.365277e+02 
2.676500e-01 8.306393e+02 
2.688400e-01 8.250239e+02 
2.700700e-01 8.193246e+02 
2.712400e-01 8.139633e+02 
2.724800e-01 8.083442e+02 
2.736700e-01 8.030576e+02 
2.748800e-01 7.977881e+02 
2.761000e-01 7.925333e+02 
2.773200e-01 7.873362e+02 
2.785400e-01 7.822176e+02 
2.797000e-01 7.774475e+02 
2.808900e-01 7.726050e+02 
2.821400e-01 7.675731e+02 
2.833900e-01 7.625982e+02 
2.845500e-01 7.580719e+02 
2.857800e-01 7.533223e+02 
2.870300e-01 7.485472e+02 
2.882100e-01 7.440867e+02 
2.893900e-01 7.396906e+02 
2.906300e-01 7.351290e+02 
2.918900e-01 7.305431e+02 
2.930500e-01 7.263643e+02 
2.942500e-01 7.220873e+02 
2.954200e-01 7.179675e+02 
2.966500e-01 7.136798e+02 
2.978900e-01 7.094018e+02 
2.990400e-01 7.054735e+02 
3.002700e-01 7.013147e+02 
3.015100e-01 6.971654e+02 
3.026800e-01 6.932890e+02 
3.038500e-01 6.894495e+02 
3.050300e-01 6.856142e+02 
3.062600e-01 6.816530e+02 
3.075000e-01 6.776993e+02 
3.087000e-01 6.739107e+02 
3.099100e-01 6.701273e+02 
3.111200e-01 6.663799e+02 
3.123100e-01 6.627288e+02 
3.135300e-01 6.590212e+02 
3.147300e-01 6.554093e+02 
3.159900e-01 6.516533e+02 
3.171800e-01 6.481378e+02 
3.183700e-01 6.446536e+02 
3.196300e-01 6.409995e+02 
3.208400e-01 6.375238e+02 
3.220300e-01 6.341372e+02 
3.232000e-01 6.308378e+02 
3.244300e-01 6.274011e+02 
3.256700e-01 6.239690e+02 
3.269200e-01 6.205419e+02 
3.280800e-01 6.173905e+02 
3.292500e-01 6.142440e+02 
3.304800e-01 6.109672e+02 
3.317100e-01 6.077204e+02 
3.328900e-01 6.046336e+02 
3.340700e-01 6.015738e+02 
3.353600e-01 5.982650e+02 
3.365300e-01 5.952932e+02 
3.377100e-01 5.923219e+02 
3.389200e-01 5.893017e+02 
3.401600e-01 5.862342e+02 
3.413700e-01 5.832757e+02 
3.425300e-01 5.804695e+02 
3.437700e-01 5.774957e+02 
3.449800e-01 5.746194e+02 
3.461800e-01 5.717913e+02 
3.473600e-01 5.690385e+02 
3.485800e-01 5.662276e+02 
3.498100e-01 5.634181e+02 
3.510200e-01 5.606781e+02 
3.522000e-01 5.580285e+02 
3.533900e-01 5.553785e+02 
3.546400e-01 5.526351e+02 
3.558400e-01 5.500247e+02 
3.570600e-01 5.473930e+02 
3.582700e-01 5.448047e+02 
3.595000e-01 5.421957e+02 
3.607100e-01 5.396611e+02 
3.618900e-01 5.372176e+02 
3.631200e-01 5.346915e+02 
3.643200e-01 5.322472e+02 
3.655500e-01 5.297624e+02 
3.667300e-01 5.273979e+02 
3.679500e-01 5.249940e+02 
3.691900e-01 5.225707e+02 
3.703600e-01 5.203026e+02 
3.715700e-01 5.179754e+02 
3.727700e-01 5.156859e+02 
3.739900e-01 5.133842e+02 
3.752000e-01 5.111331e+02 
3.763900e-01 5.089366e+02 
3.775800e-01 5.067572e+02 
3.788200e-01 5.045041e+02 
3.800300e-01 5.023230e+02 
3.812100e-01 5.002228e+02 
3.824200e-01 4.980928e+02 
3.836100e-01 4.960142e+02 
3.848600e-01 4.938478e+02 
3.860400e-01 4.918185e+02 
3.872400e-01 4.897704e+02 
3.884600e-01 4.877174e+02 
3.896500e-01 4.857350e+02 
3.908700e-01 4.837181e+02 
3.920600e-01 4.817656e+02 
3.933100e-01 4.797303e+02 
3.945300e-01 4.777591e+02 
3.957200e-01 4.758656e+02 
3.969300e-01 4.739588e+02 
3.981700e-01 4.720195e+02 
3.993500e-01 4.701877e+02 
4.094840e-01 4.550306e+02 
4.272360e-01 4.309134e+02 
4.454600e-01 4.087485e+02 
4.630560e-01 3.894086e+02 
4.804610e-01 3.719527e+02 
4.980690e-01 3.557441e+02 
5.159230e-01 3.405991e+02 
5.317440e-01 3.281570e+02 
5.489640e-01 3.155439e+02 
5.671990e-01 3.031590e+02 
5.838690e-01 2.926426e+02 
6.018840e-01 2.820644e+02 
6.202330e-01 2.720613e+02 
6.379250e-01 2.630887e+02 
6.545410e-01 2.552270e+02 
6.714560e-01 2.477209e+02 
6.892080e-01 2.403536e+02 
7.066010e-01 2.335988e+02 
7.240540e-01 2.272271e+02 
7.420450e-01 2.210685e+02 
7.593780e-01 2.154827e+02 
7.764720e-01 2.102766e+02 
7.942840e-01 2.051475e+02 
8.116170e-01 2.004257e+02 
8.288310e-01 1.959714e+02 
8.462240e-01 1.916929e+02 
8.631980e-01 1.877071e+02 
8.810700e-01 1.837019e+02 
8.989410e-01 1.798740e+02 
9.166330e-01 1.762491e+02 
9.345640e-01 1.727327e+02 
9.515980e-01 1.695180e+02 
9.688720e-01 1.663764e+02 
9.865640e-01 1.632758e+02 
1.031870e+00 1.558180e+02 
1.063490e+00 1.509730e+02 
1.097920e+00 1.460021e+02 
1.134370e+00 1.410353e+02 
1.167730e+00 1.367369e+02 
1.203830e+00 1.323061e+02 
1.240470e+00 1.280476e+02 
1.275790e+00 1.241312e+02 
1.309140e+00 1.206120e+02 
1.342970e+00 1.171696e+02 
1.378420e+00 1.137297e+02 
1.413200e+00 1.104914e+02 
1.448110e+00 1.073719e+02 
1.484090e+00 1.042907e+02 
1.518820e+00 1.014325e+02 
1.552880e+00 9.873224e+01 
1.588630e+00 9.600600e+01 
1.623230e+00 9.346890e+01 
1.657720e+00 9.103039e+01 
1.692450e+00 8.866781e+01 
1.726400e+00 8.643344e+01 
1.762200e+00 8.415823e+01 
1.797880e+00 8.197395e+01 
1.833270e+00 7.988456e+01 
1.869070e+00 7.784233e+01 
1.903200e+00 7.596277e+01 
1.937740e+00 7.412370e+01 
1.973190e+00 7.229792e+01 
2.007440e+00 7.059328e+01 
2.042160e+00 6.891960e+01 
2.077900e+00 6.725098e+01 
2.112390e+00 6.569524e+01 
2.146220e+00 6.421255e+01 
2.181600e+00 6.271100e+01 
2.216930e+00 6.125840e+01 
2.250760e+00 5.991038e+01 
2.286500e+00 5.852984e+01 
2.321770e+00 5.720933e+01 
2.355950e+00 5.596881e+01 
2.391280e+00 5.472028e+01 
2.426240e+00 5.352246e+01 
2.460670e+00 5.237864e+01 
2.495640e+00 5.125176e+01 
2.531080e+00 5.013934e+01 
2.566220e+00 4.906798e+01 
2.600830e+00 4.804368e+01 
2.635080e+00 4.705949e+01 
2.670340e+00 4.607240e+01 
2.705970e+00 4.510344e+01 
2.740040e+00 4.420286e+01 
2.774520e+00 4.331427e+01 
2.809730e+00 4.243111e+01 
2.844390e+00 4.158627e+01 
2.879960e+00 4.074298e+01 
2.914860e+00 3.993664e+01 
2.949410e+00 3.916006e+01 
2.984440e+00 3.839258e+01 
3.019760e+00 3.763857e+01 
3.054730e+00 3.691207e+01 
3.089030e+00 3.621685e+01 
3.124060e+00 3.552556e+01 
3.159560e+00 3.484284e+01 
3.194710e+00 3.418384e+01 
3.229010e+00 3.355775e+01 
3.263320e+00 3.294530e+01 
3.297930e+00 3.234321e+01 
3.332830e+00 3.175037e+01 
3.368040e+00 3.116739e+01 
3.403300e+00 3.059854e+01 
3.438450e+00 3.004469e+01 
3.473060e+00 2.951322e+01 
3.508440e+00 2.898166e+01 
3.543110e+00 2.847407e+01 
3.577470e+00 2.798275e+01 
3.613040e+00 2.748642e+01 
3.648120e+00 2.700755e+01 
3.682910e+00 2.654416e+01 
3.718050e+00 2.608706e+01 
3.753320e+00 2.563909e+01 
3.787980e+00 2.520884e+01 
3.822290e+00 2.479273e+01 
3.857020e+00 2.438093e+01 
3.891920e+00 2.397650e+01 
3.926650e+00 2.358273e+01 
3.961970e+00 2.319161e+01 
3.997360e+00 2.280872e+01 
4.031670e+00 2.244592e+01 
4.066330e+00 2.208700e+01 
4.101420e+00 2.173186e+01 
4.136200e+00 2.138726e+01 
4.170810e+00 2.105198e+01 
4.206250e+00 2.071597e+01 
4.241580e+00 2.038843e+01 
4.276300e+00 2.007350e+01 
4.310970e+00 1.976576e+01 
4.346120e+00 1.946041e+01 
4.380600e+00 1.916714e+01 
4.414730e+00 1.888293e+01 
4.450350e+00 1.859261e+01 
4.485320e+00 1.831365e+01 
4.519810e+00 1.804420e+01 
4.555430e+00 1.777171e+01 
4.590870e+00 1.750625e+01 
4.625480e+00 1.725230e+01 
4.659910e+00 1.700473e+01 
4.695230e+00 1.675621e+01 
4.729960e+00 1.651679e+01 
4.764450e+00 1.628374e+01 
4.799530e+00 1.605140e+01 
4.834910e+00 1.582172e+01 
4.869700e+00 1.560054e+01 
4.904370e+00 1.538441e+01 
4.939450e+00 1.517003e+01 
4.973940e+00 1.496350e+01 
5.008430e+00 1.476085e+01 
5.043810e+00 1.455702e+01 
5.078840e+00 1.435909e+01 
5.113500e+00 1.416689e+01 
5.148890e+00 1.397471e+01 
5.184210e+00 1.378650e+01 
5.219060e+00 1.360430e+01 
5.253660e+00 1.342696e+01 
5.288570e+00 1.325126e+01 
5.323420e+00 1.307915e+01 
5.358440e+00 1.290948e+01 
5.393590e+00 1.274220e+01 
5.428310e+00 1.258021e+01 
5.462800e+00 1.242226e+01 
5.497640e+00 1.226546e+01 
5.532670e+00 1.211089e+01 
5.567280e+00 1.196091e+01 
5.602000e+00 1.181301e+01 
5.637270e+00 1.166563e+01 
5.672410e+00 1.152136e+01 
5.707020e+00 1.138166e+01 
5.742040e+00 1.124310e+01 
5.777430e+00 1.110550e+01 
5.812210e+00 1.097252e+01 
5.846820e+00 1.084261e+01 
5.881610e+00 1.071420e+01 
5.916510e+00 1.058747e+01 
5.951600e+00 1.046244e+01 
5.986560e+00 1.034001e+01 
6.021830e+00 1.021848e+01 
6.056490e+00 1.010122e+01 
6.091160e+00 9.985994e+00 
6.125830e+00 9.872559e+00 
6.161090e+00 9.759117e+00 
6.195760e+00 9.649565e+00 
6.230420e+00 9.541723e+00 
6.265690e+00 9.433685e+00 
6.300950e+00 9.327758e+00 
6.335620e+00 9.225186e+00 
6.370880e+00 9.122445e+00 
6.405550e+00 9.023212e+00 
6.440220e+00 8.925559e+00 
6.475480e+00 8.827721e+00 
6.510150e+00 8.733068e+00 
6.544810e+00 8.640100e+00 
6.580080e+00 8.546881e+00 
6.614750e+00 8.456584e+00 
6.649410e+00 8.367927e+00 
6.684080e+00 8.280574e+00 
6.719340e+00 8.193009e+00 
6.754010e+00 8.108256e+00 
6.788680e+00 8.024973e+00 
6.823940e+00 7.941468e+00 
6.859800e+00 7.857756e+00 
6.894470e+00 7.778191e+00 
6.929140e+00 7.699806e+00 
6.963800e+00 7.622519e+00 
6.999070e+00 7.544977e+00 
7.033730e+00 7.470121e+00 
7.068400e+00 7.396256e+00 
7.103660e+00 7.322154e+00 
7.138330e+00 7.250381e+00 
7.173600e+00 7.178563e+00 
7.208260e+00 7.108932e+00 
7.243530e+00 7.039019e+00 
7.277600e+00 6.972516e+00 
7.312860e+00 6.904720e+00 
7.348120e+00 6.837821e+00 
7.382790e+00 6.772902e+00 
7.417460e+00 6.709049e+00 
7.452720e+00 6.645068e+00 
7.487390e+00 6.582969e+00 
7.522650e+00 6.520622e+00 
7.557320e+00 6.460269e+00 
7.591990e+00 6.400738e+00 
7.627250e+00 6.340960e+00 
7.662510e+00 6.281942e+00 
7.697180e+00 6.224836e+00 
7.731850e+00 6.168511e+00 
7.766510e+00 6.112897e+00 
7.801180e+00 6.057950e+00 
7.836440e+00 6.002893e+00 
7.871110e+00 5.949506e+00 
7.906380e+00 5.895859e+00 
7.941040e+00 5.843781e+00 
7.976310e+00 5.791524e+00 
8.011570e+00 5.740030e+00 
8.046240e+00 5.690005e+00 
8.080900e+00 5.640588e+00 
8.115570e+00 5.591786e+00 
8.150830e+00 5.542917e+00 
8.185500e+00 5.495433e+00 
8.220770e+00 5.447695e+00 
8.255430e+00 5.401332e+00 
8.290100e+00 5.355683e+00 
8.324770e+00 5.310581e+00 
8.359430e+00 5.266008e+00 
8.394700e+00 5.221174e+00 
8.429960e+00 5.176965e+00 
8.464630e+00 5.134089e+00 
8.499890e+00 5.090978e+00 
8.534560e+00 5.049069e+00 
8.569200e+00 5.007665e+00 
