# Parameters:
# omega_b = 0.023028, omega_m = 0.134055, n_s = 1.038976, h = 83.346457, w = -1.000000, sigma_8 = 0.866929
# z = 1.300000
#
# k[1/Mpc] # P(k):
8.694000e-04 3.890629e+03 
2.077466e-03 8.795522e+03 
3.285532e-03 1.280244e+04 
4.493598e-03 1.597666e+04 
5.701664e-03 1.838688e+04 
6.909730e-03 2.013739e+04 
8.117797e-03 2.136260e+04 
9.325863e-03 2.213056e+04 
1.053393e-02 2.251108e+04 
1.174199e-02 2.256948e+04 
1.295006e-02 2.234999e+04 
1.415813e-02 2.191472e+04 
1.536619e-02 2.131574e+04 
1.657426e-02 2.058686e+04 
1.778233e-02 1.974350e+04 
1.899039e-02 1.882498e+04 
2.019846e-02 1.789686e+04 
2.140652e-02 1.700646e+04 
2.261459e-02 1.615723e+04 
2.382266e-02 1.535686e+04 
2.503072e-02 1.461456e+04 
2.623879e-02 1.393399e+04 
2.744685e-02 1.331728e+04 
2.865492e-02 1.276445e+04 
2.986299e-02 1.227218e+04 
3.100100e-02 1.186256e+04 
3.220400e-02 1.148143e+04 
3.288100e-02 1.128995e+04 
3.424300e-02 1.094686e+04 
3.555100e-02 1.066206e+04 
3.686000e-02 1.041417e+04 
3.795000e-02 1.022954e+04 
3.929100e-02 1.002399e+04 
4.039800e-02 9.865030e+03 
4.164000e-02 9.692825e+03 
4.294400e-02 9.509423e+03 
4.415000e-02 9.337269e+03 
4.542900e-02 9.141172e+03 
4.660900e-02 8.952468e+03 
4.782300e-02 8.738109e+03 
4.892900e-02 8.533482e+03 
5.031200e-02 8.261631e+03 
5.155900e-02 8.001645e+03 
5.238100e-02 7.824978e+03 
5.378200e-02 7.517227e+03 
5.513400e-02 7.213677e+03 
5.627600e-02 6.955437e+03 
5.735300e-02 6.712974e+03 
5.870100e-02 6.413414e+03 
5.988700e-02 6.156870e+03 
6.113500e-02 5.896717e+03 
6.225900e-02 5.674631e+03 
6.340100e-02 5.464142e+03 
6.480200e-02 5.228347e+03 
6.601100e-02 5.048947e+03 
6.725500e-02 4.887035e+03 
6.829100e-02 4.770925e+03 
6.958600e-02 4.643647e+03 
7.071100e-02 4.549842e+03 
7.192300e-02 4.462836e+03 
7.307400e-02 4.391732e+03 
7.412300e-02 4.335024e+03 
7.550400e-02 4.270788e+03 
7.663100e-02 4.224034e+03 
7.791200e-02 4.176286e+03 
7.912700e-02 4.133252e+03 
8.027600e-02 4.092892e+03 
8.138400e-02 4.053328e+03 
8.272200e-02 4.003250e+03 
8.406100e-02 3.949409e+03 
8.534100e-02 3.891993e+03 
8.653800e-02 3.832640e+03 
8.759800e-02 3.776739e+03 
8.900300e-02 3.697156e+03 
9.009000e-02 3.630938e+03 
9.113300e-02 3.563478e+03 
9.239600e-02 3.479585e+03 
9.358000e-02 3.398108e+03 
9.496100e-02 3.300016e+03 
9.608400e-02 3.220207e+03 
9.727500e-02 3.136284e+03 
9.852600e-02 3.048327e+03 
9.973800e-02 2.965917e+03 
1.009000e-01 2.889444e+03 
1.020900e-01 2.815454e+03 
1.034000e-01 2.738459e+03 
1.046000e-01 2.672135e+03 
1.057200e-01 2.616420e+03 
1.069100e-01 2.560709e+03 
1.082500e-01 2.505323e+03 
1.093900e-01 2.463292e+03 
1.105400e-01 2.424148e+03 
1.116900e-01 2.391122e+03 
1.129600e-01 2.357291e+03 
1.142000e-01 2.329279e+03 
1.153300e-01 2.305684e+03 
1.166400e-01 2.281037e+03 
1.177800e-01 2.261094e+03 
1.190000e-01 2.240735e+03 
1.201200e-01 2.222001e+03 
1.213400e-01 2.202006e+03 
1.227100e-01 2.177605e+03 
1.238900e-01 2.156349e+03 
1.250700e-01 2.132960e+03 
1.263200e-01 2.107540e+03 
1.275500e-01 2.080391e+03 
1.287500e-01 2.053052e+03 
1.299900e-01 2.023137e+03 
1.311300e-01 1.995007e+03 
1.323500e-01 1.963703e+03 
1.335900e-01 1.931694e+03 
1.347100e-01 1.902196e+03 
1.359800e-01 1.869057e+03 
1.372100e-01 1.836802e+03 
1.384300e-01 1.805444e+03 
1.395700e-01 1.776503e+03 
1.407700e-01 1.746761e+03 
1.420300e-01 1.716592e+03 
1.432800e-01 1.687375e+03 
1.444500e-01 1.661586e+03 
1.456300e-01 1.636139e+03 
1.468900e-01 1.610678e+03 
1.480500e-01 1.588070e+03 
1.491700e-01 1.567357e+03 
1.503800e-01 1.546292e+03 
1.516400e-01 1.525116e+03 
1.528200e-01 1.507001e+03 
1.540200e-01 1.488937e+03 
1.551900e-01 1.472775e+03 
1.564300e-01 1.456243e+03 
1.576600e-01 1.440612e+03 
1.588700e-01 1.426068e+03 
1.600900e-01 1.411700e+03 
1.612700e-01 1.398512e+03 
1.625400e-01 1.384579e+03 
1.637600e-01 1.371378e+03 
1.649500e-01 1.358694e+03 
1.662200e-01 1.345315e+03 
1.674000e-01 1.332623e+03 
1.685000e-01 1.320989e+03 
1.697500e-01 1.307533e+03 
1.710300e-01 1.293548e+03 
1.722200e-01 1.280777e+03 
1.734400e-01 1.266924e+03 
1.746400e-01 1.253495e+03 
1.758700e-01 1.239684e+03 
1.770900e-01 1.225646e+03 
1.782700e-01 1.212301e+03 
1.794600e-01 1.198720e+03 
1.807000e-01 1.184578e+03 
1.819100e-01 1.171018e+03 
1.830100e-01 1.158696e+03 
1.842200e-01 1.145329e+03 
1.855000e-01 1.131440e+03 
1.867000e-01 1.118734e+03 
1.879200e-01 1.106032e+03 
1.890900e-01 1.094103e+03 
1.902800e-01 1.082430e+03 
1.915200e-01 1.070466e+03 
1.926900e-01 1.059465e+03 
1.939000e-01 1.048610e+03 
1.951700e-01 1.037402e+03 
1.963100e-01 1.027614e+03 
1.975100e-01 1.017772e+03 
1.987800e-01 1.007520e+03 
2.000100e-01 9.978533e+02 
2.012500e-01 9.885040e+02 
2.023400e-01 9.804042e+02 
2.036100e-01 9.711461e+02 
2.048900e-01 9.621243e+02 
2.060400e-01 9.541380e+02 
2.072200e-01 9.460632e+02 
2.084200e-01 9.380295e+02 
2.096900e-01 9.296519e+02 
2.109200e-01 9.216578e+02 
2.121100e-01 9.139795e+02 
2.132700e-01 9.065948e+02 
2.145200e-01 8.987486e+02 
2.157200e-01 8.912544e+02 
2.168800e-01 8.840768e+02 
2.180700e-01 8.768127e+02 
2.193400e-01 8.691247e+02 
2.206000e-01 8.615249e+02 
2.217500e-01 8.546831e+02 
2.229500e-01 8.476381e+02 
2.241400e-01 8.406560e+02 
2.253500e-01 8.336494e+02 
2.264900e-01 8.271342e+02 
2.277100e-01 8.202318e+02 
2.289900e-01 8.130662e+02 
2.301500e-01 8.066591e+02 
2.313600e-01 8.000622e+02 
2.325600e-01 7.936129e+02 
2.337700e-01 7.871943e+02 
2.350000e-01 7.807550e+02 
2.362000e-01 7.745766e+02 
2.374100e-01 7.684528e+02 
2.386500e-01 7.622582e+02 
2.399100e-01 7.560462e+02 
2.410400e-01 7.506033e+02 
2.422500e-01 7.448532e+02 
2.435000e-01 7.389882e+02 
2.447300e-01 7.333053e+02 
2.458700e-01 7.281615e+02 
2.470600e-01 7.228554e+02 
2.483300e-01 7.172627e+02 
2.495600e-01 7.119384e+02 
2.507600e-01 7.068403e+02 
2.519600e-01 7.018027e+02 
2.532200e-01 6.965774e+02 
2.543700e-01 6.918879e+02 
2.555500e-01 6.871464e+02 
2.568000e-01 6.821828e+02 
2.580100e-01 6.774352e+02 
2.592400e-01 6.726784e+02 
2.604100e-01 6.682111e+02 
2.616100e-01 6.636809e+02 
2.628400e-01 6.590909e+02 
2.640600e-01 6.545899e+02 
2.652200e-01 6.503576e+02 
2.664300e-01 6.459918e+02 
2.676500e-01 6.416397e+02 
2.688400e-01 6.374337e+02 
2.700700e-01 6.331298e+02 
2.712400e-01 6.290810e+02 
2.724800e-01 6.248372e+02 
2.736700e-01 6.208028e+02 
2.748800e-01 6.167381e+02 
2.761000e-01 6.126849e+02 
2.773200e-01 6.086761e+02 
2.785400e-01 6.047059e+02 
2.797000e-01 6.009602e+02 
2.808900e-01 5.971577e+02 
2.821400e-01 5.932066e+02 
2.833900e-01 5.892984e+02 
2.845500e-01 5.856966e+02 
2.857800e-01 5.819174e+02 
2.870300e-01 5.781181e+02 
2.882100e-01 5.745694e+02 
2.893900e-01 5.710525e+02 
2.906300e-01 5.673930e+02 
2.918900e-01 5.637143e+02 
2.930500e-01 5.603624e+02 
2.942500e-01 5.569287e+02 
2.954200e-01 5.536113e+02 
2.966500e-01 5.501590e+02 
2.978900e-01 5.467147e+02 
2.990400e-01 5.435522e+02 
3.002700e-01 5.402030e+02 
3.015100e-01 5.368610e+02 
3.026800e-01 5.337389e+02 
3.038500e-01 5.306470e+02 
3.050300e-01 5.275587e+02 
3.062600e-01 5.243747e+02 
3.075000e-01 5.211970e+02 
3.087000e-01 5.181522e+02 
3.099100e-01 5.151119e+02 
3.111200e-01 5.121043e+02 
3.123100e-01 5.091803e+02 
3.135300e-01 5.062114e+02 
3.147300e-01 5.033191e+02 
3.159900e-01 5.003118e+02 
3.171800e-01 4.975041e+02 
3.183700e-01 4.947259e+02 
3.196300e-01 4.918124e+02 
3.208400e-01 4.890414e+02 
3.220300e-01 4.863416e+02 
3.232000e-01 4.837188e+02 
3.244300e-01 4.809900e+02 
3.256700e-01 4.782650e+02 
3.269200e-01 4.755441e+02 
3.280800e-01 4.730423e+02 
3.292500e-01 4.705506e+02 
3.304800e-01 4.679578e+02 
3.317100e-01 4.653889e+02 
3.328900e-01 4.629467e+02 
3.340700e-01 4.605260e+02 
3.353600e-01 4.579127e+02 
3.365300e-01 4.555673e+02 
3.377100e-01 4.532224e+02 
3.389200e-01 4.508390e+02 
3.401600e-01 4.484184e+02 
3.413700e-01 4.460853e+02 
3.425300e-01 4.438732e+02 
3.437700e-01 4.415292e+02 
3.449800e-01 4.392621e+02 
3.461800e-01 4.370332e+02 
3.473600e-01 4.348632e+02 
3.485800e-01 4.326468e+02 
3.498100e-01 4.304316e+02 
3.510200e-01 4.282712e+02 
3.522000e-01 4.261822e+02 
3.533900e-01 4.240930e+02 
3.546400e-01 4.219262e+02 
3.558400e-01 4.198644e+02 
3.570600e-01 4.177859e+02 
3.582700e-01 4.157418e+02 
3.595000e-01 4.136813e+02 
3.607100e-01 4.116760e+02 
3.618900e-01 4.097401e+02 
3.631200e-01 4.077387e+02 
3.643200e-01 4.058023e+02 
3.655500e-01 4.038339e+02 
3.667300e-01 4.019608e+02 
3.679500e-01 4.000482e+02 
3.691900e-01 3.981202e+02 
3.703600e-01 3.963157e+02 
3.715700e-01 3.944644e+02 
3.727700e-01 3.926430e+02 
3.739900e-01 3.908087e+02 
3.752000e-01 3.890086e+02 
3.763900e-01 3.872522e+02 
3.775800e-01 3.855096e+02 
3.788200e-01 3.837081e+02 
3.800300e-01 3.819643e+02 
3.812100e-01 3.802793e+02 
3.824200e-01 3.785665e+02 
3.836100e-01 3.768951e+02 
3.848600e-01 3.751532e+02 
3.860400e-01 3.735216e+02 
3.872400e-01 3.718750e+02 
3.884600e-01 3.702175e+02 
3.896500e-01 3.686146e+02 
3.908700e-01 3.669837e+02 
3.920600e-01 3.654051e+02 
3.933100e-01 3.637595e+02 
3.945300e-01 3.621659e+02 
3.957200e-01 3.606266e+02 
3.969300e-01 3.590740e+02 
3.981700e-01 3.574950e+02 
3.993500e-01 3.560037e+02 
4.094840e-01 3.436400e+02 
4.272360e-01 3.237876e+02 
4.454600e-01 3.054747e+02 
4.630560e-01 2.895086e+02 
4.804610e-01 2.751679e+02 
4.980690e-01 2.619514e+02 
5.159230e-01 2.497153e+02 
5.317440e-01 2.397452e+02 
5.489640e-01 2.297281e+02 
5.671990e-01 2.199737e+02 
5.838690e-01 2.117388e+02 
6.018840e-01 2.034991e+02 
6.202330e-01 1.957461e+02 
6.379250e-01 1.888086e+02 
6.545410e-01 1.827474e+02 
6.714560e-01 1.769684e+02 
6.892080e-01 1.713015e+02 
7.066010e-01 1.661106e+02 
7.240540e-01 1.612188e+02 
7.420450e-01 1.564936e+02 
7.593780e-01 1.522128e+02 
7.764720e-01 1.482262e+02 
7.942840e-01 1.443041e+02 
8.116170e-01 1.406984e+02 
8.288310e-01 1.373052e+02 
8.462240e-01 1.340513e+02 
8.631980e-01 1.310291e+02 
8.810700e-01 1.280001e+02 
8.989410e-01 1.251157e+02 
9.166330e-01 1.223929e+02 
9.345640e-01 1.197598e+02 
9.515980e-01 1.173640e+02 
9.688720e-01 1.150327e+02 
9.865640e-01 1.127427e+02 
1.031870e+00 1.072751e+02 
1.063490e+00 1.037604e+02 
1.097920e+00 1.001855e+02 
1.134370e+00 9.664570e+01 
1.167730e+00 9.360955e+01 
1.203830e+00 9.051081e+01 
1.240470e+00 8.755430e+01 
1.275790e+00 8.485974e+01 
1.309140e+00 8.245252e+01 
1.342970e+00 8.011834e+01 
1.378420e+00 7.779705e+01 
1.413200e+00 7.562586e+01 
1.448110e+00 7.354495e+01 
1.484090e+00 7.149938e+01 
1.518820e+00 6.961030e+01 
1.552880e+00 6.783311e+01 
1.588630e+00 6.604442e+01 
1.623230e+00 6.438506e+01 
1.657720e+00 6.279499e+01 
1.692450e+00 6.125743e+01 
1.726400e+00 5.980682e+01 
1.762200e+00 5.833263e+01 
1.797880e+00 5.691971e+01 
1.833270e+00 5.556989e+01 
1.869070e+00 5.425204e+01 
1.903200e+00 5.304005e+01 
1.937740e+00 5.185492e+01 
1.973190e+00 5.067881e+01 
2.007440e+00 4.958073e+01 
2.042160e+00 4.850291e+01 
2.077900e+00 4.742853e+01 
2.112390e+00 4.642630e+01 
2.146220e+00 4.547108e+01 
2.181600e+00 4.450323e+01 
2.216930e+00 4.356637e+01 
2.250760e+00 4.269631e+01 
2.286500e+00 4.180455e+01 
2.321770e+00 4.095085e+01 
2.355950e+00 4.014791e+01 
2.391280e+00 3.933921e+01 
2.426240e+00 3.856226e+01 
2.460670e+00 3.781935e+01 
2.495640e+00 3.708656e+01 
2.531080e+00 3.636221e+01 
2.566220e+00 3.566365e+01 
2.600830e+00 3.499477e+01 
2.635080e+00 3.435105e+01 
2.670340e+00 3.370404e+01 
2.705970e+00 3.306801e+01 
2.740040e+00 3.247606e+01 
2.774520e+00 3.189096e+01 
2.809730e+00 3.130830e+01 
2.844390e+00 3.074997e+01 
2.879960e+00 3.019137e+01 
2.914860e+00 2.965625e+01 
2.949410e+00 2.914007e+01 
2.984440e+00 2.862874e+01 
3.019760e+00 2.812557e+01 
3.054730e+00 2.764006e+01 
3.089030e+00 2.717385e+01 
3.124060e+00 2.670953e+01 
3.159560e+00 2.625009e+01 
3.194710e+00 2.580550e+01 
3.229010e+00 2.538246e+01 
3.263320e+00 2.496732e+01 
3.297930e+00 2.455863e+01 
3.332830e+00 2.415539e+01 
3.368040e+00 2.375782e+01 
3.403300e+00 2.336906e+01 
3.438450e+00 2.298952e+01 
3.473060e+00 2.262484e+01 
3.508440e+00 2.225894e+01 
3.543110e+00 2.190905e+01 
3.577470e+00 2.156910e+01 
3.613040e+00 2.122522e+01 
3.648120e+00 2.089273e+01 
3.682910e+00 2.057034e+01 
3.718050e+00 2.025132e+01 
3.753320e+00 1.993812e+01 
3.787980e+00 1.963661e+01 
3.822290e+00 1.934439e+01 
3.857020e+00 1.905440e+01 
3.891920e+00 1.876908e+01 
3.926650e+00 1.849054e+01 
3.961970e+00 1.821336e+01 
3.997360e+00 1.794115e+01 
4.031670e+00 1.768286e+01 
4.066330e+00 1.742660e+01 
4.101420e+00 1.717280e+01 
4.136200e+00 1.692553e+01 
4.170810e+00 1.668477e+01 
4.206250e+00 1.644268e+01 
4.241580e+00 1.620640e+01 
4.276300e+00 1.597854e+01 
4.310970e+00 1.575542e+01 
4.346120e+00 1.553363e+01 
4.380600e+00 1.532005e+01 
4.414730e+00 1.511289e+01 
4.450350e+00 1.490041e+01 
4.485320e+00 1.469608e+01 
4.519810e+00 1.449811e+01 
4.555430e+00 1.429754e+01 
4.590870e+00 1.410183e+01 
4.625480e+00 1.391411e+01 
4.659910e+00 1.373098e+01 
4.695230e+00 1.354640e+01 
4.729960e+00 1.336838e+01 
4.764450e+00 1.319475e+01 
4.799530e+00 1.302117e+01 
4.834910e+00 1.284947e+01 
4.869700e+00 1.268355e+01 
4.904370e+00 1.252124e+01 
4.939450e+00 1.235999e+01 
4.973940e+00 1.220417e+01 
5.008430e+00 1.205119e+01 
5.043810e+00 1.189691e+01 
5.078840e+00 1.174681e+01 
5.113500e+00 1.160098e+01 
5.148890e+00 1.145457e+01 
5.184210e+00 1.131107e+01 
5.219060e+00 1.117197e+01 
5.253660e+00 1.103618e+01 
5.288570e+00 1.090156e+01 
5.323420e+00 1.076943e+01 
5.358440e+00 1.063888e+01 
5.393590e+00 1.051011e+01 
5.428310e+00 1.038504e+01 
5.462800e+00 1.026288e+01 
5.497640e+00 1.014156e+01 
5.532670e+00 1.002159e+01 
5.567280e+00 9.905025e+00 
5.602000e+00 9.790025e+00 
5.637270e+00 9.675093e+00 
5.672410e+00 9.562474e+00 
5.707020e+00 9.453367e+00 
5.742040e+00 9.344789e+00 
5.777430e+00 9.236861e+00 
5.812210e+00 9.132509e+00 
5.846820e+00 9.030278e+00 
5.881610e+00 8.929131e+00 
5.916510e+00 8.829268e+00 
5.951600e+00 8.730466e+00 
5.986560e+00 8.633587e+00 
6.021830e+00 8.537380e+00 
6.056490e+00 8.444360e+00 
6.091160e+00 8.352783e+00 
6.125830e+00 8.262601e+00 
6.161090e+00 8.172301e+00 
6.195760e+00 8.084896e+00 
6.230420e+00 7.998825e+00 
6.265690e+00 7.912561e+00 
6.300950e+00 7.827691e+00 
6.335620e+00 7.745485e+00 
6.370880e+00 7.663117e+00 
6.405550e+00 7.583384e+00 
6.440220e+00 7.504835e+00 
6.475480e+00 7.426115e+00 
6.510150e+00 7.349862e+00 
6.544810e+00 7.274783e+00 
6.580080e+00 7.199480e+00 
6.614750e+00 7.126517e+00 
6.649410e+00 7.054707e+00 
6.684080e+00 6.983906e+00 
6.719340e+00 6.912914e+00 
6.754010e+00 6.844125e+00 
6.788680e+00 6.776371e+00 
6.823940e+00 6.708421e+00 
6.859800e+00 6.640287e+00 
6.894470e+00 6.575395e+00 
6.929140e+00 6.511410e+00 
6.963800e+00 6.448307e+00 
6.999070e+00 6.384971e+00 
7.033730e+00 6.323674e+00 
7.068400e+00 6.263177e+00 
7.103660e+00 6.202472e+00 
7.138330e+00 6.143618e+00 
7.173600e+00 6.084621e+00 
7.208260e+00 6.027410e+00 
7.243530e+00 5.969956e+00 
7.277600e+00 5.915228e+00 
7.312860e+00 5.859366e+00 
7.348120e+00 5.804235e+00 
7.382790e+00 5.750725e+00 
7.417460e+00 5.697995e+00 
7.452720e+00 5.645105e+00 
7.487390e+00 5.593761e+00 
7.522650e+00 5.542205e+00 
7.557320e+00 5.492223e+00 
7.591990e+00 5.442891e+00 
7.627250e+00 5.393346e+00 
7.662510e+00 5.344424e+00 
7.697180e+00 5.297007e+00 
7.731850e+00 5.250205e+00 
7.766510e+00 5.203988e+00 
7.801180e+00 5.158318e+00 
7.836440e+00 5.112504e+00 
7.871110e+00 5.068045e+00 
7.906380e+00 5.023363e+00 
7.941040e+00 4.979982e+00 
7.976310e+00 4.936409e+00 
8.011570e+00 4.893423e+00 
8.046240e+00 4.851658e+00 
8.080900e+00 4.810395e+00 
8.115570e+00 4.769628e+00 
8.150830e+00 4.728751e+00 
8.185500e+00 4.689027e+00 
8.220770e+00 4.649086e+00 
8.255430e+00 4.610292e+00 
8.290100e+00 4.572027e+00 
8.324770e+00 4.534209e+00 
8.359430e+00 4.496832e+00 
8.394700e+00 4.459232e+00 
8.429960e+00 4.422128e+00 
8.464630e+00 4.386116e+00 
8.499890e+00 4.349904e+00 
8.534560e+00 4.314697e+00 
8.569200e+00 4.279912e+00 
