# Parameters:
# omega_b = 0.021894, omega_m = 0.140118, n_s = 1.001181, h = 61.377953, w = -1.000000, sigma_8 = 0.855906
# z = 1.300000
#
# k[1/Mpc] # P(k):
8.694000e-04 4.614950e+03 
2.077466e-03 1.017414e+04 
3.285532e-03 1.464075e+04 
4.493598e-03 1.815169e+04 
5.701664e-03 2.082354e+04 
6.909730e-03 2.277206e+04 
8.117797e-03 2.414085e+04 
9.325863e-03 2.500481e+04 
1.053393e-02 2.544384e+04 
1.174199e-02 2.553443e+04 
1.295006e-02 2.532401e+04 
1.415813e-02 2.487819e+04 
1.536619e-02 2.425537e+04 
1.657426e-02 2.349708e+04 
1.778233e-02 2.265064e+04 
1.899039e-02 2.177701e+04 
2.019846e-02 2.088221e+04 
2.140652e-02 1.997830e+04 
2.261459e-02 1.908622e+04 
2.382266e-02 1.822965e+04 
2.503072e-02 1.742339e+04 
2.623879e-02 1.667324e+04 
2.744685e-02 1.598167e+04 
2.865492e-02 1.535159e+04 
2.986299e-02 1.478099e+04 
3.100100e-02 1.429676e+04 
3.220400e-02 1.383709e+04 
3.288100e-02 1.360138e+04 
3.424300e-02 1.317056e+04 
3.555100e-02 1.280358e+04 
3.686000e-02 1.247572e+04 
3.795000e-02 1.222661e+04 
3.929100e-02 1.194450e+04 
4.039800e-02 1.172550e+04 
4.164000e-02 1.148965e+04 
4.294400e-02 1.124468e+04 
4.415000e-02 1.102042e+04 
4.542900e-02 1.077539e+04 
4.660900e-02 1.054650e+04 
4.782300e-02 1.029700e+04 
4.892900e-02 1.006450e+04 
5.031200e-02 9.763327e+03 
5.155900e-02 9.481259e+03 
5.238100e-02 9.291848e+03 
5.378200e-02 8.965316e+03 
5.513400e-02 8.647379e+03 
5.627600e-02 8.380344e+03 
5.735300e-02 8.133092e+03 
5.870100e-02 7.833197e+03 
5.988700e-02 7.581123e+03 
6.113500e-02 7.328573e+03 
6.225900e-02 7.112988e+03 
6.340100e-02 6.905292e+03 
6.480200e-02 6.665004e+03 
6.601100e-02 6.470837e+03 
6.725500e-02 6.283458e+03 
6.829100e-02 6.138060e+03 
6.958600e-02 5.968364e+03 
7.071100e-02 5.833113e+03 
7.192300e-02 5.699285e+03 
7.307400e-02 5.583108e+03 
7.412300e-02 5.485862e+03 
7.550400e-02 5.370284e+03 
7.663100e-02 5.283976e+03 
7.791200e-02 5.195201e+03 
7.912700e-02 5.117754e+03 
8.027600e-02 5.048711e+03 
8.138400e-02 4.984904e+03 
8.272200e-02 4.910248e+03 
8.406100e-02 4.836616e+03 
8.534100e-02 4.765131e+03 
8.653800e-02 4.696068e+03 
8.759800e-02 4.633416e+03 
8.900300e-02 4.547310e+03 
9.009000e-02 4.477556e+03 
9.113300e-02 4.407472e+03 
9.239600e-02 4.320805e+03 
9.358000e-02 4.236875e+03 
9.496100e-02 4.135448e+03 
9.608400e-02 4.052357e+03 
9.727500e-02 3.964419e+03 
9.852600e-02 3.870577e+03 
9.973800e-02 3.781507e+03 
1.009000e-01 3.697884e+03 
1.020900e-01 3.614341e+03 
1.034000e-01 3.525816e+03 
1.046000e-01 3.447891e+03 
1.057200e-01 3.379304e+03 
1.069100e-01 3.309432e+03 
1.082500e-01 3.236119e+03 
1.093900e-01 3.177851e+03 
1.105400e-01 3.121949e+03 
1.116900e-01 3.070936e+03 
1.129600e-01 3.017318e+03 
1.142000e-01 2.969510e+03 
1.153300e-01 2.928263e+03 
1.166400e-01 2.883550e+03 
1.177800e-01 2.847106e+03 
1.190000e-01 2.809740e+03 
1.201200e-01 2.777238e+03 
1.213400e-01 2.742846e+03 
1.227100e-01 2.705614e+03 
1.238900e-01 2.674250e+03 
1.250700e-01 2.643195e+03 
1.263200e-01 2.610707e+03 
1.275500e-01 2.578686e+03 
1.287500e-01 2.547553e+03 
1.299900e-01 2.515149e+03 
1.311300e-01 2.485284e+03 
1.323500e-01 2.452914e+03 
1.335900e-01 2.419968e+03 
1.347100e-01 2.389811e+03 
1.359800e-01 2.355744e+03 
1.372100e-01 2.322264e+03 
1.384300e-01 2.289368e+03 
1.395700e-01 2.258261e+03 
1.407700e-01 2.226119e+03 
1.420300e-01 2.192130e+03 
1.432800e-01 2.159176e+03 
1.444500e-01 2.128505e+03 
1.456300e-01 2.098222e+03 
1.468900e-01 2.066703e+03 
1.480500e-01 2.038338e+03 
1.491700e-01 2.011748e+03 
1.503800e-01 1.983922e+03 
1.516400e-01 1.955737e+03 
1.528200e-01 1.930676e+03 
1.540200e-01 1.905693e+03 
1.551900e-01 1.882688e+03 
1.564300e-01 1.858995e+03 
1.576600e-01 1.836422e+03 
1.588700e-01 1.815200e+03 
1.600900e-01 1.794250e+03 
1.612700e-01 1.775106e+03 
1.625400e-01 1.754887e+03 
1.637600e-01 1.736084e+03 
1.649500e-01 1.718222e+03 
1.662200e-01 1.699515e+03 
1.674000e-01 1.682487e+03 
1.685000e-01 1.666880e+03 
1.697500e-01 1.649309e+03 
1.710300e-01 1.631507e+03 
1.722200e-01 1.615251e+03 
1.734400e-01 1.598423e+03 
1.746400e-01 1.582137e+03 
1.758700e-01 1.565567e+03 
1.770900e-01 1.549079e+03 
1.782700e-01 1.533402e+03 
1.794600e-01 1.517602e+03 
1.807000e-01 1.501247e+03 
1.819100e-01 1.485559e+03 
1.830100e-01 1.471296e+03 
1.842200e-01 1.455817e+03 
1.855000e-01 1.439717e+03 
1.867000e-01 1.424790e+03 
1.879200e-01 1.409862e+03 
1.890900e-01 1.395784e+03 
1.902800e-01 1.381737e+03 
1.915200e-01 1.367336e+03 
1.926900e-01 1.354007e+03 
1.939000e-01 1.340579e+03 
1.951700e-01 1.326713e+03 
1.963100e-01 1.314518e+03 
1.975100e-01 1.302031e+03 
1.987800e-01 1.289024e+03 
2.000100e-01 1.276694e+03 
2.012500e-01 1.264620e+03 
2.023400e-01 1.254160e+03 
2.036100e-01 1.242187e+03 
2.048900e-01 1.230452e+03 
2.060400e-01 1.220064e+03 
2.072200e-01 1.209563e+03 
2.084200e-01 1.199141e+03 
2.096900e-01 1.188274e+03 
2.109200e-01 1.177904e+03 
2.121100e-01 1.168030e+03 
2.132700e-01 1.158538e+03 
2.145200e-01 1.148454e+03 
2.157200e-01 1.138882e+03 
2.168800e-01 1.129742e+03 
2.180700e-01 1.120493e+03 
2.193400e-01 1.110717e+03 
2.206000e-01 1.101080e+03 
2.217500e-01 1.092404e+03 
2.229500e-01 1.083470e+03 
2.241400e-01 1.074584e+03 
2.253500e-01 1.065665e+03 
2.264900e-01 1.057372e+03 
2.277100e-01 1.048527e+03 
2.289900e-01 1.039280e+03 
2.301500e-01 1.031013e+03 
2.313600e-01 1.022499e+03 
2.325600e-01 1.014000e+03 
2.337700e-01 1.005542e+03 
2.350000e-01 9.970570e+02 
2.362000e-01 9.888241e+02 
2.374100e-01 9.805549e+02 
2.386500e-01 9.721916e+02 
2.399100e-01 9.638065e+02 
2.410400e-01 9.563058e+02 
2.422500e-01 9.483637e+02 
2.435000e-01 9.402653e+02 
2.447300e-01 9.323956e+02 
2.458700e-01 9.251741e+02 
2.470600e-01 9.177271e+02 
2.483300e-01 9.098805e+02 
2.495600e-01 9.023920e+02 
2.507600e-01 8.951950e+02 
2.519600e-01 8.880858e+02 
2.532200e-01 8.807142e+02 
2.543700e-01 8.741193e+02 
2.555500e-01 8.674663e+02 
2.568000e-01 8.605038e+02 
2.580100e-01 8.538462e+02 
2.592400e-01 8.472449e+02 
2.604100e-01 8.410766e+02 
2.616100e-01 8.348230e+02 
2.628400e-01 8.284885e+02 
2.640600e-01 8.223737e+02 
2.652200e-01 8.166630e+02 
2.664300e-01 8.107731e+02 
2.676500e-01 8.049028e+02 
2.688400e-01 7.993156e+02 
2.700700e-01 7.936520e+02 
2.712400e-01 7.883246e+02 
2.724800e-01 7.827414e+02 
2.736700e-01 7.774943e+02 
2.748800e-01 7.722701e+02 
2.761000e-01 7.670608e+02 
2.773200e-01 7.619090e+02 
2.785400e-01 7.568370e+02 
2.797000e-01 7.521146e+02 
2.808900e-01 7.473206e+02 
2.821400e-01 7.423394e+02 
2.833900e-01 7.374150e+02 
2.845500e-01 7.329369e+02 
2.857800e-01 7.282382e+02 
2.870300e-01 7.235144e+02 
2.882100e-01 7.191021e+02 
2.893900e-01 7.147547e+02 
2.906300e-01 7.102443e+02 
2.918900e-01 7.057101e+02 
2.930500e-01 7.015787e+02 
2.942500e-01 6.973508e+02 
2.954200e-01 6.932801e+02 
2.966500e-01 6.890439e+02 
2.978900e-01 6.848172e+02 
2.990400e-01 6.809364e+02 
3.002700e-01 6.768301e+02 
3.015100e-01 6.727344e+02 
3.026800e-01 6.689082e+02 
3.038500e-01 6.651187e+02 
3.050300e-01 6.613335e+02 
3.062600e-01 6.574281e+02 
3.075000e-01 6.535304e+02 
3.087000e-01 6.497955e+02 
3.099100e-01 6.460659e+02 
3.111200e-01 6.423736e+02 
3.123100e-01 6.387790e+02 
3.135300e-01 6.351291e+02 
3.147300e-01 6.315734e+02 
3.159900e-01 6.278761e+02 
3.171800e-01 6.244187e+02 
3.183700e-01 6.209942e+02 
3.196300e-01 6.174029e+02 
3.208400e-01 6.139871e+02 
3.220300e-01 6.106588e+02 
3.232000e-01 6.074192e+02 
3.244300e-01 6.040459e+02 
3.256700e-01 6.006773e+02 
3.269200e-01 5.973136e+02 
3.280800e-01 5.942207e+02 
3.292500e-01 5.911350e+02 
3.304800e-01 5.879223e+02 
3.317100e-01 5.847393e+02 
3.328900e-01 5.817132e+02 
3.340700e-01 5.787136e+02 
3.353600e-01 5.754717e+02 
3.365300e-01 5.725609e+02 
3.377100e-01 5.696505e+02 
3.389200e-01 5.666923e+02 
3.401600e-01 5.636879e+02 
3.413700e-01 5.607908e+02 
3.425300e-01 5.580432e+02 
3.437700e-01 5.551315e+02 
3.449800e-01 5.523154e+02 
3.461800e-01 5.495466e+02 
3.473600e-01 5.468514e+02 
3.485800e-01 5.440992e+02 
3.498100e-01 5.413486e+02 
3.510200e-01 5.386660e+02 
3.522000e-01 5.360719e+02 
3.533900e-01 5.334775e+02 
3.546400e-01 5.307902e+02 
3.558400e-01 5.282332e+02 
3.570600e-01 5.256554e+02 
3.582700e-01 5.231202e+02 
3.595000e-01 5.205647e+02 
3.607100e-01 5.180809e+02 
3.618900e-01 5.156856e+02 
3.631200e-01 5.132093e+02 
3.643200e-01 5.108133e+02 
3.655500e-01 5.083776e+02 
3.667300e-01 5.060599e+02 
3.679500e-01 5.037007e+02 
3.691900e-01 5.013226e+02 
3.703600e-01 4.990967e+02 
3.715700e-01 4.968130e+02 
3.727700e-01 4.945662e+02 
3.739900e-01 4.923063e+02 
3.752000e-01 4.900940e+02 
3.763900e-01 4.879354e+02 
3.775800e-01 4.857935e+02 
3.788200e-01 4.835794e+02 
3.800300e-01 4.814360e+02 
3.812100e-01 4.793702e+02 
3.824200e-01 4.772739e+02 
3.836100e-01 4.752282e+02 
3.848600e-01 4.730961e+02 
3.860400e-01 4.710991e+02 
3.872400e-01 4.690836e+02 
3.884600e-01 4.670608e+02 
3.896500e-01 4.651069e+02 
3.908700e-01 4.631189e+02 
3.920600e-01 4.611945e+02 
3.933100e-01 4.591885e+02 
3.945300e-01 4.572457e+02 
3.957200e-01 4.553768e+02 
3.969300e-01 4.534940e+02 
3.981700e-01 4.515792e+02 
3.993500e-01 4.497705e+02 
4.094840e-01 4.347984e+02 
4.272360e-01 4.109255e+02 
4.454600e-01 3.889767e+02 
4.630560e-01 3.698450e+02 
4.804610e-01 3.526158e+02 
4.980690e-01 3.366674e+02 
5.159230e-01 3.218177e+02 
5.317440e-01 3.096574e+02 
5.489640e-01 2.973704e+02 
5.671990e-01 2.853443e+02 
5.838690e-01 2.751567e+02 
6.018840e-01 2.649308e+02 
6.202330e-01 2.552799e+02 
6.379250e-01 2.466329e+02 
6.545410e-01 2.390652e+02 
6.714560e-01 2.318443e+02 
6.892080e-01 2.247603e+02 
7.066010e-01 2.182673e+02 
7.240540e-01 2.121447e+02 
7.420450e-01 2.062269e+02 
7.593780e-01 2.008600e+02 
7.764720e-01 1.958587e+02 
7.942840e-01 1.909317e+02 
8.116170e-01 1.863964e+02 
8.288310e-01 1.821189e+02 
8.462240e-01 1.780110e+02 
8.631980e-01 1.741854e+02 
8.810700e-01 1.703426e+02 
8.989410e-01 1.666716e+02 
9.166330e-01 1.631969e+02 
9.345640e-01 1.598284e+02 
9.515980e-01 1.567510e+02 
9.688720e-01 1.537457e+02 
9.865640e-01 1.507823e+02 
1.031870e+00 1.436652e+02 
1.063490e+00 1.390520e+02 
1.097920e+00 1.343275e+02 
1.134370e+00 1.296174e+02 
1.167730e+00 1.255494e+02 
1.203830e+00 1.213667e+02 
1.240470e+00 1.173545e+02 
1.275790e+00 1.136739e+02 
1.309140e+00 1.103719e+02 
1.342970e+00 1.071504e+02 
1.378420e+00 1.039360e+02 
1.413200e+00 1.009161e+02 
1.448110e+00 9.801258e+01 
1.484090e+00 9.514888e+01 
1.518820e+00 9.249713e+01 
1.552880e+00 8.999625e+01 
1.588630e+00 8.747486e+01 
1.623230e+00 8.513148e+01 
1.657720e+00 8.288178e+01 
1.692450e+00 8.070505e+01 
1.726400e+00 7.864926e+01 
1.762200e+00 7.655814e+01 
1.797880e+00 7.455272e+01 
1.833270e+00 7.263623e+01 
1.869070e+00 7.076493e+01 
1.903200e+00 6.904416e+01 
1.937740e+00 6.736189e+01 
1.973190e+00 6.569308e+01 
2.007440e+00 6.413617e+01 
2.042160e+00 6.260865e+01 
2.077900e+00 6.108671e+01 
2.112390e+00 5.966869e+01 
2.146220e+00 5.831808e+01 
2.181600e+00 5.695109e+01 
2.216930e+00 5.562937e+01 
2.250760e+00 5.440337e+01 
2.286500e+00 5.314835e+01 
2.321770e+00 5.194844e+01 
2.355950e+00 5.082173e+01 
2.391280e+00 4.968825e+01 
2.426240e+00 4.860117e+01 
2.460670e+00 4.756339e+01 
2.495640e+00 4.654124e+01 
2.531080e+00 4.553265e+01 
2.566220e+00 4.456150e+01 
2.600830e+00 4.363324e+01 
2.635080e+00 4.274153e+01 
2.670340e+00 4.184753e+01 
2.705970e+00 4.097003e+01 
2.740040e+00 4.015454e+01 
2.774520e+00 3.935008e+01 
2.809730e+00 3.855069e+01 
2.844390e+00 3.778609e+01 
2.879960e+00 3.702300e+01 
2.914860e+00 3.629340e+01 
2.949410e+00 3.559075e+01 
2.984440e+00 3.489648e+01 
3.019760e+00 3.421440e+01 
3.054730e+00 3.355722e+01 
3.089030e+00 3.292843e+01 
3.124060e+00 3.230317e+01 
3.159560e+00 3.168567e+01 
3.194710e+00 3.108967e+01 
3.229010e+00 3.052343e+01 
3.263320e+00 2.996950e+01 
3.297930e+00 2.942494e+01 
3.332830e+00 2.888877e+01 
3.368040e+00 2.836147e+01 
3.403300e+00 2.784691e+01 
3.438450e+00 2.734595e+01 
3.473060e+00 2.686521e+01 
3.508440e+00 2.638431e+01 
3.543110e+00 2.592508e+01 
3.577470e+00 2.548056e+01 
3.613040e+00 2.503147e+01 
3.648120e+00 2.459811e+01 
3.682910e+00 2.417873e+01 
3.718050e+00 2.376501e+01 
3.753320e+00 2.335953e+01 
3.787980e+00 2.297004e+01 
3.822290e+00 2.259330e+01 
3.857020e+00 2.222041e+01 
3.891920e+00 2.185416e+01 
3.926650e+00 2.149753e+01 
3.961970e+00 2.114325e+01 
3.997360e+00 2.079638e+01 
4.031670e+00 2.046767e+01 
4.066330e+00 2.014242e+01 
4.101420e+00 1.982058e+01 
4.136200e+00 1.950820e+01 
4.170810e+00 1.920426e+01 
4.206250e+00 1.889958e+01 
4.241580e+00 1.860255e+01 
4.276300e+00 1.831691e+01 
4.310970e+00 1.803775e+01 
4.346120e+00 1.776073e+01 
4.380600e+00 1.749462e+01 
4.414730e+00 1.723672e+01 
4.450350e+00 1.697318e+01 
4.485320e+00 1.671994e+01 
4.519810e+00 1.647527e+01 
4.555430e+00 1.622781e+01 
4.590870e+00 1.598672e+01 
4.625480e+00 1.575602e+01 
4.659910e+00 1.553111e+01 
4.695230e+00 1.530526e+01 
4.729960e+00 1.508767e+01 
4.764450e+00 1.487583e+01 
4.799530e+00 1.466460e+01 
4.834910e+00 1.445578e+01 
4.869700e+00 1.425462e+01 
4.904370e+00 1.405803e+01 
4.939450e+00 1.386301e+01 
4.973940e+00 1.367509e+01 
5.008430e+00 1.349068e+01 
5.043810e+00 1.330516e+01 
5.078840e+00 1.312498e+01 
5.113500e+00 1.295001e+01 
5.148890e+00 1.277500e+01 
5.184210e+00 1.260359e+01 
5.219060e+00 1.243765e+01 
5.253660e+00 1.227609e+01 
5.288570e+00 1.211601e+01 
5.323420e+00 1.195918e+01 
5.358440e+00 1.180453e+01 
5.393590e+00 1.165206e+01 
5.428310e+00 1.150438e+01 
5.462800e+00 1.136035e+01 
5.497640e+00 1.121737e+01 
5.532670e+00 1.107640e+01 
5.567280e+00 1.093959e+01 
5.602000e+00 1.080467e+01 
5.637270e+00 1.067020e+01 
5.672410e+00 1.053856e+01 
5.707020e+00 1.041108e+01 
5.742040e+00 1.028460e+01 
5.777430e+00 1.015900e+01 
5.812210e+00 1.003761e+01 
5.846820e+00 9.918979e+00 
5.881610e+00 9.801720e+00 
5.916510e+00 9.685994e+00 
5.951600e+00 9.571785e+00 
5.986560e+00 9.459949e+00 
6.021830e+00 9.348930e+00 
6.056490e+00 9.241794e+00 
6.091160e+00 9.136500e+00 
6.125830e+00 9.032844e+00 
6.161090e+00 8.929171e+00 
6.195760e+00 8.829033e+00 
6.230420e+00 8.730456e+00 
6.265690e+00 8.631700e+00 
6.300950e+00 8.534852e+00 
6.335620e+00 8.441071e+00 
6.370880e+00 8.347135e+00 
6.405550e+00 8.256387e+00 
6.440220e+00 8.167076e+00 
6.475480e+00 8.077597e+00 
6.510150e+00 7.991022e+00 
6.544810e+00 7.905975e+00 
6.580080e+00 7.820699e+00 
6.614750e+00 7.738094e+00 
6.649410e+00 7.656978e+00 
6.684080e+00 7.577053e+00 
6.719340e+00 7.496933e+00 
6.754010e+00 7.419383e+00 
6.788680e+00 7.343167e+00 
6.823940e+00 7.266749e+00 
6.859800e+00 7.190141e+00 
6.894470e+00 7.117321e+00 
6.929140e+00 7.045579e+00 
6.963800e+00 6.974842e+00 
6.999070e+00 6.903871e+00 
7.033730e+00 6.835346e+00 
7.068400e+00 6.767728e+00 
7.103660e+00 6.699894e+00 
7.138330e+00 6.634189e+00 
7.173600e+00 6.568438e+00 
7.208260e+00 6.504690e+00 
7.243530e+00 6.440683e+00 
7.277600e+00 6.379797e+00 
7.312860e+00 6.317728e+00 
7.348120e+00 6.256481e+00 
7.382790e+00 6.197047e+00 
7.417460e+00 6.138585e+00 
7.452720e+00 6.080005e+00 
7.487390e+00 6.023147e+00 
7.522650e+00 5.966064e+00 
7.557320e+00 5.910805e+00 
7.591990e+00 5.856299e+00 
7.627250e+00 5.801567e+00 
7.662510e+00 5.747531e+00 
7.697180e+00 5.695244e+00 
7.731850e+00 5.643674e+00 
7.766510e+00 5.592754e+00 
7.801180e+00 5.542445e+00 
7.836440e+00 5.492036e+00 
7.871110e+00 5.443158e+00 
7.906380e+00 5.394041e+00 
7.941040e+00 5.346360e+00 
7.976310e+00 5.298518e+00 
8.011570e+00 5.251377e+00 
8.046240e+00 5.205582e+00 
8.080900e+00 5.160342e+00 
8.115570e+00 5.115667e+00 
8.150830e+00 5.070931e+00 
8.185500e+00 5.027463e+00 
8.220770e+00 4.983763e+00 
8.255430e+00 4.941321e+00 
8.290100e+00 4.899539e+00 
8.324770e+00 4.858259e+00 
8.359430e+00 4.817463e+00 
8.394700e+00 4.776428e+00 
8.429960e+00 4.735969e+00 
8.464630e+00 4.696732e+00 
8.499890e+00 4.657281e+00 
8.534560e+00 4.618930e+00 
8.569200e+00 4.581041e+00 
