# Parameters:
# omega_b = 0.023248, omega_m = 0.121102, n_s = 1.015354, h = 69.173228, w = -1.000000, sigma_8 = 0.717323
# z = 1.300000
#
# k[1/Mpc] # P(k):
8.694000e-04 4.830580e+03 
2.077466e-03 1.060796e+04 
3.285532e-03 1.511251e+04 
4.493598e-03 1.850996e+04 
5.701664e-03 2.095329e+04 
6.909730e-03 2.260205e+04 
8.117797e-03 2.363639e+04 
9.325863e-03 2.414985e+04 
1.053393e-02 2.423577e+04 
1.174199e-02 2.397944e+04 
1.295006e-02 2.343680e+04 
1.415813e-02 2.268179e+04 
1.536619e-02 2.177817e+04 
1.657426e-02 2.077174e+04 
1.778233e-02 1.971002e+04 
1.899039e-02 1.865565e+04 
2.019846e-02 1.762169e+04 
2.140652e-02 1.661992e+04 
2.261459e-02 1.566732e+04 
2.382266e-02 1.478230e+04 
2.503072e-02 1.397380e+04 
2.623879e-02 1.324311e+04 
2.744685e-02 1.259088e+04 
2.865492e-02 1.201353e+04 
2.986299e-02 1.150536e+04 
3.100100e-02 1.108725e+04 
3.220400e-02 1.070176e+04 
3.288100e-02 1.050936e+04 
3.424300e-02 1.016606e+04 
3.555100e-02 9.881733e+03 
3.686000e-02 9.633820e+03 
3.795000e-02 9.448134e+03 
3.929100e-02 9.239066e+03 
4.039800e-02 9.075334e+03 
4.164000e-02 8.896211e+03 
4.294400e-02 8.703236e+03 
4.415000e-02 8.521354e+03 
4.542900e-02 8.314231e+03 
4.660900e-02 8.115664e+03 
4.782300e-02 7.892019e+03 
4.892900e-02 7.680353e+03 
5.031200e-02 7.402242e+03 
5.155900e-02 7.139721e+03 
5.238100e-02 6.963239e+03 
5.378200e-02 6.659720e+03 
5.513400e-02 6.366568e+03 
5.627600e-02 6.123106e+03 
5.735300e-02 5.900546e+03 
5.870100e-02 5.635132e+03 
5.988700e-02 5.416556e+03 
6.113500e-02 5.202737e+03 
6.225900e-02 5.025436e+03 
6.340100e-02 4.859962e+03 
6.480200e-02 4.674833e+03 
6.601100e-02 4.531925e+03 
6.725500e-02 4.399394e+03 
6.829100e-02 4.300975e+03 
6.958600e-02 4.189608e+03 
7.071100e-02 4.104321e+03 
7.192300e-02 4.022638e+03 
7.307400e-02 3.953807e+03 
7.412300e-02 3.897473e+03 
7.550400e-02 3.831771e+03 
7.663100e-02 3.782935e+03 
7.791200e-02 3.731964e+03 
7.912700e-02 3.685590e+03 
8.027600e-02 3.642119e+03 
8.138400e-02 3.599751e+03 
8.272200e-02 3.546760e+03 
8.406100e-02 3.490729e+03 
8.534100e-02 3.432251e+03 
8.653800e-02 3.372934e+03 
8.759800e-02 3.317769e+03 
8.900300e-02 3.240320e+03 
9.009000e-02 3.176768e+03 
9.113300e-02 3.112800e+03 
9.239600e-02 3.033916e+03 
9.358000e-02 2.958089e+03 
9.496100e-02 2.867873e+03 
9.608400e-02 2.795072e+03 
9.727500e-02 2.718988e+03 
9.852600e-02 2.640249e+03 
9.973800e-02 2.566904e+03 
1.009000e-01 2.499192e+03 
1.020900e-01 2.434378e+03 
1.034000e-01 2.367210e+03 
1.046000e-01 2.309632e+03 
1.057200e-01 2.261587e+03 
1.069100e-01 2.213631e+03 
1.082500e-01 2.166138e+03 
1.093900e-01 2.130099e+03 
1.105400e-01 2.096537e+03 
1.116900e-01 2.068055e+03 
1.129600e-01 2.038771e+03 
1.142000e-01 2.014142e+03 
1.153300e-01 1.993147e+03 
1.166400e-01 1.970807e+03 
1.177800e-01 1.952241e+03 
1.190000e-01 1.933041e+03 
1.201200e-01 1.914853e+03 
1.213400e-01 1.895339e+03 
1.227100e-01 1.871084e+03 
1.238900e-01 1.849932e+03 
1.250700e-01 1.826650e+03 
1.263200e-01 1.801438e+03 
1.275500e-01 1.774713e+03 
1.287500e-01 1.748013e+03 
1.299900e-01 1.719116e+03 
1.311300e-01 1.692230e+03 
1.323500e-01 1.662717e+03 
1.335900e-01 1.632877e+03 
1.347100e-01 1.605798e+03 
1.359800e-01 1.575659e+03 
1.372100e-01 1.546853e+03 
1.384300e-01 1.519064e+03 
1.395700e-01 1.493898e+03 
1.407700e-01 1.468096e+03 
1.420300e-01 1.442465e+03 
1.432800e-01 1.417645e+03 
1.444500e-01 1.396097e+03 
1.456300e-01 1.374833e+03 
1.468900e-01 1.353647e+03 
1.480500e-01 1.334864e+03 
1.491700e-01 1.317606e+03 
1.503800e-01 1.299995e+03 
1.516400e-01 1.282232e+03 
1.528200e-01 1.266785e+03 
1.540200e-01 1.251381e+03 
1.551900e-01 1.237253e+03 
1.564300e-01 1.222713e+03 
1.576600e-01 1.208760e+03 
1.588700e-01 1.195525e+03 
1.600900e-01 1.182434e+03 
1.612700e-01 1.170061e+03 
1.625400e-01 1.156993e+03 
1.637600e-01 1.144505e+03 
1.649500e-01 1.132446e+03 
1.662200e-01 1.119733e+03 
1.674000e-01 1.107697e+03 
1.685000e-01 1.096667e+03 
1.697500e-01 1.084024e+03 
1.710300e-01 1.070993e+03 
1.722200e-01 1.059099e+03 
1.734400e-01 1.046491e+03 
1.746400e-01 1.034284e+03 
1.758700e-01 1.021836e+03 
1.770900e-01 1.009385e+03 
1.782700e-01 9.975533e+02 
1.794600e-01 9.856600e+02 
1.807000e-01 9.733733e+02 
1.819100e-01 9.615971e+02 
1.830100e-01 9.510321e+02 
1.842200e-01 9.395968e+02 
1.855000e-01 9.277220e+02 
1.867000e-01 9.169430e+02 
1.879200e-01 9.061703e+02 
1.890900e-01 8.960577e+02 
1.902800e-01 8.861812e+02 
1.915200e-01 8.760603e+02 
1.926900e-01 8.667497e+02 
1.939000e-01 8.575448e+02 
1.951700e-01 8.480419e+02 
1.963100e-01 8.397310e+02 
1.975100e-01 8.313404e+02 
1.987800e-01 8.226012e+02 
2.000100e-01 8.143450e+02 
2.012500e-01 8.063202e+02 
2.023400e-01 7.993691e+02 
2.036100e-01 7.914148e+02 
2.048900e-01 7.836242e+02 
2.060400e-01 7.767291e+02 
2.072200e-01 7.697561e+02 
2.084200e-01 7.627868e+02 
2.096900e-01 7.555206e+02 
2.109200e-01 7.485885e+02 
2.121100e-01 7.419083e+02 
2.132700e-01 7.354836e+02 
2.145200e-01 7.286590e+02 
2.157200e-01 7.221228e+02 
2.168800e-01 7.158553e+02 
2.180700e-01 7.095139e+02 
2.193400e-01 7.027916e+02 
2.206000e-01 6.961248e+02 
2.217500e-01 6.901247e+02 
2.229500e-01 6.839483e+02 
2.241400e-01 6.777742e+02 
2.253500e-01 6.715792e+02 
2.264900e-01 6.658207e+02 
2.277100e-01 6.596863e+02 
2.289900e-01 6.532810e+02 
2.301500e-01 6.475561e+02 
2.313600e-01 6.416633e+02 
2.325600e-01 6.358185e+02 
2.337700e-01 6.300044e+02 
2.350000e-01 6.241744e+02 
2.362000e-01 6.185431e+02 
2.374100e-01 6.129168e+02 
2.386500e-01 6.072287e+02 
2.399100e-01 6.015278e+02 
2.410400e-01 5.964774e+02 
2.422500e-01 5.911376e+02 
2.435000e-01 5.856944e+02 
2.447300e-01 5.804153e+02 
2.458700e-01 5.756072e+02 
2.470600e-01 5.706504e+02 
2.483300e-01 5.654290e+02 
2.495600e-01 5.604601e+02 
2.507600e-01 5.557034e+02 
2.519600e-01 5.510060e+02 
2.532200e-01 5.461364e+02 
2.543700e-01 5.417876e+02 
2.555500e-01 5.374061e+02 
2.568000e-01 5.328219e+02 
2.580100e-01 5.284395e+02 
2.592400e-01 5.240918e+02 
2.604100e-01 5.200286e+02 
2.616100e-01 5.159101e+02 
2.628400e-01 5.117393e+02 
2.640600e-01 5.077024e+02 
2.652200e-01 5.039283e+02 
2.664300e-01 5.000366e+02 
2.676500e-01 4.961588e+02 
2.688400e-01 4.924544e+02 
2.700700e-01 4.886909e+02 
2.712400e-01 4.851517e+02 
2.724800e-01 4.814434e+02 
2.736700e-01 4.779473e+02 
2.748800e-01 4.744549e+02 
2.761000e-01 4.709733e+02 
2.773200e-01 4.675310e+02 
2.785400e-01 4.641359e+02 
2.797000e-01 4.609610e+02 
2.808900e-01 4.577389e+02 
2.821400e-01 4.543917e+02 
2.833900e-01 4.510828e+02 
2.845500e-01 4.480578e+02 
2.857800e-01 4.448846e+02 
2.870300e-01 4.416954e+02 
2.882100e-01 4.387172e+02 
2.893900e-01 4.357756e+02 
2.906300e-01 4.327204e+02 
2.918900e-01 4.296499e+02 
2.930500e-01 4.268528e+02 
2.942500e-01 4.239898e+02 
2.954200e-01 4.212294e+02 
2.966500e-01 4.183574e+02 
2.978900e-01 4.154927e+02 
2.990400e-01 4.128631e+02 
3.002700e-01 4.100802e+02 
3.015100e-01 4.073047e+02 
3.026800e-01 4.047125e+02 
3.038500e-01 4.021457e+02 
3.050300e-01 3.995826e+02 
3.062600e-01 3.969399e+02 
3.075000e-01 3.943031e+02 
3.087000e-01 3.917771e+02 
3.099100e-01 3.892553e+02 
3.111200e-01 3.867609e+02 
3.123100e-01 3.843357e+02 
3.135300e-01 3.818737e+02 
3.147300e-01 3.794759e+02 
3.159900e-01 3.769832e+02 
3.171800e-01 3.746562e+02 
3.183700e-01 3.723540e+02 
3.196300e-01 3.699402e+02 
3.208400e-01 3.676450e+02 
3.220300e-01 3.654092e+02 
3.232000e-01 3.632375e+02 
3.244300e-01 3.609783e+02 
3.256700e-01 3.587228e+02 
3.269200e-01 3.564713e+02 
3.280800e-01 3.544014e+02 
3.292500e-01 3.523405e+02 
3.304800e-01 3.501964e+02 
3.317100e-01 3.480726e+02 
3.328900e-01 3.460539e+02 
3.340700e-01 3.440535e+02 
3.353600e-01 3.418957e+02 
3.365300e-01 3.399602e+02 
3.377100e-01 3.380254e+02 
3.389200e-01 3.360592e+02 
3.401600e-01 3.340628e+02 
3.413700e-01 3.321404e+02 
3.425300e-01 3.303191e+02 
3.437700e-01 3.283895e+02 
3.449800e-01 3.265236e+02 
3.461800e-01 3.246895e+02 
3.473600e-01 3.229052e+02 
3.485800e-01 3.210852e+02 
3.498100e-01 3.192666e+02 
3.510200e-01 3.174934e+02 
3.522000e-01 3.157790e+02 
3.533900e-01 3.140648e+02 
3.546400e-01 3.122913e+02 
3.558400e-01 3.106042e+02 
3.570600e-01 3.089038e+02 
3.582700e-01 3.072318e+02 
3.595000e-01 3.055468e+02 
3.607100e-01 3.039094e+02 
3.618900e-01 3.023308e+02 
3.631200e-01 3.006991e+02 
3.643200e-01 2.991206e+02 
3.655500e-01 2.975163e+02 
3.667300e-01 2.959901e+02 
3.679500e-01 2.944365e+02 
3.691900e-01 2.928708e+02 
3.703600e-01 2.914056e+02 
3.715700e-01 2.899026e+02 
3.727700e-01 2.884242e+02 
3.739900e-01 2.869370e+02 
3.752000e-01 2.854806e+02 
3.763900e-01 2.840598e+02 
3.775800e-01 2.826503e+02 
3.788200e-01 2.811934e+02 
3.800300e-01 2.797834e+02 
3.812100e-01 2.784239e+02 
3.824200e-01 2.770440e+02 
3.836100e-01 2.756975e+02 
3.848600e-01 2.742946e+02 
3.860400e-01 2.729807e+02 
3.872400e-01 2.716549e+02 
3.884600e-01 2.703236e+02 
3.896500e-01 2.690376e+02 
3.908700e-01 2.677293e+02 
3.920600e-01 2.664631e+02 
3.933100e-01 2.651435e+02 
3.945300e-01 2.638656e+02 
3.957200e-01 2.626346e+02 
3.969300e-01 2.613941e+02 
3.981700e-01 2.601326e+02 
3.993500e-01 2.589413e+02 
4.094840e-01 2.490894e+02 
4.272360e-01 2.333795e+02 
4.454600e-01 2.189822e+02 
4.630560e-01 2.064956e+02 
4.804610e-01 1.953260e+02 
4.980690e-01 1.850637e+02 
5.159230e-01 1.755909e+02 
5.317440e-01 1.678897e+02 
5.489640e-01 1.601723e+02 
5.671990e-01 1.526754e+02 
5.838690e-01 1.463609e+02 
6.018840e-01 1.400583e+02 
6.202330e-01 1.341459e+02 
6.379250e-01 1.288676e+02 
6.545410e-01 1.242697e+02 
6.714560e-01 1.198967e+02 
6.892080e-01 1.156187e+02 
7.066010e-01 1.117110e+02 
7.240540e-01 1.080384e+02 
7.420450e-01 1.045008e+02 
7.593780e-01 1.013055e+02 
7.764720e-01 9.833725e+01 
7.942840e-01 9.542520e+01 
8.116170e-01 9.275555e+01 
8.288310e-01 9.025186e+01 
8.462240e-01 8.785646e+01 
8.631980e-01 8.563932e+01 
8.810700e-01 8.342346e+01 
8.989410e-01 8.132083e+01 
9.166330e-01 7.934179e+01 
9.345640e-01 7.743292e+01 
9.515980e-01 7.570306e+01 
9.688720e-01 7.402558e+01 
9.865640e-01 7.238329e+01 
1.031870e+00 6.848532e+01 
1.063490e+00 6.599882e+01 
1.097920e+00 6.348467e+01 
1.134370e+00 6.101275e+01 
1.167730e+00 5.890612e+01 
1.203830e+00 5.677242e+01 
1.240470e+00 5.474854e+01 
1.275790e+00 5.291693e+01 
1.309140e+00 5.128852e+01 
1.342970e+00 4.972175e+01 
1.378420e+00 4.817050e+01 
1.413200e+00 4.672819e+01 
1.448110e+00 4.535281e+01 
1.484090e+00 4.400779e+01 
1.518820e+00 4.277188e+01 
1.552880e+00 4.161477e+01 
1.588630e+00 4.045503e+01 
1.623230e+00 3.938382e+01 
1.657720e+00 3.836165e+01 
1.692450e+00 3.737641e+01 
1.726400e+00 3.645082e+01 
1.762200e+00 3.551381e+01 
1.797880e+00 3.461876e+01 
1.833270e+00 3.376625e+01 
1.869070e+00 3.293699e+01 
1.903200e+00 3.217643e+01 
1.937740e+00 3.143452e+01 
1.973190e+00 3.070035e+01 
2.007440e+00 3.001638e+01 
2.042160e+00 2.934694e+01 
2.077900e+00 2.868139e+01 
2.112390e+00 2.806137e+01 
2.146220e+00 2.747215e+01 
2.181600e+00 2.687620e+01 
2.216930e+00 2.630057e+01 
2.250760e+00 2.576682e+01 
2.286500e+00 2.522064e+01 
2.321770e+00 2.469870e+01 
2.355950e+00 2.420827e+01 
2.391280e+00 2.371566e+01 
2.426240e+00 2.324285e+01 
2.460670e+00 2.279117e+01 
2.495640e+00 2.234611e+01 
2.531080e+00 2.190708e+01 
2.566220e+00 2.148418e+01 
2.600830e+00 2.107958e+01 
2.635080e+00 2.069046e+01 
2.670340e+00 2.029971e+01 
2.705970e+00 1.991602e+01 
2.740040e+00 1.955925e+01 
2.774520e+00 1.920700e+01 
2.809730e+00 1.885648e+01 
2.844390e+00 1.852071e+01 
2.879960e+00 1.818482e+01 
2.914860e+00 1.786346e+01 
2.949410e+00 1.755363e+01 
2.984440e+00 1.724682e+01 
3.019760e+00 1.694522e+01 
3.054730e+00 1.665438e+01 
3.089030e+00 1.637501e+01 
3.124060e+00 1.609689e+01 
3.159560e+00 1.582185e+01 
3.194710e+00 1.555576e+01 
3.229010e+00 1.530259e+01 
3.263320e+00 1.505418e+01 
3.297930e+00 1.480971e+01 
3.332830e+00 1.456868e+01 
3.368040e+00 1.433096e+01 
3.403300e+00 1.409845e+01 
3.438450e+00 1.387152e+01 
3.473060e+00 1.365348e+01 
3.508440e+00 1.343481e+01 
3.543110e+00 1.322566e+01 
3.577470e+00 1.302231e+01 
3.613040e+00 1.281666e+01 
3.648120e+00 1.261797e+01 
3.682910e+00 1.242524e+01 
3.718050e+00 1.223442e+01 
3.753320e+00 1.204708e+01 
3.787980e+00 1.186675e+01 
3.822290e+00 1.169195e+01 
3.857020e+00 1.151842e+01 
3.891920e+00 1.134767e+01 
3.926650e+00 1.118094e+01 
3.961970e+00 1.101497e+01 
3.997360e+00 1.085186e+01 
4.031670e+00 1.069710e+01 
4.066330e+00 1.054359e+01 
4.101420e+00 1.039153e+01 
4.136200e+00 1.024326e+01 
4.170810e+00 1.009887e+01 
4.206250e+00 9.953664e+00 
4.241580e+00 9.811929e+00 
4.276300e+00 9.675153e+00 
4.310970e+00 9.541176e+00 
4.346120e+00 9.407974e+00 
4.380600e+00 9.279677e+00 
4.414730e+00 9.155230e+00 
4.450350e+00 9.027461e+00 
4.485320e+00 8.904592e+00 
4.519810e+00 8.785470e+00 
4.555430e+00 8.664749e+00 
4.590870e+00 8.546942e+00 
4.625480e+00 8.433921e+00 
4.659910e+00 8.323663e+00 
4.695230e+00 8.212398e+00 
4.729960e+00 8.105058e+00 
4.764450e+00 8.000338e+00 
4.799530e+00 7.895600e+00 
4.834910e+00 7.791986e+00 
4.869700e+00 7.691796e+00 
4.904370e+00 7.593772e+00 
4.939450e+00 7.496367e+00 
4.973940e+00 7.402196e+00 
5.008430e+00 7.309734e+00 
5.043810e+00 7.216439e+00 
5.078840e+00 7.125654e+00 
5.113500e+00 7.037446e+00 
5.148890e+00 6.948787e+00 
5.184210e+00 6.861893e+00 
5.219060e+00 6.777646e+00 
5.253660e+00 6.695363e+00 
5.288570e+00 6.613792e+00 
5.323420e+00 6.533710e+00 
5.358440e+00 6.454554e+00 
5.393590e+00 6.376480e+00 
5.428310e+00 6.300602e+00 
5.462800e+00 6.226458e+00 
5.497640e+00 6.152820e+00 
5.532670e+00 6.079952e+00 
5.567280e+00 6.009136e+00 
5.602000e+00 5.939270e+00 
5.637270e+00 5.869426e+00 
5.672410e+00 5.800983e+00 
5.707020e+00 5.734675e+00 
5.742040e+00 5.668641e+00 
5.777430e+00 5.602992e+00 
5.812210e+00 5.539519e+00 
5.846820e+00 5.477321e+00 
5.881610e+00 5.415779e+00 
5.916510e+00 5.355019e+00 
5.951600e+00 5.294875e+00 
5.986560e+00 5.235887e+00 
6.021830e+00 5.177310e+00 
6.056490e+00 5.120654e+00 
6.091160e+00 5.064861e+00 
6.125830e+00 5.009919e+00 
6.161090e+00 4.954904e+00 
6.195760e+00 4.901647e+00 
6.230420e+00 4.849206e+00 
6.265690e+00 4.796647e+00 
6.300950e+00 4.744913e+00 
6.335620e+00 4.694805e+00 
6.370880e+00 4.644600e+00 
6.405550e+00 4.595999e+00 
6.440220e+00 4.548121e+00 
6.475480e+00 4.500140e+00 
6.510150e+00 4.453657e+00 
6.544810e+00 4.407877e+00 
6.580080e+00 4.361961e+00 
6.614750e+00 4.317475e+00 
6.649410e+00 4.273698e+00 
6.684080e+00 4.230538e+00 
6.719340e+00 4.187263e+00 
6.754010e+00 4.145330e+00 
6.788680e+00 4.104020e+00 
6.823940e+00 4.062592e+00 
6.859800e+00 4.021054e+00 
6.894470e+00 3.981503e+00 
6.929140e+00 3.942508e+00 
6.963800e+00 3.904052e+00 
6.999070e+00 3.865457e+00 
7.033730e+00 3.828112e+00 
7.068400e+00 3.791256e+00 
7.103660e+00 3.754275e+00 
7.138330e+00 3.718427e+00 
7.173600e+00 3.682502e+00 
7.208260e+00 3.647666e+00 
7.243530e+00 3.612683e+00 
7.277600e+00 3.579370e+00 
7.312860e+00 3.545376e+00 
7.348120e+00 3.511827e+00 
7.382790e+00 3.479266e+00 
7.417460e+00 3.447181e+00 
7.452720e+00 3.414999e+00 
7.487390e+00 3.383760e+00 
7.522650e+00 3.352393e+00 
7.557320e+00 3.322007e+00 
7.591990e+00 3.292026e+00 
7.627250e+00 3.261916e+00 
7.662510e+00 3.232186e+00 
7.697180e+00 3.203383e+00 
7.731850e+00 3.174958e+00 
7.766510e+00 3.146889e+00 
7.801180e+00 3.119153e+00 
7.836440e+00 3.091350e+00 
7.871110e+00 3.064383e+00 
7.906380e+00 3.037281e+00 
7.941040e+00 3.010970e+00 
7.976310e+00 2.984550e+00 
8.011570e+00 2.958498e+00 
8.046240e+00 2.933186e+00 
8.080900e+00 2.908179e+00 
8.115570e+00 2.883480e+00 
8.150830e+00 2.858736e+00 
8.185500e+00 2.834691e+00 
8.220770e+00 2.810514e+00 
8.255430e+00 2.787032e+00 
8.290100e+00 2.763889e+00 
8.324770e+00 2.741019e+00 
8.359430e+00 2.718416e+00 
8.394700e+00 2.695678e+00 
8.429960e+00 2.673255e+00 
8.464630e+00 2.651507e+00 
8.499890e+00 2.629639e+00 
8.534560e+00 2.608378e+00 
8.569200e+00 2.587371e+00 
