# Parameters:
# omega_b = 0.021516, omega_m = 0.136535, n_s = 0.889370, h = 83.110236, w = -1.000000, sigma_8 = 0.783465
# z = 1.300000
#
# k[1/Mpc] # P(k):
8.694000e-04 5.958911e+03 
2.077466e-03 1.184563e+04 
3.285532e-03 1.615086e+04 
4.493598e-03 1.927912e+04 
5.701664e-03 2.147169e+04 
6.909730e-03 2.291714e+04 
8.117797e-03 2.380001e+04 
9.325863e-03 2.421613e+04 
1.053393e-02 2.425588e+04 
1.174199e-02 2.399847e+04 
1.295006e-02 2.349467e+04 
1.415813e-02 2.280931e+04 
1.536619e-02 2.199476e+04 
1.657426e-02 2.108300e+04 
1.778233e-02 2.008701e+04 
1.899039e-02 1.903900e+04 
2.019846e-02 1.799884e+04 
2.140652e-02 1.701263e+04 
2.261459e-02 1.608219e+04 
2.382266e-02 1.521236e+04 
2.503072e-02 1.440989e+04 
2.623879e-02 1.367647e+04 
2.744685e-02 1.301232e+04 
2.865492e-02 1.241624e+04 
2.986299e-02 1.188381e+04 
3.100100e-02 1.143817e+04 
3.220400e-02 1.102037e+04 
3.288100e-02 1.080856e+04 
3.424300e-02 1.042534e+04 
3.555100e-02 1.010298e+04 
3.686000e-02 9.818371e+03 
3.795000e-02 9.604044e+03 
3.929100e-02 9.363344e+03 
4.039800e-02 9.177067e+03 
4.164000e-02 8.976583e+03 
4.294400e-02 8.767278e+03 
4.415000e-02 8.574491e+03 
4.542900e-02 8.361613e+03 
4.660900e-02 8.161272e+03 
4.782300e-02 7.940639e+03 
4.892900e-02 7.733912e+03 
5.031200e-02 7.464740e+03 
5.155900e-02 7.212078e+03 
5.238100e-02 7.042296e+03 
5.378200e-02 6.749397e+03 
5.513400e-02 6.463394e+03 
5.627600e-02 6.221670e+03 
5.735300e-02 5.995495e+03 
5.870100e-02 5.716589e+03 
5.988700e-02 5.477658e+03 
6.113500e-02 5.234861e+03 
6.225900e-02 5.026797e+03 
6.340100e-02 4.828638e+03 
6.480200e-02 4.605499e+03 
6.601100e-02 4.434430e+03 
6.725500e-02 4.278880e+03 
6.829100e-02 4.166282e+03 
6.958600e-02 4.041947e+03 
7.071100e-02 3.949218e+03 
7.192300e-02 3.862194e+03 
7.307400e-02 3.790132e+03 
7.412300e-02 3.731915e+03 
7.550400e-02 3.664944e+03 
7.663100e-02 3.615699e+03 
7.791200e-02 3.565064e+03 
7.912700e-02 3.519730e+03 
8.027600e-02 3.477804e+03 
8.138400e-02 3.437422e+03 
8.272200e-02 3.387548e+03 
8.406100e-02 3.335402e+03 
8.534100e-02 3.281517e+03 
8.653800e-02 3.227154e+03 
8.759800e-02 3.176698e+03 
8.900300e-02 3.105931e+03 
9.009000e-02 3.047817e+03 
9.113300e-02 2.989155e+03 
9.239600e-02 2.916597e+03 
9.358000e-02 2.846514e+03 
9.496100e-02 2.762463e+03 
9.608400e-02 2.694166e+03 
9.727500e-02 2.622401e+03 
9.852600e-02 2.547040e+03 
9.973800e-02 2.476295e+03 
1.009000e-01 2.410538e+03 
1.020900e-01 2.346405e+03 
1.034000e-01 2.279392e+03 
1.046000e-01 2.221358e+03 
1.057200e-01 2.171947e+03 
1.069100e-01 2.122304e+03 
1.082500e-01 2.072145e+03 
1.093900e-01 2.033556e+03 
1.105400e-01 1.997293e+03 
1.116900e-01 1.965941e+03 
1.129600e-01 1.933574e+03 
1.142000e-01 1.906156e+03 
1.153300e-01 1.882923e+03 
1.166400e-01 1.858420e+03 
1.177800e-01 1.838674e+03 
1.190000e-01 1.818543e+03 
1.201200e-01 1.800608e+03 
1.213400e-01 1.781556e+03 
1.227100e-01 1.759502e+03 
1.238900e-01 1.740531e+03 
1.250700e-01 1.720439e+03 
1.263200e-01 1.698854e+03 
1.275500e-01 1.676336e+03 
1.287500e-01 1.653836e+03 
1.299900e-01 1.629477e+03 
1.311300e-01 1.606610e+03 
1.323500e-01 1.581215e+03 
1.335900e-01 1.555165e+03 
1.347100e-01 1.531052e+03 
1.359800e-01 1.503825e+03 
1.372100e-01 1.477054e+03 
1.384300e-01 1.450889e+03 
1.395700e-01 1.426406e+03 
1.407700e-01 1.401209e+03 
1.420300e-01 1.375156e+03 
1.432800e-01 1.349947e+03 
1.444500e-01 1.327243e+03 
1.456300e-01 1.304863e+03 
1.468900e-01 1.282228e+03 
1.480500e-01 1.262069e+03 
1.491700e-01 1.243530e+03 
1.503800e-01 1.224578e+03 
1.516400e-01 1.205537e+03 
1.528200e-01 1.189227e+03 
1.540200e-01 1.172974e+03 
1.551900e-01 1.158510e+03 
1.564300e-01 1.143740e+03 
1.576600e-01 1.129864e+03 
1.588700e-01 1.117059e+03 
1.600900e-01 1.104426e+03 
1.612700e-01 1.093062e+03 
1.625400e-01 1.081060e+03 
1.637600e-01 1.069841e+03 
1.649500e-01 1.059150e+03 
1.662200e-01 1.047904e+03 
1.674000e-01 1.037395e+03 
1.685000e-01 1.027762e+03 
1.697500e-01 1.016683e+03 
1.710300e-01 1.005226e+03 
1.722200e-01 9.947661e+02 
1.734400e-01 9.834583e+02 
1.746400e-01 9.724996e+02 
1.758700e-01 9.612257e+02 
1.770900e-01 9.497560e+02 
1.782700e-01 9.388562e+02 
1.794600e-01 9.277310e+02 
1.807000e-01 9.161270e+02 
1.819100e-01 9.050053e+02 
1.830100e-01 8.948430e+02 
1.842200e-01 8.838138e+02 
1.855000e-01 8.723556e+02 
1.867000e-01 8.617978e+02 
1.879200e-01 8.512491e+02 
1.890900e-01 8.413345e+02 
1.902800e-01 8.315760e+02 
1.915200e-01 8.215791e+02 
1.926900e-01 8.123777e+02 
1.939000e-01 8.032576e+02 
1.951700e-01 7.938453e+02 
1.963100e-01 7.856197e+02 
1.975100e-01 7.773271e+02 
1.987800e-01 7.686925e+02 
2.000100e-01 7.605508e+02 
2.012500e-01 7.526705e+02 
2.023400e-01 7.458461e+02 
2.036100e-01 7.380518e+02 
2.048900e-01 7.304715e+02 
2.060400e-01 7.237637e+02 
2.072200e-01 7.169864e+02 
2.084200e-01 7.102769e+02 
2.096900e-01 7.032824e+02 
2.109200e-01 6.966104e+02 
2.121100e-01 6.902489e+02 
2.132700e-01 6.841347e+02 
2.145200e-01 6.776405e+02 
2.157200e-01 6.714711e+02 
2.168800e-01 6.655786e+02 
2.180700e-01 6.596169e+02 
2.193400e-01 6.533273e+02 
2.206000e-01 6.471450e+02 
2.217500e-01 6.415809e+02 
2.229500e-01 6.358533e+02 
2.241400e-01 6.302178e+02 
2.253500e-01 6.245649e+02 
2.264900e-01 6.193100e+02 
2.277100e-01 6.137617e+02 
2.289900e-01 6.080229e+02 
2.301500e-01 6.028928e+02 
2.313600e-01 5.976122e+02 
2.325600e-01 5.924792e+02 
2.337700e-01 5.873717e+02 
2.350000e-01 5.822490e+02 
2.362000e-01 5.773440e+02 
2.374100e-01 5.724942e+02 
2.386500e-01 5.675893e+02 
2.399100e-01 5.626717e+02 
2.410400e-01 5.583752e+02 
2.422500e-01 5.538385e+02 
2.435000e-01 5.492120e+02 
2.447300e-01 5.447307e+02 
2.458700e-01 5.406779e+02 
2.470600e-01 5.364980e+02 
2.483300e-01 5.320931e+02 
2.495600e-01 5.278990e+02 
2.507600e-01 5.238818e+02 
2.519600e-01 5.199130e+02 
2.532200e-01 5.157971e+02 
2.543700e-01 5.120978e+02 
2.555500e-01 5.083542e+02 
2.568000e-01 5.044359e+02 
2.580100e-01 5.006887e+02 
2.592400e-01 4.969254e+02 
2.604100e-01 4.933875e+02 
2.616100e-01 4.898005e+02 
2.628400e-01 4.861668e+02 
2.640600e-01 4.825936e+02 
2.652200e-01 4.792303e+02 
2.664300e-01 4.757616e+02 
2.676500e-01 4.723043e+02 
2.688400e-01 4.689554e+02 
2.700700e-01 4.655238e+02 
2.712400e-01 4.622962e+02 
2.724800e-01 4.589140e+02 
2.736700e-01 4.556939e+02 
2.748800e-01 4.524451e+02 
2.761000e-01 4.492061e+02 
2.773200e-01 4.460034e+02 
2.785400e-01 4.428295e+02 
2.797000e-01 4.398303e+02 
2.808900e-01 4.367864e+02 
2.821400e-01 4.336243e+02 
2.833900e-01 4.304969e+02 
2.845500e-01 4.276091e+02 
2.857800e-01 4.245797e+02 
2.870300e-01 4.215350e+02 
2.882100e-01 4.186918e+02 
2.893900e-01 4.158717e+02 
2.906300e-01 4.129362e+02 
2.918900e-01 4.099861e+02 
2.930500e-01 4.072988e+02 
2.942500e-01 4.045458e+02 
2.954200e-01 4.018845e+02 
2.966500e-01 3.991156e+02 
2.978900e-01 3.963539e+02 
2.990400e-01 3.938189e+02 
3.002700e-01 3.911333e+02 
3.015100e-01 3.884534e+02 
3.026800e-01 3.859505e+02 
3.038500e-01 3.834725e+02 
3.050300e-01 3.809979e+02 
3.062600e-01 3.784452e+02 
3.075000e-01 3.758982e+02 
3.087000e-01 3.734584e+02 
3.099100e-01 3.710229e+02 
3.111200e-01 3.686138e+02 
3.123100e-01 3.662716e+02 
3.135300e-01 3.638941e+02 
3.147300e-01 3.615786e+02 
3.159900e-01 3.591716e+02 
3.171800e-01 3.569251e+02 
3.183700e-01 3.547029e+02 
3.196300e-01 3.523731e+02 
3.208400e-01 3.501578e+02 
3.220300e-01 3.480000e+02 
3.232000e-01 3.459047e+02 
3.244300e-01 3.437252e+02 
3.256700e-01 3.415494e+02 
3.269200e-01 3.393775e+02 
3.280800e-01 3.373809e+02 
3.292500e-01 3.353935e+02 
3.304800e-01 3.333261e+02 
3.317100e-01 3.312784e+02 
3.328900e-01 3.293321e+02 
3.340700e-01 3.274035e+02 
3.353600e-01 3.253237e+02 
3.365300e-01 3.234584e+02 
3.377100e-01 3.215938e+02 
3.389200e-01 3.196991e+02 
3.401600e-01 3.177753e+02 
3.413700e-01 3.159230e+02 
3.425300e-01 3.141684e+02 
3.437700e-01 3.123095e+02 
3.449800e-01 3.105120e+02 
3.461800e-01 3.087451e+02 
3.473600e-01 3.070264e+02 
3.485800e-01 3.052735e+02 
3.498100e-01 3.035219e+02 
3.510200e-01 3.018141e+02 
3.522000e-01 3.001630e+02 
3.533900e-01 2.985122e+02 
3.546400e-01 2.968042e+02 
3.558400e-01 2.951794e+02 
3.570600e-01 2.935419e+02 
3.582700e-01 2.919318e+02 
3.595000e-01 2.903092e+02 
3.607100e-01 2.887325e+02 
3.618900e-01 2.872122e+02 
3.631200e-01 2.856408e+02 
3.643200e-01 2.841208e+02 
3.655500e-01 2.825759e+02 
3.667300e-01 2.811062e+02 
3.679500e-01 2.796100e+02 
3.691900e-01 2.781020e+02 
3.703600e-01 2.766909e+02 
3.715700e-01 2.752435e+02 
3.727700e-01 2.738198e+02 
3.739900e-01 2.723875e+02 
3.752000e-01 2.709845e+02 
3.763900e-01 2.696159e+02 
3.775800e-01 2.682582e+02 
3.788200e-01 2.668550e+02 
3.800300e-01 2.654969e+02 
3.812100e-01 2.641872e+02 
3.824200e-01 2.628577e+02 
3.836100e-01 2.615606e+02 
3.848600e-01 2.602090e+02 
3.860400e-01 2.589432e+02 
3.872400e-01 2.576660e+02 
3.884600e-01 2.563833e+02 
3.896500e-01 2.551440e+02 
3.908700e-01 2.538834e+02 
3.920600e-01 2.526633e+02 
3.933100e-01 2.513918e+02 
3.945300e-01 2.501606e+02 
3.957200e-01 2.489741e+02 
3.969300e-01 2.477784e+02 
3.981700e-01 2.465625e+02 
3.993500e-01 2.454143e+02 
4.094840e-01 2.359192e+02 
4.272360e-01 2.207760e+02 
4.454600e-01 2.069040e+02 
4.630560e-01 1.948826e+02 
4.804610e-01 1.841411e+02 
4.980690e-01 1.742849e+02 
5.159230e-01 1.652001e+02 
5.317440e-01 1.578237e+02 
5.489640e-01 1.504415e+02 
5.671990e-01 1.432795e+02 
5.838690e-01 1.372530e+02 
6.018840e-01 1.312433e+02 
6.202330e-01 1.256111e+02 
6.379250e-01 1.205859e+02 
6.545410e-01 1.162113e+02 
6.714560e-01 1.120527e+02 
6.892080e-01 1.079861e+02 
7.066010e-01 1.042729e+02 
7.240540e-01 1.007847e+02 
7.420450e-01 9.742582e+01 
7.593780e-01 9.439312e+01 
7.764720e-01 9.157686e+01 
7.942840e-01 8.881504e+01 
8.116170e-01 8.628405e+01 
8.288310e-01 8.391158e+01 
8.462240e-01 8.164257e+01 
8.631980e-01 7.954354e+01 
8.810700e-01 7.744671e+01 
8.989410e-01 7.545820e+01 
9.166330e-01 7.358754e+01 
9.345640e-01 7.178416e+01 
9.515980e-01 7.015104e+01 
9.688720e-01 6.856838e+01 
9.865640e-01 6.701996e+01 
1.031870e+00 6.334898e+01 
1.063490e+00 6.101097e+01 
1.097920e+00 5.864992e+01 
1.134370e+00 5.633182e+01 
1.167730e+00 5.435895e+01 
1.203830e+00 5.236387e+01 
1.240470e+00 5.047375e+01 
1.275790e+00 4.876577e+01 
1.309140e+00 4.724879e+01 
1.342970e+00 4.579151e+01 
1.378420e+00 4.434996e+01 
1.413200e+00 4.301130e+01 
1.448110e+00 4.173609e+01 
1.484090e+00 4.049023e+01 
1.518820e+00 3.934659e+01 
1.552880e+00 3.827691e+01 
1.588630e+00 3.720564e+01 
1.623230e+00 3.621694e+01 
1.657720e+00 3.527423e+01 
1.692450e+00 3.436616e+01 
1.726400e+00 3.351371e+01 
1.762200e+00 3.265132e+01 
1.797880e+00 3.182805e+01 
1.833270e+00 3.104431e+01 
1.869070e+00 3.028240e+01 
1.903200e+00 2.958392e+01 
1.937740e+00 2.890286e+01 
1.973190e+00 2.822920e+01 
2.007440e+00 2.760181e+01 
2.042160e+00 2.698802e+01 
2.077900e+00 2.637801e+01 
2.112390e+00 2.580986e+01 
2.146220e+00 2.527014e+01 
2.181600e+00 2.472440e+01 
2.216930e+00 2.419740e+01 
2.250760e+00 2.370884e+01 
2.286500e+00 2.320900e+01 
2.321770e+00 2.273143e+01 
2.355950e+00 2.228275e+01 
2.391280e+00 2.183220e+01 
2.426240e+00 2.139979e+01 
2.460670e+00 2.098674e+01 
2.495640e+00 2.057977e+01 
2.531080e+00 2.017839e+01 
2.566220e+00 1.979178e+01 
2.600830e+00 1.942192e+01 
2.635080e+00 1.906620e+01 
2.670340e+00 1.870901e+01 
2.705970e+00 1.835829e+01 
2.740040e+00 1.803217e+01 
2.774520e+00 1.771020e+01 
2.809730e+00 1.738981e+01 
2.844390e+00 1.708289e+01 
2.879960e+00 1.677582e+01 
2.914860e+00 1.648203e+01 
2.949410e+00 1.619878e+01 
2.984440e+00 1.591826e+01 
3.019760e+00 1.564251e+01 
3.054730e+00 1.537659e+01 
3.089030e+00 1.512110e+01 
3.124060e+00 1.486673e+01 
3.159560e+00 1.461515e+01 
3.194710e+00 1.437174e+01 
3.229010e+00 1.414012e+01 
3.263320e+00 1.391281e+01 
3.297930e+00 1.368909e+01 
3.332830e+00 1.346850e+01 
3.368040e+00 1.325091e+01 
3.403300e+00 1.303803e+01 
3.438450e+00 1.283024e+01 
3.473060e+00 1.263057e+01 
3.508440e+00 1.243027e+01 
3.543110e+00 1.223868e+01 
3.577470e+00 1.205234e+01 
3.613040e+00 1.186387e+01 
3.648120e+00 1.168176e+01 
3.682910e+00 1.150509e+01 
3.718050e+00 1.133011e+01 
3.753320e+00 1.115830e+01 
3.787980e+00 1.099290e+01 
3.822290e+00 1.083253e+01 
3.857020e+00 1.067329e+01 
3.891920e+00 1.051657e+01 
3.926650e+00 1.036351e+01 
3.961970e+00 1.021113e+01 
3.997360e+00 1.006132e+01 
4.031670e+00 9.919165e+00 
4.066330e+00 9.778118e+00 
4.101420e+00 9.638403e+00 
4.136200e+00 9.502104e+00 
4.170810e+00 9.369371e+00 
4.206250e+00 9.235844e+00 
4.241580e+00 9.105494e+00 
4.276300e+00 8.979666e+00 
4.310970e+00 8.856389e+00 
4.346120e+00 8.733805e+00 
4.380600e+00 8.615706e+00 
4.414730e+00 8.501142e+00 
4.450350e+00 8.383466e+00 
4.485320e+00 8.270297e+00 
4.519810e+00 8.160542e+00 
4.555430e+00 8.049295e+00 
4.590870e+00 7.940718e+00 
4.625480e+00 7.836525e+00 
4.659910e+00 7.734875e+00 
4.695230e+00 7.632247e+00 
4.729960e+00 7.533229e+00 
4.764450e+00 7.436609e+00 
4.799530e+00 7.339945e+00 
4.834910e+00 7.244315e+00 
4.869700e+00 7.151807e+00 
4.904370e+00 7.061291e+00 
4.939450e+00 6.971334e+00 
4.973940e+00 6.884334e+00 
5.008430e+00 6.798910e+00 
5.043810e+00 6.712692e+00 
5.078840e+00 6.628777e+00 
5.113500e+00 6.547241e+00 
5.148890e+00 6.465251e+00 
5.184210e+00 6.384888e+00 
5.219060e+00 6.306963e+00 
5.253660e+00 6.230831e+00 
5.288570e+00 6.155355e+00 
5.323420e+00 6.081240e+00 
5.358440e+00 6.007966e+00 
5.393590e+00 5.935691e+00 
5.428310e+00 5.865426e+00 
5.462800e+00 5.796754e+00 
5.497640e+00 5.728549e+00 
5.532670e+00 5.661035e+00 
5.567280e+00 5.595413e+00 
5.602000e+00 5.530669e+00 
5.637270e+00 5.465926e+00 
5.672410e+00 5.402477e+00 
5.707020e+00 5.341005e+00 
5.742040e+00 5.279765e+00 
5.777430e+00 5.218876e+00 
5.812210e+00 5.160004e+00 
5.846820e+00 5.102298e+00 
5.881610e+00 5.045196e+00 
5.916510e+00 4.988818e+00 
5.951600e+00 4.932995e+00 
5.986560e+00 4.878238e+00 
6.021830e+00 4.823861e+00 
6.056490e+00 4.771256e+00 
6.091160e+00 4.719443e+00 
6.125830e+00 4.668419e+00 
6.161090e+00 4.617323e+00 
6.195760e+00 4.567848e+00 
6.230420e+00 4.519131e+00 
6.265690e+00 4.470302e+00 
6.300950e+00 4.422224e+00 
6.335620e+00 4.375656e+00 
6.370880e+00 4.328998e+00 
6.405550e+00 4.283821e+00 
6.440220e+00 4.239311e+00 
6.475480e+00 4.194706e+00 
6.510150e+00 4.151489e+00 
6.544810e+00 4.108914e+00 
6.580080e+00 4.066214e+00 
6.614750e+00 4.024842e+00 
6.649410e+00 3.984122e+00 
6.684080e+00 3.943974e+00 
6.719340e+00 3.903719e+00 
6.754010e+00 3.864708e+00 
6.788680e+00 3.826269e+00 
6.823940e+00 3.787721e+00 
6.859800e+00 3.749068e+00 
6.894470e+00 3.712260e+00 
6.929140e+00 3.675967e+00 
6.963800e+00 3.640176e+00 
6.999070e+00 3.604255e+00 
7.033730e+00 3.569490e+00 
7.068400e+00 3.535179e+00 
7.103660e+00 3.500752e+00 
7.138330e+00 3.467378e+00 
7.173600e+00 3.433929e+00 
7.208260e+00 3.401493e+00 
7.243530e+00 3.368921e+00 
7.277600e+00 3.337900e+00 
7.312860e+00 3.306243e+00 
7.348120e+00 3.275001e+00 
7.382790e+00 3.244679e+00 
7.417460e+00 3.214795e+00 
7.452720e+00 3.184820e+00 
7.487390e+00 3.155722e+00 
7.522650e+00 3.126504e+00 
7.557320e+00 3.098201e+00 
7.591990e+00 3.070273e+00 
7.627250e+00 3.042225e+00 
7.662510e+00 3.014531e+00 
7.697180e+00 2.987698e+00 
7.731850e+00 2.961216e+00 
7.766510e+00 2.935066e+00 
7.801180e+00 2.909226e+00 
7.836440e+00 2.883324e+00 
7.871110e+00 2.858199e+00 
7.906380e+00 2.832949e+00 
7.941040e+00 2.808435e+00 
7.976310e+00 2.783820e+00 
8.011570e+00 2.759546e+00 
8.046240e+00 2.735963e+00 
8.080900e+00 2.712663e+00 
8.115570e+00 2.689649e+00 
8.150830e+00 2.666593e+00 
8.185500e+00 2.644189e+00 
8.220770e+00 2.621662e+00 
8.255430e+00 2.599782e+00 
8.290100e+00 2.578218e+00 
8.324770e+00 2.556908e+00 
8.359430e+00 2.535846e+00 
8.394700e+00 2.514658e+00 
8.429960e+00 2.493765e+00 
8.464630e+00 2.473501e+00 
8.499890e+00 2.453124e+00 
8.534560e+00 2.433313e+00 
8.569200e+00 2.413739e+00 
