# Parameters:
# omega_b = 0.023280, omega_m = 0.145079, n_s = 0.944488, h = 70.826772, w = -1.000000, sigma_8 = 0.846457
# z = 1.300000
#
# k[1/Mpc] # P(k):
8.694000e-04 5.013501e+03 
2.077466e-03 1.054725e+04 
3.285532e-03 1.482444e+04 
4.493598e-03 1.811775e+04 
5.701664e-03 2.056056e+04 
6.909730e-03 2.229737e+04 
8.117797e-03 2.348771e+04 
9.325863e-03 2.421159e+04 
1.053393e-02 2.454562e+04 
1.174199e-02 2.455816e+04 
1.295006e-02 2.429483e+04 
1.415813e-02 2.381773e+04 
1.536619e-02 2.317876e+04 
1.657426e-02 2.241206e+04 
1.778233e-02 2.153918e+04 
1.899039e-02 2.060600e+04 
2.019846e-02 1.966220e+04 
2.140652e-02 1.874234e+04 
2.261459e-02 1.785166e+04 
2.382266e-02 1.700142e+04 
2.503072e-02 1.620244e+04 
2.623879e-02 1.545921e+04 
2.744685e-02 1.477318e+04 
2.865492e-02 1.414735e+04 
2.986299e-02 1.357971e+04 
3.100100e-02 1.309704e+04 
3.220400e-02 1.263838e+04 
3.288100e-02 1.240322e+04 
3.424300e-02 1.197429e+04 
3.555100e-02 1.161088e+04 
3.686000e-02 1.128913e+04 
3.795000e-02 1.104735e+04 
3.929100e-02 1.077827e+04 
4.039800e-02 1.057300e+04 
4.164000e-02 1.035538e+04 
4.294400e-02 1.013389e+04 
4.415000e-02 9.933157e+03 
4.542900e-02 9.715722e+03 
4.660900e-02 9.513038e+03 
4.782300e-02 9.291662e+03 
4.892900e-02 9.084499e+03 
5.031200e-02 8.814184e+03 
5.155900e-02 8.558739e+03 
5.238100e-02 8.385887e+03 
5.378200e-02 8.085350e+03 
5.513400e-02 7.788540e+03 
5.627600e-02 7.535162e+03 
5.735300e-02 7.296486e+03 
5.870100e-02 7.000598e+03 
5.988700e-02 6.746263e+03 
6.113500e-02 6.486982e+03 
6.225900e-02 6.263521e+03 
6.340100e-02 6.048792e+03 
6.480200e-02 5.803811e+03 
6.601100e-02 5.611326e+03 
6.725500e-02 5.431429e+03 
6.829100e-02 5.296636e+03 
6.958600e-02 5.143444e+03 
7.071100e-02 5.024877e+03 
7.192300e-02 4.910075e+03 
7.307400e-02 4.812212e+03 
7.412300e-02 4.731363e+03 
7.550400e-02 4.636407e+03 
7.663100e-02 4.565921e+03 
7.791200e-02 4.493566e+03 
7.912700e-02 4.430073e+03 
8.027600e-02 4.372927e+03 
8.138400e-02 4.319505e+03 
8.272200e-02 4.256005e+03 
8.406100e-02 4.192240e+03 
8.534100e-02 4.129067e+03 
8.653800e-02 4.067122e+03 
8.759800e-02 4.010463e+03 
8.900300e-02 3.931991e+03 
9.009000e-02 3.868056e+03 
9.113300e-02 3.803634e+03 
9.239600e-02 3.723874e+03 
9.358000e-02 3.646581e+03 
9.496100e-02 3.553206e+03 
9.608400e-02 3.476780e+03 
9.727500e-02 3.395977e+03 
9.852600e-02 3.309919e+03 
9.973800e-02 3.228403e+03 
1.009000e-01 3.152020e+03 
1.020900e-01 3.076071e+03 
1.034000e-01 2.995874e+03 
1.046000e-01 2.925565e+03 
1.057200e-01 2.864240e+03 
1.069100e-01 2.802025e+03 
1.082500e-01 2.737480e+03 
1.093900e-01 2.686719e+03 
1.105400e-01 2.638341e+03 
1.116900e-01 2.594985e+03 
1.129600e-01 2.549700e+03 
1.142000e-01 2.510051e+03 
1.153300e-01 2.476099e+03 
1.166400e-01 2.439702e+03 
1.177800e-01 2.410278e+03 
1.190000e-01 2.380229e+03 
1.201200e-01 2.354102e+03 
1.213400e-01 2.326459e+03 
1.227100e-01 2.296170e+03 
1.238900e-01 2.270526e+03 
1.250700e-01 2.244696e+03 
1.263200e-01 2.217453e+03 
1.275500e-01 2.190119e+03 
1.287500e-01 2.163270e+03 
1.299900e-01 2.134902e+03 
1.311300e-01 2.108524e+03 
1.323500e-01 2.079594e+03 
1.335900e-01 2.049976e+03 
1.347100e-01 2.022641e+03 
1.359800e-01 1.991684e+03 
1.372100e-01 1.961096e+03 
1.384300e-01 1.931037e+03 
1.395700e-01 1.902576e+03 
1.407700e-01 1.873190e+03 
1.420300e-01 1.842205e+03 
1.432800e-01 1.812184e+03 
1.444500e-01 1.784462e+03 
1.456300e-01 1.757108e+03 
1.468900e-01 1.728900e+03 
1.480500e-01 1.703602e+03 
1.491700e-01 1.680059e+03 
1.503800e-01 1.655638e+03 
1.516400e-01 1.630990e+03 
1.528200e-01 1.609421e+03 
1.540200e-01 1.587924e+03 
1.551900e-01 1.568449e+03 
1.564300e-01 1.548473e+03 
1.576600e-01 1.529586e+03 
1.588700e-01 1.512008e+03 
1.600900e-01 1.494664e+03 
1.612700e-01 1.479002e+03 
1.625400e-01 1.462459e+03 
1.637600e-01 1.447092e+03 
1.649500e-01 1.432504e+03 
1.662200e-01 1.417206e+03 
1.674000e-01 1.403178e+03 
1.685000e-01 1.390319e+03 
1.697500e-01 1.375723e+03 
1.710300e-01 1.360819e+03 
1.722200e-01 1.347208e+03 
1.734400e-01 1.332847e+03 
1.746400e-01 1.318939e+03 
1.758700e-01 1.304708e+03 
1.770900e-01 1.290389e+03 
1.782700e-01 1.276775e+03 
1.794600e-01 1.262952e+03 
1.807000e-01 1.248579e+03 
1.819100e-01 1.234795e+03 
1.830100e-01 1.222199e+03 
1.842200e-01 1.208522e+03 
1.855000e-01 1.194301e+03 
1.867000e-01 1.181114e+03 
1.879200e-01 1.167931e+03 
1.890900e-01 1.155512e+03 
1.902800e-01 1.143169e+03 
1.915200e-01 1.130519e+03 
1.926900e-01 1.118834e+03 
1.939000e-01 1.107132e+03 
1.951700e-01 1.095049e+03 
1.963100e-01 1.084450e+03 
1.975100e-01 1.073665e+03 
1.987800e-01 1.062431e+03 
2.000100e-01 1.051808e+03 
2.012500e-01 1.041459e+03 
2.023400e-01 1.032494e+03 
2.036100e-01 1.022245e+03 
2.048900e-01 1.012242e+03 
2.060400e-01 1.003388e+03 
2.072200e-01 9.944407e+02 
2.084200e-01 9.855858e+02 
2.096900e-01 9.763530e+02 
2.109200e-01 9.675443e+02 
2.121100e-01 9.591701e+02 
2.132700e-01 9.511214e+02 
2.145200e-01 9.425705e+02 
2.157200e-01 9.344653e+02 
2.168800e-01 9.267312e+02 
2.180700e-01 9.189045e+02 
2.193400e-01 9.106464e+02 
2.206000e-01 9.025287e+02 
2.217500e-01 8.952211e+02 
2.229500e-01 8.876970e+02 
2.241400e-01 8.802673e+02 
2.253500e-01 8.728125e+02 
2.264900e-01 8.658811e+02 
2.277100e-01 8.585296e+02 
2.289900e-01 8.508889e+02 
2.301500e-01 8.440575e+02 
2.313600e-01 8.370237e+02 
2.325600e-01 8.300980e+02 
2.337700e-01 8.232060e+02 
2.350000e-01 8.162922e+02 
2.362000e-01 8.096276e+02 
2.374100e-01 8.029850e+02 
2.386500e-01 7.962665e+02 
2.399100e-01 7.895300e+02 
2.410400e-01 7.835703e+02 
2.422500e-01 7.772676e+02 
2.435000e-01 7.708401e+02 
2.447300e-01 7.646027e+02 
2.458700e-01 7.589159e+02 
2.470600e-01 7.530506e+02 
2.483300e-01 7.468696e+02 
2.495600e-01 7.409746e+02 
2.507600e-01 7.353148e+02 
2.519600e-01 7.297232e+02 
2.532200e-01 7.239244e+02 
2.543700e-01 7.187212e+02 
2.555500e-01 7.134616e+02 
2.568000e-01 7.079566e+02 
2.580100e-01 7.026920e+02 
2.592400e-01 6.974351e+02 
2.604100e-01 6.925064e+02 
2.616100e-01 6.875091e+02 
2.628400e-01 6.824467e+02 
2.640600e-01 6.775113e+02 
2.652200e-01 6.728825e+02 
2.664300e-01 6.681082e+02 
2.676500e-01 6.633496e+02 
2.688400e-01 6.587781e+02 
2.700700e-01 6.541173e+02 
2.712400e-01 6.497332e+02 
2.724800e-01 6.451385e+02 
2.736700e-01 6.407908e+02 
2.748800e-01 6.364311e+02 
2.761000e-01 6.320841e+02 
2.773200e-01 6.277852e+02 
2.785400e-01 6.235381e+02 
2.797000e-01 6.195524e+02 
2.808900e-01 6.155066e+02 
2.821400e-01 6.113031e+02 
2.833900e-01 6.071463e+02 
2.845500e-01 6.033358e+02 
2.857800e-01 5.993377e+02 
2.870300e-01 5.953188e+02 
2.882100e-01 5.915651e+02 
2.893900e-01 5.878535e+02 
2.906300e-01 5.839959e+02 
2.918900e-01 5.801182e+02 
2.930500e-01 5.765853e+02 
2.942500e-01 5.729677e+02 
2.954200e-01 5.694769e+02 
2.966500e-01 5.658443e+02 
2.978900e-01 5.622203e+02 
2.990400e-01 5.588931e+02 
3.002700e-01 5.553697e+02 
3.015100e-01 5.518543e+02 
3.026800e-01 5.485704e+02 
3.038500e-01 5.453184e+02 
3.050300e-01 5.420702e+02 
3.062600e-01 5.387184e+02 
3.075000e-01 5.353734e+02 
3.087000e-01 5.321685e+02 
3.099100e-01 5.289684e+02 
3.111200e-01 5.258012e+02 
3.123100e-01 5.227191e+02 
3.135300e-01 5.195899e+02 
3.147300e-01 5.165417e+02 
3.159900e-01 5.133723e+02 
3.171800e-01 5.104107e+02 
3.183700e-01 5.074785e+02 
3.196300e-01 5.044037e+02 
3.208400e-01 5.014795e+02 
3.220300e-01 4.986305e+02 
3.232000e-01 4.958598e+02 
3.244300e-01 4.929759e+02 
3.256700e-01 4.900962e+02 
3.269200e-01 4.872210e+02 
3.280800e-01 4.845775e+02 
3.292500e-01 4.819423e+02 
3.304800e-01 4.791996e+02 
3.317100e-01 4.764824e+02 
3.328900e-01 4.738993e+02 
3.340700e-01 4.713391e+02 
3.353600e-01 4.685745e+02 
3.365300e-01 4.660931e+02 
3.377100e-01 4.636123e+02 
3.389200e-01 4.610909e+02 
3.401600e-01 4.585303e+02 
3.413700e-01 4.560626e+02 
3.425300e-01 4.537233e+02 
3.437700e-01 4.512444e+02 
3.449800e-01 4.488471e+02 
3.461800e-01 4.464902e+02 
3.473600e-01 4.441966e+02 
3.485800e-01 4.418554e+02 
3.498100e-01 4.395158e+02 
3.510200e-01 4.372341e+02 
3.522000e-01 4.350280e+02 
3.533900e-01 4.328218e+02 
3.546400e-01 4.305375e+02 
3.558400e-01 4.283642e+02 
3.570600e-01 4.261733e+02 
3.582700e-01 4.240189e+02 
3.595000e-01 4.218473e+02 
3.607100e-01 4.197369e+02 
3.618900e-01 4.177017e+02 
3.631200e-01 4.155978e+02 
3.643200e-01 4.135623e+02 
3.655500e-01 4.114933e+02 
3.667300e-01 4.095246e+02 
3.679500e-01 4.075205e+02 
3.691900e-01 4.055004e+02 
3.703600e-01 4.036099e+02 
3.715700e-01 4.016703e+02 
3.727700e-01 3.997622e+02 
3.739900e-01 3.978428e+02 
3.752000e-01 3.959634e+02 
3.763900e-01 3.941298e+02 
3.775800e-01 3.923105e+02 
3.788200e-01 3.904298e+02 
3.800300e-01 3.886094e+02 
3.812100e-01 3.868545e+02 
3.824200e-01 3.850735e+02 
3.836100e-01 3.833355e+02 
3.848600e-01 3.815242e+02 
3.860400e-01 3.798277e+02 
3.872400e-01 3.781157e+02 
3.884600e-01 3.763970e+02 
3.896500e-01 3.747367e+02 
3.908700e-01 3.730475e+02 
3.920600e-01 3.714124e+02 
3.933100e-01 3.697081e+02 
3.945300e-01 3.680577e+02 
3.957200e-01 3.664688e+02 
3.969300e-01 3.648679e+02 
3.981700e-01 3.632399e+02 
3.993500e-01 3.617022e+02 
4.094840e-01 3.489768e+02 
4.272360e-01 3.286792e+02 
4.454600e-01 3.100366e+02 
4.630560e-01 2.938169e+02 
4.804610e-01 2.792486e+02 
4.980690e-01 2.658039e+02 
5.159230e-01 2.533297e+02 
5.317440e-01 2.431449e+02 
5.489640e-01 2.328890e+02 
5.671990e-01 2.228818e+02 
5.838690e-01 2.144239e+02 
6.018840e-01 2.059534e+02 
6.202330e-01 1.979785e+02 
6.379250e-01 1.908429e+02 
6.545410e-01 1.846094e+02 
6.714560e-01 1.786688e+02 
6.892080e-01 1.728468e+02 
7.066010e-01 1.675173e+02 
7.240540e-01 1.624981e+02 
7.420450e-01 1.576530e+02 
7.593780e-01 1.532658e+02 
7.764720e-01 1.491822e+02 
7.942840e-01 1.451658e+02 
8.116170e-01 1.414745e+02 
8.288310e-01 1.380010e+02 
8.462240e-01 1.346701e+02 
8.631980e-01 1.315759e+02 
8.810700e-01 1.284741e+02 
8.989410e-01 1.255192e+02 
9.166330e-01 1.227287e+02 
9.345640e-01 1.200290e+02 
9.515980e-01 1.175709e+02 
9.688720e-01 1.151775e+02 
9.865640e-01 1.128244e+02 
1.031870e+00 1.072008e+02 
1.063490e+00 1.035799e+02 
1.097920e+00 9.989132e+01 
1.134370e+00 9.623508e+01 
1.167730e+00 9.309475e+01 
1.203830e+00 8.988593e+01 
1.240470e+00 8.682209e+01 
1.275790e+00 8.402711e+01 
1.309140e+00 8.152887e+01 
1.342970e+00 7.910533e+01 
1.378420e+00 7.669472e+01 
1.413200e+00 7.443950e+01 
1.448110e+00 7.227838e+01 
1.484090e+00 7.015414e+01 
1.518820e+00 6.819319e+01 
1.552880e+00 6.634917e+01 
1.588630e+00 6.449439e+01 
1.623230e+00 6.277475e+01 
1.657720e+00 6.112778e+01 
1.692450e+00 5.953664e+01 
1.726400e+00 5.803699e+01 
1.762200e+00 5.651440e+01 
1.797880e+00 5.505644e+01 
1.833270e+00 5.366493e+01 
1.869070e+00 5.230818e+01 
1.903200e+00 5.106181e+01 
1.937740e+00 4.984434e+01 
1.973190e+00 4.863773e+01 
2.007440e+00 4.751261e+01 
2.042160e+00 4.640971e+01 
2.077900e+00 4.531172e+01 
2.112390e+00 4.428873e+01 
2.146220e+00 4.331517e+01 
2.181600e+00 4.233003e+01 
2.216930e+00 4.137785e+01 
2.250760e+00 4.049471e+01 
2.286500e+00 3.959076e+01 
2.321770e+00 3.872662e+01 
2.355950e+00 3.791497e+01 
2.391280e+00 3.709887e+01 
2.426240e+00 3.631592e+01 
2.460670e+00 3.556825e+01 
2.495640e+00 3.483170e+01 
2.531080e+00 3.410495e+01 
2.566220e+00 3.340505e+01 
2.600830e+00 3.273578e+01 
2.635080e+00 3.209256e+01 
2.670340e+00 3.144727e+01 
2.705970e+00 3.081376e+01 
2.740040e+00 3.022486e+01 
2.774520e+00 2.964371e+01 
2.809730e+00 2.906589e+01 
2.844390e+00 2.851287e+01 
2.879960e+00 2.796045e+01 
2.914860e+00 2.743210e+01 
2.949410e+00 2.692304e+01 
2.984440e+00 2.641960e+01 
3.019760e+00 2.592487e+01 
3.054730e+00 2.544801e+01 
3.089030e+00 2.499108e+01 
3.124060e+00 2.453649e+01 
3.159560e+00 2.408728e+01 
3.194710e+00 2.365332e+01 
3.229010e+00 2.324077e+01 
3.263320e+00 2.283673e+01 
3.297930e+00 2.243934e+01 
3.332830e+00 2.204786e+01 
3.368040e+00 2.166242e+01 
3.403300e+00 2.128596e+01 
3.438450e+00 2.091908e+01 
3.473060e+00 2.056684e+01 
3.508440e+00 2.021412e+01 
3.543110e+00 1.987708e+01 
3.577470e+00 1.955029e+01 
3.613040e+00 1.921999e+01 
3.648120e+00 1.890110e+01 
3.682910e+00 1.859221e+01 
3.718050e+00 1.828707e+01 
3.753320e+00 1.798780e+01 
3.787980e+00 1.770009e+01 
3.822290e+00 1.742157e+01 
3.857020e+00 1.714557e+01 
3.891920e+00 1.687430e+01 
3.926650e+00 1.660986e+01 
3.961970e+00 1.634696e+01 
3.997360e+00 1.608918e+01 
4.031670e+00 1.584478e+01 
4.066330e+00 1.560271e+01 
4.101420e+00 1.536309e+01 
4.136200e+00 1.513009e+01 
4.170810e+00 1.490331e+01 
4.206250e+00 1.467569e+01 
4.241580e+00 1.445368e+01 
4.276300e+00 1.423990e+01 
4.310970e+00 1.403078e+01 
4.346120e+00 1.382311e+01 
4.380600e+00 1.362341e+01 
4.414730e+00 1.342980e+01 
4.450350e+00 1.323161e+01 
4.485320e+00 1.304109e+01 
4.519810e+00 1.285679e+01 
4.555430e+00 1.267023e+01 
4.590870e+00 1.248836e+01 
4.625480e+00 1.231415e+01 
4.659910e+00 1.214427e+01 
4.695230e+00 1.197336e+01 
4.729960e+00 1.180861e+01 
4.764450e+00 1.164808e+01 
4.799530e+00 1.148783e+01 
4.834910e+00 1.132936e+01 
4.869700e+00 1.117648e+01 
4.904370e+00 1.102701e+01 
4.939450e+00 1.087864e+01 
4.973940e+00 1.073548e+01 
5.008430e+00 1.059497e+01 
5.043810e+00 1.045344e+01 
5.078840e+00 1.031589e+01 
5.113500e+00 1.018228e+01 
5.148890e+00 1.004840e+01 
5.184210e+00 9.917234e+00 
5.219060e+00 9.790176e+00 
5.253660e+00 9.666322e+00 
5.288570e+00 9.543575e+00 
5.323420e+00 9.423224e+00 
5.358440e+00 9.304435e+00 
5.393590e+00 9.187304e+00 
5.428310e+00 9.073699e+00 
5.462800e+00 8.962823e+00 
5.497640e+00 8.852735e+00 
5.532670e+00 8.744036e+00 
5.567280e+00 8.638492e+00 
5.602000e+00 8.534390e+00 
5.637270e+00 8.430509e+00 
5.672410e+00 8.328774e+00 
5.707020e+00 8.230238e+00 
5.742040e+00 8.132334e+00 
5.777430e+00 8.035067e+00 
5.812210e+00 7.941046e+00 
5.846820e+00 7.849068e+00 
5.881610e+00 7.758114e+00 
5.916510e+00 7.668336e+00 
5.951600e+00 7.579631e+00 
5.986560e+00 7.492715e+00 
6.021830e+00 7.406422e+00 
6.056490e+00 7.323074e+00 
6.091160e+00 7.241095e+00 
6.125830e+00 7.160382e+00 
6.161090e+00 7.079619e+00 
6.195760e+00 7.001541e+00 
6.230420e+00 6.924672e+00 
6.265690e+00 6.847650e+00 
6.300950e+00 6.772008e+00 
6.335620e+00 6.698754e+00 
6.370880e+00 6.625370e+00 
6.405550e+00 6.554420e+00 
6.440220e+00 6.484566e+00 
6.475480e+00 6.414573e+00 
6.510150e+00 6.346818e+00 
6.544810e+00 6.280192e+00 
6.580080e+00 6.213379e+00 
6.614750e+00 6.148653e+00 
6.649410e+00 6.085042e+00 
6.684080e+00 6.022349e+00 
6.719340e+00 5.959499e+00 
6.754010e+00 5.898637e+00 
6.788680e+00 5.838767e+00 
6.823940e+00 5.778733e+00 
6.859800e+00 5.718545e+00 
6.894470e+00 5.661296e+00 
6.929140e+00 5.604877e+00 
6.963800e+00 5.549244e+00 
6.999070e+00 5.493420e+00 
7.033730e+00 5.439475e+00 
7.068400e+00 5.386240e+00 
7.103660e+00 5.332831e+00 
7.138330e+00 5.281083e+00 
7.173600e+00 5.229269e+00 
7.208260e+00 5.179029e+00 
7.243530e+00 5.128583e+00 
7.277600e+00 5.080577e+00 
7.312860e+00 5.031617e+00 
7.348120e+00 4.983304e+00 
7.382790e+00 4.936417e+00 
7.417460e+00 4.890266e+00 
7.452720e+00 4.844003e+00 
7.487390e+00 4.799098e+00 
7.522650e+00 4.754013e+00 
7.557320e+00 4.710356e+00 
7.591990e+00 4.667289e+00 
7.627250e+00 4.624041e+00 
7.662510e+00 4.581340e+00 
7.697180e+00 4.540003e+00 
7.731850e+00 4.499222e+00 
7.766510e+00 4.458953e+00 
7.801180e+00 4.419166e+00 
7.836440e+00 4.379293e+00 
7.871110e+00 4.340625e+00 
7.906380e+00 4.301767e+00 
7.941040e+00 4.264044e+00 
7.976310e+00 4.226183e+00 
8.011570e+00 4.188865e+00 
8.046240e+00 4.152610e+00 
8.080900e+00 4.116795e+00 
8.115570e+00 4.081423e+00 
8.150830e+00 4.045997e+00 
8.185500e+00 4.011573e+00 
8.220770e+00 3.976964e+00 
8.255430e+00 3.943350e+00 
8.290100e+00 3.910245e+00 
8.324770e+00 3.877534e+00 
8.359430e+00 3.845206e+00 
8.394700e+00 3.812686e+00 
8.429960e+00 3.780622e+00 
8.464630e+00 3.749524e+00 
8.499890e+00 3.718256e+00 
8.534560e+00 3.687858e+00 
8.569200e+00 3.657825e+00 
