# Parameters:
# omega_b = 0.022886, omega_m = 0.150315, n_s = 0.938189, h = 69.409449, w = -1.000000, sigma_8 = 0.816535
# z = 1.300000
#
# k[1/Mpc] # P(k):
8.694000e-04 4.276940e+03 
2.077466e-03 8.978320e+03 
3.285532e-03 1.263157e+04 
4.493598e-03 1.546513e+04 
5.701664e-03 1.759242e+04 
6.909730e-03 1.912917e+04 
8.117797e-03 2.020477e+04 
9.325863e-03 2.088471e+04 
1.053393e-02 2.123293e+04 
1.174199e-02 2.130720e+04 
1.295006e-02 2.114525e+04 
1.415813e-02 2.079850e+04 
1.536619e-02 2.031014e+04 
1.657426e-02 1.970819e+04 
1.778233e-02 1.901050e+04 
1.899039e-02 1.825421e+04 
2.019846e-02 1.747963e+04 
2.140652e-02 1.671704e+04 
2.261459e-02 1.597164e+04 
2.382266e-02 1.525379e+04 
2.503072e-02 1.457370e+04 
2.623879e-02 1.393603e+04 
2.744685e-02 1.334229e+04 
2.865492e-02 1.279645e+04 
2.986299e-02 1.229768e+04 
3.100100e-02 1.187023e+04 
3.220400e-02 1.146116e+04 
3.288100e-02 1.125009e+04 
3.424300e-02 1.086299e+04 
3.555100e-02 1.053297e+04 
3.686000e-02 1.023926e+04 
3.795000e-02 1.001784e+04 
3.929100e-02 9.771088e+03 
4.039800e-02 9.583169e+03 
4.164000e-02 9.384600e+03 
4.294400e-02 9.184156e+03 
4.415000e-02 9.003763e+03 
4.542900e-02 8.810410e+03 
4.660900e-02 8.631410e+03 
4.782300e-02 8.437596e+03 
4.892900e-02 8.256966e+03 
5.031200e-02 8.022118e+03 
5.155900e-02 7.800554e+03 
5.238100e-02 7.650596e+03 
5.378200e-02 7.389551e+03 
5.513400e-02 7.130902e+03 
5.627600e-02 6.909196e+03 
5.735300e-02 6.699414e+03 
5.870100e-02 6.437849e+03 
5.988700e-02 6.211534e+03 
6.113500e-02 5.979191e+03 
6.225900e-02 5.777403e+03 
6.340100e-02 5.582036e+03 
6.480200e-02 5.357526e+03 
6.601100e-02 5.179552e+03 
6.725500e-02 5.012001e+03 
6.829100e-02 4.885523e+03 
6.958600e-02 4.741074e+03 
7.071100e-02 4.628581e+03 
7.192300e-02 4.519148e+03 
7.307400e-02 4.425489e+03 
7.412300e-02 4.347896e+03 
7.550400e-02 4.256594e+03 
7.663100e-02 4.188845e+03 
7.791200e-02 4.119563e+03 
7.912700e-02 4.059283e+03 
8.027600e-02 4.005564e+03 
8.138400e-02 3.955876e+03 
8.272200e-02 3.897617e+03 
8.406100e-02 3.839974e+03 
8.534100e-02 3.783783e+03 
8.653800e-02 3.729298e+03 
8.759800e-02 3.679756e+03 
8.900300e-02 3.611488e+03 
9.009000e-02 3.556031e+03 
9.113300e-02 3.500148e+03 
9.239600e-02 3.430885e+03 
9.358000e-02 3.363590e+03 
9.496100e-02 3.281867e+03 
9.608400e-02 3.214653e+03 
9.727500e-02 3.143312e+03 
9.852600e-02 3.066566e+03 
9.973800e-02 2.993462e+03 
1.009000e-01 2.924623e+03 
1.020900e-01 2.855309e+03 
1.034000e-01 2.781688e+03 
1.046000e-01 2.716698e+03 
1.057200e-01 2.659269e+03 
1.069100e-01 2.600744e+03 
1.082500e-01 2.539273e+03 
1.093900e-01 2.490502e+03 
1.105400e-01 2.443769e+03 
1.116900e-01 2.401388e+03 
1.129600e-01 2.356988e+03 
1.142000e-01 2.317826e+03 
1.153300e-01 2.284286e+03 
1.166400e-01 2.248315e+03 
1.177800e-01 2.219438e+03 
1.190000e-01 2.190045e+03 
1.201200e-01 2.165007e+03 
1.213400e-01 2.138610e+03 
1.227100e-01 2.110635e+03 
1.238900e-01 2.087148e+03 
1.250700e-01 2.064125e+03 
1.263200e-01 2.040045e+03 
1.275500e-01 2.016326e+03 
1.287500e-01 1.993156e+03 
1.299900e-01 1.968870e+03 
1.311300e-01 1.946270e+03 
1.323500e-01 1.921457e+03 
1.335900e-01 1.895904e+03 
1.347100e-01 1.872127e+03 
1.359800e-01 1.845006e+03 
1.372100e-01 1.817833e+03 
1.384300e-01 1.790941e+03 
1.395700e-01 1.765053e+03 
1.407700e-01 1.738263e+03 
1.420300e-01 1.709438e+03 
1.432800e-01 1.681511e+03 
1.444500e-01 1.655239e+03 
1.456300e-01 1.629321e+03 
1.468900e-01 1.602355e+03 
1.480500e-01 1.578104e+03 
1.491700e-01 1.555478e+03 
1.503800e-01 1.531934e+03 
1.516400e-01 1.508180e+03 
1.528200e-01 1.487411e+03 
1.540200e-01 1.466718e+03 
1.551900e-01 1.448083e+03 
1.564300e-01 1.428999e+03 
1.576600e-01 1.411053e+03 
1.588700e-01 1.394469e+03 
1.600900e-01 1.378120e+03 
1.612700e-01 1.363583e+03 
1.625400e-01 1.348230e+03 
1.637600e-01 1.334095e+03 
1.649500e-01 1.320751e+03 
1.662200e-01 1.306780e+03 
1.674000e-01 1.294083e+03 
1.685000e-01 1.282445e+03 
1.697500e-01 1.269260e+03 
1.710300e-01 1.255819e+03 
1.722200e-01 1.243544e+03 
1.734400e-01 1.230567e+03 
1.746400e-01 1.217998e+03 
1.758700e-01 1.205111e+03 
1.770900e-01 1.192091e+03 
1.782700e-01 1.179712e+03 
1.794600e-01 1.167085e+03 
1.807000e-01 1.153915e+03 
1.819100e-01 1.141285e+03 
1.830100e-01 1.129665e+03 
1.842200e-01 1.117034e+03 
1.855000e-01 1.103897e+03 
1.867000e-01 1.091633e+03 
1.879200e-01 1.079372e+03 
1.890900e-01 1.067813e+03 
1.902800e-01 1.056273e+03 
1.915200e-01 1.044445e+03 
1.926900e-01 1.033512e+03 
1.939000e-01 1.022534e+03 
1.951700e-01 1.011199e+03 
1.963100e-01 1.001253e+03 
1.975100e-01 9.911232e+02 
1.987800e-01 9.805727e+02 
2.000100e-01 9.705983e+02 
2.012500e-01 9.608862e+02 
2.023400e-01 9.524741e+02 
2.036100e-01 9.428618e+02 
2.048900e-01 9.334991e+02 
2.060400e-01 9.252128e+02 
2.072200e-01 9.168423e+02 
2.084200e-01 9.085863e+02 
2.096900e-01 8.999783e+02 
2.109200e-01 8.917660e+02 
2.121100e-01 8.839895e+02 
2.132700e-01 8.765169e+02 
2.145200e-01 8.685784e+02 
2.157200e-01 8.610725e+02 
2.168800e-01 8.539190e+02 
2.180700e-01 8.466800e+02 
2.193400e-01 8.390505e+02 
2.206000e-01 8.315663e+02 
2.217500e-01 8.248290e+02 
2.229500e-01 8.178921e+02 
2.241400e-01 8.110577e+02 
2.253500e-01 8.042006e+02 
2.264900e-01 7.978248e+02 
2.277100e-01 7.910683e+02 
2.289900e-01 7.840523e+02 
2.301500e-01 7.777793e+02 
2.313600e-01 7.713205e+02 
2.325600e-01 7.649681e+02 
2.337700e-01 7.586464e+02 
2.350000e-01 7.523047e+02 
2.362000e-01 7.461934e+02 
2.374100e-01 7.401047e+02 
2.386500e-01 7.339462e+02 
2.399100e-01 7.277711e+02 
2.410400e-01 7.223088e+02 
2.422500e-01 7.165323e+02 
2.435000e-01 7.106412e+02 
2.447300e-01 7.049238e+02 
2.458700e-01 6.997090e+02 
2.470600e-01 6.943306e+02 
2.483300e-01 6.886626e+02 
2.495600e-01 6.832540e+02 
2.507600e-01 6.780574e+02 
2.519600e-01 6.729234e+02 
2.532200e-01 6.675990e+02 
2.543700e-01 6.628162e+02 
2.555500e-01 6.579776e+02 
2.568000e-01 6.529133e+02 
2.580100e-01 6.480702e+02 
2.592400e-01 6.432259e+02 
2.604100e-01 6.386806e+02 
2.616100e-01 6.340720e+02 
2.628400e-01 6.294033e+02 
2.640600e-01 6.248435e+02 
2.652200e-01 6.205637e+02 
2.664300e-01 6.161494e+02 
2.676500e-01 6.117496e+02 
2.688400e-01 6.075164e+02 
2.700700e-01 6.031965e+02 
2.712400e-01 5.991330e+02 
2.724800e-01 5.948745e+02 
2.736700e-01 5.908407e+02 
2.748800e-01 5.867918e+02 
2.761000e-01 5.827546e+02 
2.773200e-01 5.787621e+02 
2.785400e-01 5.748159e+02 
2.797000e-01 5.711086e+02 
2.808900e-01 5.673455e+02 
2.821400e-01 5.634357e+02 
2.833900e-01 5.595694e+02 
2.845500e-01 5.560211e+02 
2.857800e-01 5.522983e+02 
2.870300e-01 5.485561e+02 
2.882100e-01 5.450610e+02 
2.893900e-01 5.416032e+02 
2.906300e-01 5.380084e+02 
2.918900e-01 5.343950e+02 
2.930500e-01 5.311030e+02 
2.942500e-01 5.277315e+02 
2.954200e-01 5.244766e+02 
2.966500e-01 5.210896e+02 
2.978900e-01 5.177107e+02 
2.990400e-01 5.146086e+02 
3.002700e-01 5.113224e+02 
3.015100e-01 5.080430e+02 
3.026800e-01 5.049798e+02 
3.038500e-01 5.019463e+02 
3.050300e-01 4.989165e+02 
3.062600e-01 4.957883e+02 
3.075000e-01 4.926665e+02 
3.087000e-01 4.896756e+02 
3.099100e-01 4.866893e+02 
3.111200e-01 4.837332e+02 
3.123100e-01 4.808559e+02 
3.135300e-01 4.779346e+02 
3.147300e-01 4.750890e+02 
3.159900e-01 4.721305e+02 
3.171800e-01 4.693652e+02 
3.183700e-01 4.666269e+02 
3.196300e-01 4.637556e+02 
3.208400e-01 4.610250e+02 
3.220300e-01 4.583648e+02 
3.232000e-01 4.557772e+02 
3.244300e-01 4.530839e+02 
3.256700e-01 4.503946e+02 
3.269200e-01 4.477096e+02 
3.280800e-01 4.452410e+02 
3.292500e-01 4.427800e+02 
3.304800e-01 4.402186e+02 
3.317100e-01 4.376810e+02 
3.328900e-01 4.352688e+02 
3.340700e-01 4.328780e+02 
3.353600e-01 4.302965e+02 
3.365300e-01 4.279796e+02 
3.377100e-01 4.256634e+02 
3.389200e-01 4.233094e+02 
3.401600e-01 4.209188e+02 
3.413700e-01 4.186154e+02 
3.425300e-01 4.164322e+02 
3.437700e-01 4.141189e+02 
3.449800e-01 4.118816e+02 
3.461800e-01 4.096823e+02 
3.473600e-01 4.075423e+02 
3.485800e-01 4.053586e+02 
3.498100e-01 4.031764e+02 
3.510200e-01 4.010485e+02 
3.522000e-01 3.989909e+02 
3.533900e-01 3.969333e+02 
3.546400e-01 3.948045e+02 
3.558400e-01 3.927792e+02 
3.570600e-01 3.907376e+02 
3.582700e-01 3.887299e+02 
3.595000e-01 3.867065e+02 
3.607100e-01 3.847407e+02 
3.618900e-01 3.828457e+02 
3.631200e-01 3.808869e+02 
3.643200e-01 3.789917e+02 
3.655500e-01 3.770654e+02 
3.667300e-01 3.752325e+02 
3.679500e-01 3.733684e+02 
3.691900e-01 3.714896e+02 
3.703600e-01 3.697312e+02 
3.715700e-01 3.679272e+02 
3.727700e-01 3.661526e+02 
3.739900e-01 3.643682e+02 
3.752000e-01 3.626220e+02 
3.763900e-01 3.609183e+02 
3.775800e-01 3.592281e+02 
3.788200e-01 3.574809e+02 
3.800300e-01 3.557896e+02 
3.812100e-01 3.541603e+02 
3.824200e-01 3.525072e+02 
3.836100e-01 3.508942e+02 
3.848600e-01 3.492132e+02 
3.860400e-01 3.476388e+02 
3.872400e-01 3.460499e+02 
3.884600e-01 3.444562e+02 
3.896500e-01 3.429169e+02 
3.908700e-01 3.413509e+02 
3.920600e-01 3.398352e+02 
3.933100e-01 3.382553e+02 
3.945300e-01 3.367252e+02 
3.957200e-01 3.352535e+02 
3.969300e-01 3.337709e+02 
3.981700e-01 3.322632e+02 
3.993500e-01 3.308392e+02 
4.094840e-01 3.190610e+02 
4.272360e-01 3.003032e+02 
4.454600e-01 2.830933e+02 
4.630560e-01 2.681279e+02 
4.804610e-01 2.546873e+02 
4.980690e-01 2.422793e+02 
5.159230e-01 2.307631e+02 
5.317440e-01 2.213563e+02 
5.489640e-01 2.118810e+02 
5.671990e-01 2.026321e+02 
5.838690e-01 1.948133e+02 
6.018840e-01 1.869820e+02 
6.202330e-01 1.796098e+02 
6.379250e-01 1.730141e+02 
6.545410e-01 1.672540e+02 
6.714560e-01 1.617664e+02 
6.892080e-01 1.563901e+02 
7.066010e-01 1.514713e+02 
7.240540e-01 1.468412e+02 
7.420450e-01 1.423749e+02 
7.593780e-01 1.383339e+02 
7.764720e-01 1.345747e+02 
7.942840e-01 1.308804e+02 
8.116170e-01 1.274879e+02 
8.288310e-01 1.242988e+02 
8.462240e-01 1.212427e+02 
8.631980e-01 1.184068e+02 
8.810700e-01 1.155663e+02 
8.989410e-01 1.128633e+02 
9.166330e-01 1.103130e+02 
9.345640e-01 1.078473e+02 
9.515980e-01 1.056053e+02 
9.688720e-01 1.034244e+02 
9.865640e-01 1.012825e+02 
1.031870e+00 9.617172e+01 
1.063490e+00 9.288776e+01 
1.097920e+00 8.954781e+01 
1.134370e+00 8.624280e+01 
1.167730e+00 8.340871e+01 
1.203830e+00 8.051789e+01 
1.240470e+00 7.776121e+01 
1.275790e+00 7.525000e+01 
1.309140e+00 7.300768e+01 
1.342970e+00 7.083568e+01 
1.378420e+00 6.867698e+01 
1.413200e+00 6.665957e+01 
1.448110e+00 6.472766e+01 
1.484090e+00 6.283064e+01 
1.518820e+00 6.108058e+01 
1.552880e+00 5.943587e+01 
1.588630e+00 5.778237e+01 
1.623230e+00 5.625030e+01 
1.657720e+00 5.478396e+01 
1.692450e+00 5.336745e+01 
1.726400e+00 5.203294e+01 
1.762200e+00 5.067863e+01 
1.797880e+00 4.938221e+01 
1.833270e+00 4.814514e+01 
1.869070e+00 4.693935e+01 
1.903200e+00 4.583181e+01 
1.937740e+00 4.475000e+01 
1.973190e+00 4.367801e+01 
2.007440e+00 4.267837e+01 
2.042160e+00 4.169866e+01 
2.077900e+00 4.072348e+01 
2.112390e+00 3.981465e+01 
2.146220e+00 3.894993e+01 
2.181600e+00 3.807485e+01 
2.216930e+00 3.722904e+01 
2.250760e+00 3.644449e+01 
2.286500e+00 3.564139e+01 
2.321770e+00 3.487361e+01 
2.355950e+00 3.415224e+01 
2.391280e+00 3.342706e+01 
2.426240e+00 3.273115e+01 
2.460670e+00 3.206647e+01 
2.495640e+00 3.141158e+01 
2.531080e+00 3.076536e+01 
2.566220e+00 3.014294e+01 
2.600830e+00 2.954763e+01 
2.635080e+00 2.897531e+01 
2.670340e+00 2.840092e+01 
2.705970e+00 2.783700e+01 
2.740040e+00 2.731275e+01 
2.774520e+00 2.679529e+01 
2.809730e+00 2.628065e+01 
2.844390e+00 2.578796e+01 
2.879960e+00 2.529557e+01 
2.914860e+00 2.482461e+01 
2.949410e+00 2.437077e+01 
2.984440e+00 2.392174e+01 
3.019760e+00 2.348047e+01 
3.054730e+00 2.305509e+01 
3.089030e+00 2.264719e+01 
3.124060e+00 2.224131e+01 
3.159560e+00 2.184017e+01 
3.194710e+00 2.145249e+01 
3.229010e+00 2.108387e+01 
3.263320e+00 2.072267e+01 
3.297930e+00 2.036737e+01 
3.332830e+00 2.001728e+01 
3.368040e+00 1.967246e+01 
3.403300e+00 1.933555e+01 
3.438450e+00 1.900708e+01 
3.473060e+00 1.869166e+01 
3.508440e+00 1.837572e+01 
3.543110e+00 1.807376e+01 
3.577470e+00 1.778076e+01 
3.613040e+00 1.748458e+01 
3.648120e+00 1.719862e+01 
3.682910e+00 1.692154e+01 
3.718050e+00 1.664765e+01 
3.753320e+00 1.637897e+01 
3.787980e+00 1.612061e+01 
3.822290e+00 1.587042e+01 
3.857020e+00 1.562241e+01 
3.891920e+00 1.537858e+01 
3.926650e+00 1.514080e+01 
3.961970e+00 1.490433e+01 
3.997360e+00 1.467235e+01 
4.031670e+00 1.445237e+01 
4.066330e+00 1.423443e+01 
4.101420e+00 1.401866e+01 
4.136200e+00 1.380873e+01 
4.170810e+00 1.360438e+01 
4.206250e+00 1.339920e+01 
4.241580e+00 1.319904e+01 
4.276300e+00 1.300620e+01 
4.310970e+00 1.281751e+01 
4.346120e+00 1.263008e+01 
4.380600e+00 1.244979e+01 
4.414730e+00 1.227498e+01 
4.450350e+00 1.209592e+01 
4.485320e+00 1.192378e+01 
4.519810e+00 1.175718e+01 
4.555430e+00 1.158849e+01 
4.590870e+00 1.142401e+01 
4.625480e+00 1.126642e+01 
4.659910e+00 1.111272e+01 
4.695230e+00 1.095799e+01 
4.729960e+00 1.080881e+01 
4.764450e+00 1.066342e+01 
4.799530e+00 1.051821e+01 
4.834910e+00 1.037461e+01 
4.869700e+00 1.023601e+01 
4.904370e+00 1.010049e+01 
4.939450e+00 9.965931e+00 
4.973940e+00 9.836050e+00 
5.008430e+00 9.708562e+00 
5.043810e+00 9.580108e+00 
5.078840e+00 9.455230e+00 
5.113500e+00 9.333929e+00 
5.148890e+00 9.212291e+00 
5.184210e+00 9.093114e+00 
5.219060e+00 8.977649e+00 
5.253660e+00 8.865055e+00 
5.288570e+00 8.753460e+00 
5.323420e+00 8.644017e+00 
5.358440e+00 8.535967e+00 
5.393590e+00 8.429417e+00 
5.428310e+00 8.326030e+00 
5.462800e+00 8.225100e+00 
5.497640e+00 8.124882e+00 
5.532670e+00 8.025882e+00 
5.567280e+00 7.929737e+00 
5.602000e+00 7.834901e+00 
5.637270e+00 7.740234e+00 
5.672410e+00 7.647514e+00 
5.707020e+00 7.557702e+00 
5.742040e+00 7.468425e+00 
5.777430e+00 7.379715e+00 
5.812210e+00 7.293962e+00 
5.846820e+00 7.210046e+00 
5.881610e+00 7.127056e+00 
5.916510e+00 7.045135e+00 
5.951600e+00 6.964163e+00 
5.986560e+00 6.884808e+00 
6.021830e+00 6.806019e+00 
6.056490e+00 6.729896e+00 
6.091160e+00 6.655003e+00 
6.125830e+00 6.581264e+00 
6.161090e+00 6.507470e+00 
6.195760e+00 6.436114e+00 
6.230420e+00 6.365859e+00 
6.265690e+00 6.295460e+00 
6.300950e+00 6.226289e+00 
6.335620e+00 6.159298e+00 
6.370880e+00 6.092187e+00 
6.405550e+00 6.027288e+00 
6.440220e+00 5.963386e+00 
6.475480e+00 5.899354e+00 
6.510150e+00 5.837359e+00 
6.544810e+00 5.776377e+00 
6.580080e+00 5.715221e+00 
6.614750e+00 5.655975e+00 
6.649410e+00 5.597735e+00 
6.684080e+00 5.540332e+00 
6.719340e+00 5.482783e+00 
6.754010e+00 5.427046e+00 
6.788680e+00 5.372200e+00 
6.823940e+00 5.317203e+00 
6.859800e+00 5.262064e+00 
6.894470e+00 5.209606e+00 
6.929140e+00 5.157904e+00 
6.963800e+00 5.106922e+00 
6.999070e+00 5.055763e+00 
7.033730e+00 5.006314e+00 
7.068400e+00 4.957515e+00 
7.103660e+00 4.908556e+00 
7.138330e+00 4.861115e+00 
7.173600e+00 4.813606e+00 
7.208260e+00 4.767540e+00 
7.243530e+00 4.721283e+00 
7.277600e+00 4.677257e+00 
7.312860e+00 4.632351e+00 
7.348120e+00 4.588036e+00 
7.382790e+00 4.545030e+00 
7.417460e+00 4.502687e+00 
7.452720e+00 4.460236e+00 
7.487390e+00 4.419030e+00 
7.522650e+00 4.377657e+00 
7.557320e+00 4.337595e+00 
7.591990e+00 4.298072e+00 
7.627250e+00 4.258383e+00 
7.662510e+00 4.219195e+00 
7.697180e+00 4.181252e+00 
7.731850e+00 4.143818e+00 
7.766510e+00 4.106853e+00 
7.801180e+00 4.070329e+00 
7.836440e+00 4.033726e+00 
7.871110e+00 3.998229e+00 
7.906380e+00 3.962557e+00 
7.941040e+00 3.927926e+00 
7.976310e+00 3.893164e+00 
8.011570e+00 3.858897e+00 
8.046240e+00 3.825606e+00 
8.080900e+00 3.792717e+00 
8.115570e+00 3.760235e+00 
8.150830e+00 3.727704e+00 
8.185500e+00 3.696093e+00 
8.220770e+00 3.664310e+00 
8.255430e+00 3.633442e+00 
8.290100e+00 3.603034e+00 
8.324770e+00 3.572987e+00 
8.359430e+00 3.543292e+00 
8.394700e+00 3.513420e+00 
8.429960e+00 3.483966e+00 
8.464630e+00 3.455399e+00 
8.499890e+00 3.426676e+00 
8.534560e+00 3.398751e+00 
8.569200e+00 3.371161e+00 
