# Parameters:
# omega_b = 0.022697, omega_m = 0.134331, n_s = 0.977559, h = 57.362205, w = -1.000000, sigma_8 = 0.714173
# z = 1.300000
#
# k[1/Mpc] # P(k):
8.694000e-04 4.465569e+03 
2.077466e-03 9.606223e+03 
3.285532e-03 1.361631e+04 
4.493598e-03 1.668115e+04 
5.701664e-03 1.894312e+04 
6.909730e-03 2.052900e+04 
8.117797e-03 2.158340e+04 
9.325863e-03 2.218221e+04 
1.053393e-02 2.240395e+04 
1.174199e-02 2.232205e+04 
1.295006e-02 2.198206e+04 
1.415813e-02 2.144485e+04 
1.536619e-02 2.076493e+04 
1.657426e-02 1.998255e+04 
1.778233e-02 1.915047e+04 
1.899039e-02 1.833028e+04 
2.019846e-02 1.750713e+04 
2.140652e-02 1.667691e+04 
2.261459e-02 1.586228e+04 
2.382266e-02 1.508743e+04 
2.503072e-02 1.436453e+04 
2.623879e-02 1.369739e+04 
2.744685e-02 1.308742e+04 
2.865492e-02 1.253544e+04 
2.986299e-02 1.203864e+04 
3.100100e-02 1.161956e+04 
3.220400e-02 1.122376e+04 
3.288100e-02 1.102161e+04 
3.424300e-02 1.065335e+04 
3.555100e-02 1.034072e+04 
3.686000e-02 1.006213e+04 
3.795000e-02 9.850678e+03 
3.929100e-02 9.611263e+03 
4.039800e-02 9.425200e+03 
4.164000e-02 9.224649e+03 
4.294400e-02 9.015874e+03 
4.415000e-02 8.824463e+03 
4.542900e-02 8.615046e+03 
4.660900e-02 8.419358e+03 
4.782300e-02 8.206026e+03 
4.892900e-02 8.007428e+03 
5.031200e-02 7.750544e+03 
5.155900e-02 7.510547e+03 
5.238100e-02 7.349800e+03 
5.378200e-02 7.073752e+03 
5.513400e-02 6.806943e+03 
5.627600e-02 6.584984e+03 
5.735300e-02 6.381853e+03 
5.870100e-02 6.139529e+03 
5.988700e-02 5.939818e+03 
6.113500e-02 5.743593e+03 
6.225900e-02 5.578874e+03 
6.340100e-02 5.421755e+03 
6.480200e-02 5.240465e+03 
6.601100e-02 5.093221e+03 
6.725500e-02 4.949544e+03 
6.829100e-02 4.836612e+03 
6.958600e-02 4.703362e+03 
7.071100e-02 4.595937e+03 
7.192300e-02 4.488770e+03 
7.307400e-02 4.395095e+03 
7.412300e-02 4.316269e+03 
7.550400e-02 4.222027e+03 
7.663100e-02 4.151324e+03 
7.791200e-02 4.078104e+03 
7.912700e-02 4.013796e+03 
8.027600e-02 3.956162e+03 
8.138400e-02 3.902661e+03 
8.272200e-02 3.839792e+03 
8.406100e-02 3.777603e+03 
8.534100e-02 3.717176e+03 
8.653800e-02 3.658905e+03 
8.759800e-02 3.606182e+03 
8.900300e-02 3.534009e+03 
9.009000e-02 3.475849e+03 
9.113300e-02 3.417745e+03 
9.239600e-02 3.346198e+03 
9.358000e-02 3.277295e+03 
9.496100e-02 3.194588e+03 
9.608400e-02 3.127147e+03 
9.727500e-02 3.056024e+03 
9.852600e-02 2.980658e+03 
9.973800e-02 2.909364e+03 
1.009000e-01 2.842630e+03 
1.020900e-01 2.776359e+03 
1.034000e-01 2.706328e+03 
1.046000e-01 2.644876e+03 
1.057200e-01 2.591052e+03 
1.069100e-01 2.536318e+03 
1.082500e-01 2.479130e+03 
1.093900e-01 2.433801e+03 
1.105400e-01 2.390387e+03 
1.116900e-01 2.350882e+03 
1.129600e-01 2.309384e+03 
1.142000e-01 2.272400e+03 
1.153300e-01 2.240456e+03 
1.166400e-01 2.205767e+03 
1.177800e-01 2.177351e+03 
1.190000e-01 2.148149e+03 
1.201200e-01 2.122501e+03 
1.213400e-01 2.095317e+03 
1.227100e-01 2.065477e+03 
1.238900e-01 2.040260e+03 
1.250700e-01 2.015036e+03 
1.263200e-01 1.988570e+03 
1.275500e-01 1.962311e+03 
1.287500e-01 1.936735e+03 
1.299900e-01 1.910041e+03 
1.311300e-01 1.885456e+03 
1.323500e-01 1.858832e+03 
1.335900e-01 1.831806e+03 
1.347100e-01 1.807157e+03 
1.359800e-01 1.779404e+03 
1.372100e-01 1.752297e+03 
1.384300e-01 1.725753e+03 
1.395700e-01 1.700850e+03 
1.407700e-01 1.675152e+03 
1.420300e-01 1.648237e+03 
1.432800e-01 1.622152e+03 
1.444500e-01 1.598094e+03 
1.456300e-01 1.574348e+03 
1.468900e-01 1.549753e+03 
1.480500e-01 1.527660e+03 
1.491700e-01 1.506985e+03 
1.503800e-01 1.485392e+03 
1.516400e-01 1.463529e+03 
1.528200e-01 1.444101e+03 
1.540200e-01 1.424738e+03 
1.551900e-01 1.406876e+03 
1.564300e-01 1.388474e+03 
1.576600e-01 1.370911e+03 
1.588700e-01 1.354362e+03 
1.600900e-01 1.338022e+03 
1.612700e-01 1.323010e+03 
1.625400e-01 1.307158e+03 
1.637600e-01 1.292371e+03 
1.649500e-01 1.278299e+03 
1.662200e-01 1.263555e+03 
1.674000e-01 1.250085e+03 
1.685000e-01 1.237741e+03 
1.697500e-01 1.223835e+03 
1.710300e-01 1.209737e+03 
1.722200e-01 1.196866e+03 
1.734400e-01 1.183544e+03 
1.746400e-01 1.170655e+03 
1.758700e-01 1.157552e+03 
1.770900e-01 1.144534e+03 
1.782700e-01 1.132159e+03 
1.794600e-01 1.119710e+03 
1.807000e-01 1.106841e+03 
1.819100e-01 1.094500e+03 
1.830100e-01 1.083317e+03 
1.842200e-01 1.071188e+03 
1.855000e-01 1.058579e+03 
1.867000e-01 1.046925e+03 
1.879200e-01 1.035274e+03 
1.890900e-01 1.024294e+03 
1.902800e-01 1.013368e+03 
1.915200e-01 1.002169e+03 
1.926900e-01 9.918129e+02 
1.939000e-01 9.814009e+02 
1.951700e-01 9.706511e+02 
1.963100e-01 9.612046e+02 
1.975100e-01 9.515469e+02 
1.987800e-01 9.414884e+02 
2.000100e-01 9.319592e+02 
2.012500e-01 9.226351e+02 
2.023400e-01 9.145589e+02 
2.036100e-01 9.053170e+02 
2.048900e-01 8.962624e+02 
2.060400e-01 8.882490e+02 
2.072200e-01 8.801502e+02 
2.084200e-01 8.721114e+02 
2.096900e-01 8.637304e+02 
2.109200e-01 8.557350e+02 
2.121100e-01 8.481183e+02 
2.132700e-01 8.407975e+02 
2.145200e-01 8.330207e+02 
2.157200e-01 8.256336e+02 
2.168800e-01 8.185777e+02 
2.180700e-01 8.114383e+02 
2.193400e-01 8.038923e+02 
2.206000e-01 7.964503e+02 
2.217500e-01 7.897518e+02 
2.229500e-01 7.828558e+02 
2.241400e-01 7.759866e+02 
2.253500e-01 7.690939e+02 
2.264900e-01 7.626861e+02 
2.277100e-01 7.558509e+02 
2.289900e-01 7.487039e+02 
2.301500e-01 7.423154e+02 
2.313600e-01 7.357384e+02 
2.325600e-01 7.291683e+02 
2.337700e-01 7.226321e+02 
2.350000e-01 7.160775e+02 
2.362000e-01 7.097176e+02 
2.374100e-01 7.033300e+02 
2.386500e-01 6.968717e+02 
2.399100e-01 6.903987e+02 
2.410400e-01 6.846120e+02 
2.422500e-01 6.784870e+02 
2.435000e-01 6.722434e+02 
2.447300e-01 6.661787e+02 
2.458700e-01 6.606175e+02 
2.470600e-01 6.548844e+02 
2.483300e-01 6.488457e+02 
2.495600e-01 6.430868e+02 
2.507600e-01 6.375572e+02 
2.519600e-01 6.320968e+02 
2.532200e-01 6.264366e+02 
2.543700e-01 6.213779e+02 
2.555500e-01 6.162785e+02 
2.568000e-01 6.109435e+02 
2.580100e-01 6.058437e+02 
2.592400e-01 6.007919e+02 
2.604100e-01 5.960742e+02 
2.616100e-01 5.912926e+02 
2.628400e-01 5.864505e+02 
2.640600e-01 5.817804e+02 
2.652200e-01 5.774212e+02 
2.664300e-01 5.729264e+02 
2.676500e-01 5.684477e+02 
2.688400e-01 5.641865e+02 
2.700700e-01 5.598684e+02 
2.712400e-01 5.558076e+02 
2.724800e-01 5.515528e+02 
2.736700e-01 5.475550e+02 
2.748800e-01 5.435751e+02 
2.761000e-01 5.396075e+02 
2.773200e-01 5.356846e+02 
2.785400e-01 5.318227e+02 
2.797000e-01 5.282262e+02 
2.808900e-01 5.245760e+02 
2.821400e-01 5.207841e+02 
2.833900e-01 5.170361e+02 
2.845500e-01 5.136249e+02 
2.857800e-01 5.100463e+02 
2.870300e-01 5.064494e+02 
2.882100e-01 5.030904e+02 
2.893900e-01 4.997790e+02 
2.906300e-01 4.963428e+02 
2.918900e-01 4.928892e+02 
2.930500e-01 4.897431e+02 
2.942500e-01 4.865234e+02 
2.954200e-01 4.834219e+02 
2.966500e-01 4.801949e+02 
2.978900e-01 4.769759e+02 
2.990400e-01 4.740208e+02 
3.002700e-01 4.708931e+02 
3.015100e-01 4.677734e+02 
3.026800e-01 4.648595e+02 
3.038500e-01 4.619741e+02 
3.050300e-01 4.590926e+02 
3.062600e-01 4.561181e+02 
3.075000e-01 4.531501e+02 
3.087000e-01 4.503067e+02 
3.099100e-01 4.474680e+02 
3.111200e-01 4.446580e+02 
3.123100e-01 4.419227e+02 
3.135300e-01 4.391459e+02 
3.147300e-01 4.364413e+02 
3.159900e-01 4.336295e+02 
3.171800e-01 4.310012e+02 
3.183700e-01 4.283986e+02 
3.196300e-01 4.256698e+02 
3.208400e-01 4.230749e+02 
3.220300e-01 4.205471e+02 
3.232000e-01 4.180881e+02 
3.244300e-01 4.155286e+02 
3.256700e-01 4.129732e+02 
3.269200e-01 4.104221e+02 
3.280800e-01 4.080768e+02 
3.292500e-01 4.057386e+02 
3.304800e-01 4.033050e+02 
3.317100e-01 4.008944e+02 
3.328900e-01 3.986030e+02 
3.340700e-01 3.963322e+02 
3.353600e-01 3.938809e+02 
3.365300e-01 3.916811e+02 
3.377100e-01 3.894822e+02 
3.389200e-01 3.872475e+02 
3.401600e-01 3.849783e+02 
3.413700e-01 3.827926e+02 
3.425300e-01 3.807215e+02 
3.437700e-01 3.785271e+02 
3.449800e-01 3.764050e+02 
3.461800e-01 3.743190e+02 
3.473600e-01 3.722899e+02 
3.485800e-01 3.702206e+02 
3.498100e-01 3.681528e+02 
3.510200e-01 3.661365e+02 
3.522000e-01 3.641871e+02 
3.533900e-01 3.622378e+02 
3.546400e-01 3.602230e+02 
3.558400e-01 3.583065e+02 
3.570600e-01 3.563747e+02 
3.582700e-01 3.544751e+02 
3.595000e-01 3.525607e+02 
3.607100e-01 3.507022e+02 
3.618900e-01 3.489117e+02 
3.631200e-01 3.470609e+02 
3.643200e-01 3.452705e+02 
3.655500e-01 3.434507e+02 
3.667300e-01 3.417193e+02 
3.679500e-01 3.399611e+02 
3.691900e-01 3.381890e+02 
3.703600e-01 3.365306e+02 
3.715700e-01 3.348294e+02 
3.727700e-01 3.331559e+02 
3.739900e-01 3.314741e+02 
3.752000e-01 3.298300e+02 
3.763900e-01 3.282260e+02 
3.775800e-01 3.266347e+02 
3.788200e-01 3.249898e+02 
3.800300e-01 3.233978e+02 
3.812100e-01 3.218656e+02 
3.824200e-01 3.203122e+02 
3.836100e-01 3.187965e+02 
3.848600e-01 3.172170e+02 
3.860400e-01 3.157377e+02 
3.872400e-01 3.142449e+02 
3.884600e-01 3.127493e+02 
3.896500e-01 3.113056e+02 
3.908700e-01 3.098369e+02 
3.920600e-01 3.084154e+02 
3.933100e-01 3.069337e+02 
3.945300e-01 3.054990e+02 
3.957200e-01 3.041208e+02 
3.969300e-01 3.027330e+02 
3.981700e-01 3.013217e+02 
3.993500e-01 2.999888e+02 
4.094840e-01 2.889762e+02 
4.272360e-01 2.714938e+02 
4.454600e-01 2.554974e+02 
4.630560e-01 2.416142e+02 
4.804610e-01 2.291610e+02 
4.980690e-01 2.176726e+02 
5.159230e-01 2.070160e+02 
5.317440e-01 1.983144e+02 
5.489640e-01 1.895533e+02 
5.671990e-01 1.810054e+02 
5.838690e-01 1.737830e+02 
6.018840e-01 1.665538e+02 
6.202330e-01 1.597543e+02 
6.379250e-01 1.536754e+02 
6.545410e-01 1.483718e+02 
6.714560e-01 1.433234e+02 
6.892080e-01 1.383815e+02 
7.066010e-01 1.338646e+02 
7.240540e-01 1.296170e+02 
7.420450e-01 1.255237e+02 
7.593780e-01 1.218239e+02 
7.764720e-01 1.183852e+02 
7.942840e-01 1.150090e+02 
8.116170e-01 1.119114e+02 
8.288310e-01 1.090029e+02 
8.462240e-01 1.062177e+02 
8.631980e-01 1.036359e+02 
8.810700e-01 1.010523e+02 
8.989410e-01 9.859636e+01 
9.166330e-01 9.628115e+01 
9.345640e-01 9.404457e+01 
9.515980e-01 9.201321e+01 
9.688720e-01 9.003930e+01 
9.865640e-01 8.810245e+01 
1.031870e+00 8.348905e+01 
1.063490e+00 8.053129e+01 
1.097920e+00 7.752812e+01 
1.134370e+00 7.456257e+01 
1.167730e+00 7.202427e+01 
1.203830e+00 6.944096e+01 
1.240470e+00 6.698183e+01 
1.275790e+00 6.474633e+01 
1.309140e+00 6.275310e+01 
1.342970e+00 6.082694e+01 
1.378420e+00 5.891520e+01 
1.413200e+00 5.713186e+01 
1.448110e+00 5.542683e+01 
1.484090e+00 5.375533e+01 
1.518820e+00 5.221583e+01 
1.552880e+00 5.077127e+01 
1.588630e+00 4.932102e+01 
1.623230e+00 4.797921e+01 
1.657720e+00 4.669675e+01 
1.692450e+00 4.545929e+01 
1.726400e+00 4.429517e+01 
1.762200e+00 4.311536e+01 
1.797880e+00 4.198732e+01 
1.833270e+00 4.091208e+01 
1.869070e+00 3.986544e+01 
1.903200e+00 3.890506e+01 
1.937740e+00 3.796785e+01 
1.973190e+00 3.704015e+01 
2.007440e+00 3.617583e+01 
2.042160e+00 3.532965e+01 
2.077900e+00 3.448824e+01 
2.112390e+00 3.370456e+01 
2.146220e+00 3.295975e+01 
2.181600e+00 3.220660e+01 
2.216930e+00 3.147928e+01 
2.250760e+00 3.080511e+01 
2.286500e+00 3.011549e+01 
2.321770e+00 2.945672e+01 
2.355950e+00 2.883809e+01 
2.391280e+00 2.821687e+01 
2.426240e+00 2.762105e+01 
2.460670e+00 2.705224e+01 
2.495640e+00 2.649212e+01 
2.531080e+00 2.593991e+01 
2.566220e+00 2.540836e+01 
2.600830e+00 2.490020e+01 
2.635080e+00 2.441188e+01 
2.670340e+00 2.392208e+01 
2.705970e+00 2.344147e+01 
2.740040e+00 2.299489e+01 
2.774520e+00 2.255435e+01 
2.809730e+00 2.211644e+01 
2.844390e+00 2.169734e+01 
2.879960e+00 2.127861e+01 
2.914860e+00 2.087838e+01 
2.949410e+00 2.049282e+01 
2.984440e+00 2.011150e+01 
3.019760e+00 1.973697e+01 
3.054730e+00 1.937607e+01 
3.089030e+00 1.903008e+01 
3.124060e+00 1.868592e+01 
3.159560e+00 1.834591e+01 
3.194710e+00 1.801743e+01 
3.229010e+00 1.770514e+01 
3.263320e+00 1.739927e+01 
3.297930e+00 1.709847e+01 
3.332830e+00 1.680223e+01 
3.368040e+00 1.651048e+01 
3.403300e+00 1.622547e+01 
3.438450e+00 1.594771e+01 
3.473060e+00 1.568101e+01 
3.508440e+00 1.541401e+01 
3.543110e+00 1.515884e+01 
3.577470e+00 1.491127e+01 
3.613040e+00 1.466107e+01 
3.648120e+00 1.441962e+01 
3.682910e+00 1.418568e+01 
3.718050e+00 1.395446e+01 
3.753320e+00 1.372769e+01 
3.787980e+00 1.350968e+01 
3.822290e+00 1.329860e+01 
3.857020e+00 1.308939e+01 
3.891920e+00 1.288373e+01 
3.926650e+00 1.268322e+01 
3.961970e+00 1.248382e+01 
3.997360e+00 1.228823e+01 
4.031670e+00 1.210277e+01 
4.066330e+00 1.191911e+01 
4.101420e+00 1.173729e+01 
4.136200e+00 1.156039e+01 
4.170810e+00 1.138821e+01 
4.206250e+00 1.121537e+01 
4.241580e+00 1.104678e+01 
4.276300e+00 1.088437e+01 
4.310970e+00 1.072546e+01 
4.346120e+00 1.056763e+01 
4.380600e+00 1.041584e+01 
4.414730e+00 1.026868e+01 
4.450350e+00 1.011794e+01 
4.485320e+00 9.973041e+00 
4.519810e+00 9.832811e+00 
4.555430e+00 9.690842e+00 
4.590870e+00 9.552424e+00 
4.625480e+00 9.419827e+00 
4.659910e+00 9.290519e+00 
4.695230e+00 9.160334e+00 
4.729960e+00 9.034826e+00 
4.764450e+00 8.912513e+00 
4.799530e+00 8.790370e+00 
4.834910e+00 8.669581e+00 
4.869700e+00 8.553014e+00 
4.904370e+00 8.439038e+00 
4.939450e+00 8.325879e+00 
4.973940e+00 8.216667e+00 
5.008430e+00 8.109473e+00 
5.043810e+00 8.001476e+00 
5.078840e+00 7.896494e+00 
5.113500e+00 7.794523e+00 
5.148890e+00 7.692270e+00 
5.184210e+00 7.592092e+00 
5.219060e+00 7.495041e+00 
5.253660e+00 7.400413e+00 
5.288570e+00 7.306631e+00 
5.323420e+00 7.214666e+00 
5.358440e+00 7.123880e+00 
5.393590e+00 7.034360e+00 
5.428310e+00 6.947500e+00 
5.462800e+00 6.862707e+00 
5.497640e+00 6.778517e+00 
5.532670e+00 6.695352e+00 
5.567280e+00 6.614589e+00 
5.602000e+00 6.534929e+00 
5.637270e+00 6.455426e+00 
5.672410e+00 6.377564e+00 
5.707020e+00 6.302149e+00 
5.742040e+00 6.227186e+00 
5.777430e+00 6.152704e+00 
5.812210e+00 6.080707e+00 
5.846820e+00 6.010266e+00 
5.881610e+00 5.940607e+00 
5.916510e+00 5.871849e+00 
5.951600e+00 5.803892e+00 
5.986560e+00 5.737297e+00 
6.021830e+00 5.671180e+00 
6.056490e+00 5.607305e+00 
6.091160e+00 5.544468e+00 
6.125830e+00 5.482600e+00 
6.161090e+00 5.420694e+00 
6.195760e+00 5.360845e+00 
6.230420e+00 5.301922e+00 
6.265690e+00 5.242881e+00 
6.300950e+00 5.184880e+00 
6.335620e+00 5.128709e+00 
6.370880e+00 5.072440e+00 
6.405550e+00 5.018037e+00 
6.440220e+00 4.964475e+00 
6.475480e+00 4.910807e+00 
6.510150e+00 4.858852e+00 
6.544810e+00 4.807750e+00 
6.580080e+00 4.756507e+00 
6.614750e+00 4.706865e+00 
6.649410e+00 4.658081e+00 
6.684080e+00 4.610002e+00 
6.719340e+00 4.561803e+00 
6.754010e+00 4.515126e+00 
6.788680e+00 4.469203e+00 
6.823940e+00 4.423156e+00 
6.859800e+00 4.376991e+00 
6.894470e+00 4.333084e+00 
6.929140e+00 4.289816e+00 
6.963800e+00 4.247152e+00 
6.999070e+00 4.204342e+00 
7.033730e+00 4.162977e+00 
7.068400e+00 4.122158e+00 
7.103660e+00 4.081206e+00 
7.138330e+00 4.041530e+00 
7.173600e+00 4.001809e+00 
7.208260e+00 3.963295e+00 
7.243530e+00 3.924624e+00 
7.277600e+00 3.887827e+00 
7.312860e+00 3.850303e+00 
7.348120e+00 3.813274e+00 
7.382790e+00 3.777339e+00 
7.417460e+00 3.741966e+00 
7.452720e+00 3.706507e+00 
7.487390e+00 3.672090e+00 
7.522650e+00 3.637534e+00 
7.557320e+00 3.604088e+00 
7.591990e+00 3.571098e+00 
7.627250e+00 3.537971e+00 
7.662510e+00 3.505263e+00 
7.697180e+00 3.473604e+00 
7.731850e+00 3.442374e+00 
7.766510e+00 3.411537e+00 
7.801180e+00 3.381069e+00 
7.836440e+00 3.350547e+00 
7.871110e+00 3.320955e+00 
7.906380e+00 3.291217e+00 
7.941040e+00 3.262348e+00 
7.976310e+00 3.233378e+00 
8.011570e+00 3.204828e+00 
8.046240e+00 3.177092e+00 
8.080900e+00 3.149691e+00 
8.115570e+00 3.122633e+00 
8.150830e+00 3.095548e+00 
8.185500e+00 3.069229e+00 
8.220770e+00 3.042768e+00 
8.255430e+00 3.017068e+00 
8.290100e+00 2.991765e+00 
8.324770e+00 2.966764e+00 
8.359430e+00 2.942056e+00 
8.394700e+00 2.917201e+00 
8.429960e+00 2.892702e+00 
8.464630e+00 2.868951e+00 
8.499890e+00 2.845068e+00 
8.534560e+00 2.821851e+00 
8.569200e+00 2.798911e+00 
