# Parameters:
# omega_b = 0.021957, omega_m = 0.129646, n_s = 0.991732, h = 73.661417, w = -1.000000, sigma_8 = 0.802362
# z = 1.300000
#
# k[1/Mpc] # P(k):
8.694000e-04 4.945699e+03 
2.077466e-03 1.071634e+04 
3.285532e-03 1.522357e+04 
4.493598e-03 1.865530e+04 
5.701664e-03 2.116722e+04 
6.909730e-03 2.290965e+04 
8.117797e-03 2.405220e+04 
9.325863e-03 2.468336e+04 
1.053393e-02 2.489212e+04 
1.174199e-02 2.476029e+04 
1.295006e-02 2.434063e+04 
1.415813e-02 2.370353e+04 
1.536619e-02 2.290886e+04 
1.657426e-02 2.199719e+04 
1.778233e-02 2.100196e+04 
1.899039e-02 1.997409e+04 
2.019846e-02 1.894900e+04 
2.140652e-02 1.795645e+04 
2.261459e-02 1.700851e+04 
2.382266e-02 1.611945e+04 
2.503072e-02 1.529915e+04 
2.623879e-02 1.455043e+04 
2.744685e-02 1.387460e+04 
2.865492e-02 1.327029e+04 
2.986299e-02 1.273300e+04 
3.100100e-02 1.228604e+04 
3.220400e-02 1.186964e+04 
3.288100e-02 1.165984e+04 
3.424300e-02 1.128229e+04 
3.555100e-02 1.096655e+04 
3.686000e-02 1.068898e+04 
3.795000e-02 1.048018e+04 
3.929100e-02 1.024494e+04 
4.039800e-02 1.006155e+04 
4.164000e-02 9.862228e+03 
4.294400e-02 9.650414e+03 
4.415000e-02 9.452792e+03 
4.542900e-02 9.230730e+03 
4.660900e-02 9.019470e+03 
4.782300e-02 8.783707e+03 
4.892900e-02 8.561345e+03 
5.031200e-02 8.270019e+03 
5.155900e-02 7.995245e+03 
5.238100e-02 7.810302e+03 
5.378200e-02 7.491244e+03 
5.513400e-02 7.180818e+03 
5.627600e-02 6.920356e+03 
5.735300e-02 6.679167e+03 
5.870100e-02 6.386227e+03 
5.988700e-02 6.139663e+03 
6.113500e-02 5.893113e+03 
6.225900e-02 5.684495e+03 
6.340100e-02 5.486961e+03 
6.480200e-02 5.264213e+03 
6.601100e-02 5.091880e+03 
6.725500e-02 4.932884e+03 
6.829100e-02 4.815721e+03 
6.958600e-02 4.684274e+03 
7.071100e-02 4.584480e+03 
7.192300e-02 4.489518e+03 
7.307400e-02 4.409931e+03 
7.412300e-02 4.345072e+03 
7.550400e-02 4.269840e+03 
7.663100e-02 4.214236e+03 
7.791200e-02 4.156812e+03 
7.912700e-02 4.105288e+03 
8.027600e-02 4.057604e+03 
8.138400e-02 4.011669e+03 
8.272200e-02 3.954937e+03 
8.406100e-02 3.895618e+03 
8.534100e-02 3.834296e+03 
8.653800e-02 3.772385e+03 
8.759800e-02 3.714884e+03 
8.900300e-02 3.634168e+03 
9.009000e-02 3.567827e+03 
9.113300e-02 3.500828e+03 
9.239600e-02 3.417939e+03 
9.358000e-02 3.337877e+03 
9.496100e-02 3.241939e+03 
9.608400e-02 3.164055e+03 
9.727500e-02 3.082271e+03 
9.852600e-02 2.996679e+03 
9.973800e-02 2.916457e+03 
1.009000e-01 2.841989e+03 
1.020900e-01 2.769735e+03 
1.034000e-01 2.694376e+03 
1.046000e-01 2.629275e+03 
1.057200e-01 2.574149e+03 
1.069100e-01 2.518836e+03 
1.082500e-01 2.463226e+03 
1.093900e-01 2.420561e+03 
1.105400e-01 2.380537e+03 
1.116900e-01 2.346021e+03 
1.129600e-01 2.310381e+03 
1.142000e-01 2.280121e+03 
1.153300e-01 2.254365e+03 
1.166400e-01 2.227019e+03 
1.177800e-01 2.204669e+03 
1.190000e-01 2.181730e+03 
1.201200e-01 2.160788e+03 
1.213400e-01 2.138451e+03 
1.227100e-01 2.111914e+03 
1.238900e-01 2.088984e+03 
1.250700e-01 2.064392e+03 
1.263200e-01 2.037931e+03 
1.275500e-01 2.010238e+03 
1.287500e-01 1.982631e+03 
1.299900e-01 1.952842e+03 
1.311300e-01 1.925045e+03 
1.323500e-01 1.894416e+03 
1.335900e-01 1.863246e+03 
1.347100e-01 1.834710e+03 
1.359800e-01 1.802719e+03 
1.372100e-01 1.771715e+03 
1.384300e-01 1.741591e+03 
1.395700e-01 1.713833e+03 
1.407700e-01 1.685300e+03 
1.420300e-01 1.656312e+03 
1.432800e-01 1.628237e+03 
1.444500e-01 1.603312e+03 
1.456300e-01 1.578718e+03 
1.468900e-01 1.553937e+03 
1.480500e-01 1.531882e+03 
1.491700e-01 1.511558e+03 
1.503800e-01 1.490736e+03 
1.516400e-01 1.469750e+03 
1.528200e-01 1.451553e+03 
1.540200e-01 1.433409e+03 
1.551900e-01 1.416948e+03 
1.564300e-01 1.400054e+03 
1.576600e-01 1.383984e+03 
1.588700e-01 1.368910e+03 
1.600900e-01 1.354017e+03 
1.612700e-01 1.340246e+03 
1.625400e-01 1.325701e+03 
1.637600e-01 1.311952e+03 
1.649500e-01 1.298760e+03 
1.662200e-01 1.284873e+03 
1.674000e-01 1.271841e+03 
1.685000e-01 1.259896e+03 
1.697500e-01 1.246211e+03 
1.710300e-01 1.232110e+03 
1.722200e-01 1.219236e+03 
1.734400e-01 1.205521e+03 
1.746400e-01 1.192236e+03 
1.758700e-01 1.178644e+03 
1.770900e-01 1.164963e+03 
1.782700e-01 1.151961e+03 
1.794600e-01 1.138807e+03 
1.807000e-01 1.125163e+03 
1.819100e-01 1.112082e+03 
1.830100e-01 1.100241e+03 
1.842200e-01 1.087406e+03 
1.855000e-01 1.074069e+03 
1.867000e-01 1.061862e+03 
1.879200e-01 1.049660e+03 
1.890900e-01 1.038192e+03 
1.902800e-01 1.026928e+03 
1.915200e-01 1.015384e+03 
1.926900e-01 1.004753e+03 
1.939000e-01 9.942070e+02 
1.951700e-01 9.833193e+02 
1.963100e-01 9.737924e+02 
1.975100e-01 9.641618e+02 
1.987800e-01 9.541308e+02 
2.000100e-01 9.446563e+02 
2.012500e-01 9.354533e+02 
2.023400e-01 9.274813e+02 
2.036100e-01 9.183642e+02 
2.048900e-01 9.094570e+02 
2.060400e-01 9.015731e+02 
2.072200e-01 8.936027e+02 
2.084200e-01 8.856716e+02 
2.096900e-01 8.774019e+02 
2.109200e-01 8.695120e+02 
2.121100e-01 8.619497e+02 
2.132700e-01 8.546783e+02 
2.145200e-01 8.469534e+02 
2.157200e-01 8.395870e+02 
2.168800e-01 8.325376e+02 
2.180700e-01 8.254043e+02 
2.193400e-01 8.178590e+02 
2.206000e-01 8.104074e+02 
2.217500e-01 8.036999e+02 
2.229500e-01 7.967942e+02 
2.241400e-01 7.899417e+02 
2.253500e-01 7.830658e+02 
2.264900e-01 7.766733e+02 
2.277100e-01 7.698878e+02 
2.289900e-01 7.628293e+02 
2.301500e-01 7.565191e+02 
2.313600e-01 7.500227e+02 
2.325600e-01 7.436299e+02 
2.337700e-01 7.372687e+02 
2.350000e-01 7.308883e+02 
2.362000e-01 7.247449e+02 
2.374100e-01 7.186300e+02 
2.386500e-01 7.124459e+02 
2.399100e-01 7.062458e+02 
2.410400e-01 7.007783e+02 
2.422500e-01 6.949989e+02 
2.435000e-01 6.891056e+02 
2.447300e-01 6.833909e+02 
2.458700e-01 6.781966e+02 
2.470600e-01 6.728397e+02 
2.483300e-01 6.671949e+02 
2.495600e-01 6.618192e+02 
2.507600e-01 6.566684e+02 
2.519600e-01 6.515801e+02 
2.532200e-01 6.463035e+02 
2.543700e-01 6.415766e+02 
2.555500e-01 6.368035e+02 
2.568000e-01 6.318081e+02 
2.580100e-01 6.270311e+02 
2.592400e-01 6.222663e+02 
2.604100e-01 6.178014e+02 
2.616100e-01 6.132746e+02 
2.628400e-01 6.086890e+02 
2.640600e-01 6.042203e+02 
2.652200e-01 6.000301e+02 
2.664300e-01 5.957084e+02 
2.676500e-01 5.914010e+02 
2.688400e-01 5.872621e+02 
2.700700e-01 5.830419e+02 
2.712400e-01 5.790725e+02 
2.724800e-01 5.749126e+02 
2.736700e-01 5.709745e+02 
2.748800e-01 5.670241e+02 
2.761000e-01 5.630852e+02 
2.773200e-01 5.591901e+02 
2.785400e-01 5.553408e+02 
2.797000e-01 5.517256e+02 
2.808900e-01 5.480561e+02 
2.821400e-01 5.442437e+02 
2.833900e-01 5.404737e+02 
2.845500e-01 5.370141e+02 
2.857800e-01 5.333845e+02 
2.870300e-01 5.297360e+02 
2.882100e-01 5.263285e+02 
2.893900e-01 5.229576e+02 
2.906300e-01 5.194535e+02 
2.918900e-01 5.159313e+02 
2.930500e-01 5.127224e+02 
2.942500e-01 5.094365e+02 
2.954200e-01 5.062652e+02 
2.966500e-01 5.029654e+02 
2.978900e-01 4.996735e+02 
2.990400e-01 4.966514e+02 
3.002700e-01 4.934517e+02 
3.015100e-01 4.902596e+02 
3.026800e-01 4.872779e+02 
3.038500e-01 4.843252e+02 
3.050300e-01 4.813763e+02 
3.062600e-01 4.783352e+02 
3.075000e-01 4.753004e+02 
3.087000e-01 4.723929e+02 
3.099100e-01 4.694899e+02 
3.111200e-01 4.666178e+02 
3.123100e-01 4.638248e+02 
3.135300e-01 4.609891e+02 
3.147300e-01 4.582270e+02 
3.159900e-01 4.553553e+02 
3.171800e-01 4.526737e+02 
3.183700e-01 4.500201e+02 
3.196300e-01 4.472376e+02 
3.208400e-01 4.445914e+02 
3.220300e-01 4.420135e+02 
3.232000e-01 4.395084e+02 
3.244300e-01 4.369020e+02 
3.256700e-01 4.342995e+02 
3.269200e-01 4.317012e+02 
3.280800e-01 4.293123e+02 
3.292500e-01 4.269328e+02 
3.304800e-01 4.244568e+02 
3.317100e-01 4.220039e+02 
3.328900e-01 4.196722e+02 
3.340700e-01 4.173613e+02 
3.353600e-01 4.148671e+02 
3.365300e-01 4.126292e+02 
3.377100e-01 4.103919e+02 
3.389200e-01 4.081180e+02 
3.401600e-01 4.058089e+02 
3.413700e-01 4.035842e+02 
3.425300e-01 4.014757e+02 
3.437700e-01 3.992415e+02 
3.449800e-01 3.970808e+02 
3.461800e-01 3.949567e+02 
3.473600e-01 3.928897e+02 
3.485800e-01 3.907799e+02 
3.498100e-01 3.886716e+02 
3.510200e-01 3.866157e+02 
3.522000e-01 3.846278e+02 
3.533900e-01 3.826399e+02 
3.546400e-01 3.805812e+02 
3.558400e-01 3.786225e+02 
3.570600e-01 3.766481e+02 
3.582700e-01 3.747066e+02 
3.595000e-01 3.727497e+02 
3.607100e-01 3.708472e+02 
3.618900e-01 3.690120e+02 
3.631200e-01 3.671150e+02 
3.643200e-01 3.652797e+02 
3.655500e-01 3.634142e+02 
3.667300e-01 3.616392e+02 
3.679500e-01 3.598306e+02 
3.691900e-01 3.580077e+02 
3.703600e-01 3.563017e+02 
3.715700e-01 3.545516e+02 
3.727700e-01 3.528299e+02 
3.739900e-01 3.510973e+02 
3.752000e-01 3.493996e+02 
3.763900e-01 3.477432e+02 
3.775800e-01 3.460998e+02 
3.788200e-01 3.444011e+02 
3.800300e-01 3.427568e+02 
3.812100e-01 3.411706e+02 
3.824200e-01 3.395597e+02 
3.836100e-01 3.379879e+02 
3.848600e-01 3.363499e+02 
3.860400e-01 3.348158e+02 
3.872400e-01 3.332676e+02 
3.884600e-01 3.317121e+02 
3.896500e-01 3.302087e+02 
3.908700e-01 3.286793e+02 
3.920600e-01 3.271990e+02 
3.933100e-01 3.256560e+02 
3.945300e-01 3.241618e+02 
3.957200e-01 3.227215e+02 
3.969300e-01 3.212697e+02 
3.981700e-01 3.197934e+02 
3.993500e-01 3.183990e+02 
4.094840e-01 3.068567e+02 
4.272360e-01 2.884113e+02 
4.454600e-01 2.714637e+02 
4.630560e-01 2.567301e+02 
4.804610e-01 2.435205e+02 
4.980690e-01 2.313590e+02 
5.159230e-01 2.201083e+02 
5.317440e-01 2.109457e+02 
5.489640e-01 2.017448e+02 
5.671990e-01 1.927902e+02 
5.838690e-01 1.852360e+02 
6.018840e-01 1.776838e+02 
6.202330e-01 1.705857e+02 
6.379250e-01 1.642407e+02 
6.545410e-01 1.587040e+02 
6.714560e-01 1.534312e+02 
6.892080e-01 1.482664e+02 
7.066010e-01 1.435415e+02 
7.240540e-01 1.390944e+02 
7.420450e-01 1.348041e+02 
7.593780e-01 1.309222e+02 
7.764720e-01 1.273110e+02 
7.942840e-01 1.237621e+02 
8.116170e-01 1.205032e+02 
8.288310e-01 1.174403e+02 
8.462240e-01 1.145055e+02 
8.631980e-01 1.117830e+02 
8.810700e-01 1.090570e+02 
8.989410e-01 1.064642e+02 
9.166330e-01 1.040190e+02 
9.345640e-01 1.016563e+02 
9.515980e-01 9.950932e+01 
9.688720e-01 9.742240e+01 
9.865640e-01 9.537441e+01 
1.031870e+00 9.049427e+01 
1.063490e+00 8.736485e+01 
1.097920e+00 8.418749e+01 
1.134370e+00 8.104899e+01 
1.167730e+00 7.836259e+01 
1.203830e+00 7.562806e+01 
1.240470e+00 7.302447e+01 
1.275790e+00 7.065758e+01 
1.309140e+00 6.854677e+01 
1.342970e+00 6.650614e+01 
1.378420e+00 6.448025e+01 
1.413200e+00 6.258982e+01 
1.448110e+00 6.078189e+01 
1.484090e+00 5.900837e+01 
1.518820e+00 5.737416e+01 
1.552880e+00 5.584005e+01 
1.588630e+00 5.429902e+01 
1.623230e+00 5.287225e+01 
1.657720e+00 5.150760e+01 
1.692450e+00 5.019029e+01 
1.726400e+00 4.895009e+01 
1.762200e+00 4.769214e+01 
1.797880e+00 4.648854e+01 
1.833270e+00 4.534052e+01 
1.869070e+00 4.422192e+01 
1.903200e+00 4.319476e+01 
1.937740e+00 4.219178e+01 
1.973190e+00 4.119807e+01 
2.007440e+00 4.027159e+01 
2.042160e+00 3.936370e+01 
2.077900e+00 3.846009e+01 
2.112390e+00 3.761806e+01 
2.146220e+00 3.681690e+01 
2.181600e+00 3.600617e+01 
2.216930e+00 3.522251e+01 
2.250760e+00 3.449555e+01 
2.286500e+00 3.375135e+01 
2.321770e+00 3.303980e+01 
2.355950e+00 3.237121e+01 
2.391280e+00 3.169895e+01 
2.426240e+00 3.105371e+01 
2.460670e+00 3.043730e+01 
2.495640e+00 2.982983e+01 
2.531080e+00 2.923027e+01 
2.566220e+00 2.865264e+01 
2.600830e+00 2.810002e+01 
2.635080e+00 2.756862e+01 
2.670340e+00 2.703513e+01 
2.705970e+00 2.651117e+01 
2.740040e+00 2.602392e+01 
2.774520e+00 2.554282e+01 
2.809730e+00 2.506417e+01 
2.844390e+00 2.460580e+01 
2.879960e+00 2.414752e+01 
2.914860e+00 2.370899e+01 
2.949410e+00 2.328625e+01 
2.984440e+00 2.286784e+01 
3.019760e+00 2.245647e+01 
3.054730e+00 2.205979e+01 
3.089030e+00 2.167918e+01 
3.124060e+00 2.130033e+01 
3.159560e+00 2.092574e+01 
3.194710e+00 2.056353e+01 
3.229010e+00 2.021901e+01 
3.263320e+00 1.988122e+01 
3.297930e+00 1.954883e+01 
3.332830e+00 1.922117e+01 
3.368040e+00 1.889826e+01 
3.403300e+00 1.858261e+01 
3.438450e+00 1.827471e+01 
3.473060e+00 1.797896e+01 
3.508440e+00 1.768249e+01 
3.543110e+00 1.739906e+01 
3.577470e+00 1.712383e+01 
3.613040e+00 1.684554e+01 
3.648120e+00 1.657668e+01 
3.682910e+00 1.631607e+01 
3.718050e+00 1.605830e+01 
3.753320e+00 1.580534e+01 
3.787980e+00 1.556195e+01 
3.822290e+00 1.532615e+01 
3.857020e+00 1.509225e+01 
3.891920e+00 1.486221e+01 
3.926650e+00 1.463774e+01 
3.961970e+00 1.441443e+01 
3.997360e+00 1.419520e+01 
4.031670e+00 1.398725e+01 
4.066330e+00 1.378108e+01 
4.101420e+00 1.357692e+01 
4.136200e+00 1.337811e+01 
4.170810e+00 1.318455e+01 
4.206250e+00 1.299004e+01 
4.241580e+00 1.280024e+01 
4.276300e+00 1.261727e+01 
4.310970e+00 1.243816e+01 
4.346120e+00 1.226016e+01 
4.380600e+00 1.208884e+01 
4.414730e+00 1.192269e+01 
4.450350e+00 1.175234e+01 
4.485320e+00 1.158855e+01 
4.519810e+00 1.142991e+01 
4.555430e+00 1.126923e+01 
4.590870e+00 1.111249e+01 
4.625480e+00 1.096222e+01 
4.659910e+00 1.081564e+01 
4.695230e+00 1.066794e+01 
4.729960e+00 1.052551e+01 
4.764450e+00 1.038663e+01 
4.799530e+00 1.024784e+01 
4.834910e+00 1.011057e+01 
4.869700e+00 9.977969e+00 
4.904370e+00 9.848275e+00 
4.939450e+00 9.719455e+00 
4.973940e+00 9.595027e+00 
5.008430e+00 9.472874e+00 
5.043810e+00 9.349718e+00 
5.078840e+00 9.229938e+00 
5.113500e+00 9.113573e+00 
5.148890e+00 8.996781e+00 
5.184210e+00 8.882334e+00 
5.219060e+00 8.771414e+00 
5.253660e+00 8.663173e+00 
5.288570e+00 8.555881e+00 
5.323420e+00 8.450605e+00 
5.358440e+00 8.346612e+00 
5.393590e+00 8.244050e+00 
5.428310e+00 8.144470e+00 
5.462800e+00 8.047217e+00 
5.497640e+00 7.950640e+00 
5.532670e+00 7.855171e+00 
5.567280e+00 7.762427e+00 
5.602000e+00 7.670935e+00 
5.637270e+00 7.579541e+00 
5.672410e+00 7.490004e+00 
5.707020e+00 7.403267e+00 
5.742040e+00 7.316980e+00 
5.777430e+00 7.231223e+00 
5.812210e+00 7.148314e+00 
5.846820e+00 7.067127e+00 
5.881610e+00 6.986816e+00 
5.916510e+00 6.907532e+00 
5.951600e+00 6.829116e+00 
5.986560e+00 6.752240e+00 
6.021830e+00 6.675906e+00 
6.056490e+00 6.602120e+00 
6.091160e+00 6.529497e+00 
6.125830e+00 6.457987e+00 
6.161090e+00 6.386402e+00 
6.195760e+00 6.317141e+00 
6.230420e+00 6.248944e+00 
6.265690e+00 6.180600e+00 
6.300950e+00 6.113397e+00 
6.335620e+00 6.048308e+00 
6.370880e+00 5.983097e+00 
6.405550e+00 5.920000e+00 
6.440220e+00 5.857854e+00 
6.475480e+00 5.795579e+00 
6.510150e+00 5.735268e+00 
6.544810e+00 5.675908e+00 
6.580080e+00 5.616376e+00 
6.614750e+00 5.558699e+00 
6.649410e+00 5.501968e+00 
6.684080e+00 5.446043e+00 
6.719340e+00 5.389972e+00 
6.754010e+00 5.335654e+00 
6.788680e+00 5.282176e+00 
6.823940e+00 5.228548e+00 
6.859800e+00 5.174778e+00 
6.894470e+00 5.123597e+00 
6.929140e+00 5.073143e+00 
6.963800e+00 5.023389e+00 
6.999070e+00 4.973458e+00 
7.033730e+00 4.925165e+00 
7.068400e+00 4.877505e+00 
7.103660e+00 4.829685e+00 
7.138330e+00 4.783338e+00 
7.173600e+00 4.736903e+00 
7.208260e+00 4.691877e+00 
7.243530e+00 4.646662e+00 
7.277600e+00 4.603614e+00 
7.312860e+00 4.559693e+00 
7.348120e+00 4.516349e+00 
7.382790e+00 4.474282e+00 
7.417460e+00 4.432847e+00 
7.452720e+00 4.391298e+00 
7.487390e+00 4.350965e+00 
7.522650e+00 4.310468e+00 
7.557320e+00 4.271238e+00 
7.591990e+00 4.232529e+00 
7.627250e+00 4.193655e+00 
7.662510e+00 4.155272e+00 
7.697180e+00 4.118093e+00 
7.731850e+00 4.081406e+00 
7.766510e+00 4.045178e+00 
7.801180e+00 4.009382e+00 
7.836440e+00 3.973496e+00 
7.871110e+00 3.938687e+00 
7.906380e+00 3.903706e+00 
7.941040e+00 3.869744e+00 
7.976310e+00 3.835647e+00 
8.011570e+00 3.802026e+00 
8.046240e+00 3.769362e+00 
8.080900e+00 3.737092e+00 
8.115570e+00 3.705218e+00 
8.150830e+00 3.673282e+00 
8.185500e+00 3.642249e+00 
8.220770e+00 3.611048e+00 
8.255430e+00 3.580743e+00 
8.290100e+00 3.550879e+00 
8.324770e+00 3.521368e+00 
8.359430e+00 3.492201e+00 
8.394700e+00 3.462861e+00 
8.429960e+00 3.433925e+00 
8.464630e+00 3.405855e+00 
8.499890e+00 3.377631e+00 
8.534560e+00 3.350191e+00 
8.569200e+00 3.323080e+00 
