# Parameters:
# omega_b = 0.023138, omega_m = 0.154173, n_s = 0.960236, h = 58.779528, w = -1.000000, sigma_8 = 0.863780
# z = 1.300000
#
# k[1/Mpc] # P(k):
8.694000e-04 4.441107e+03 
2.077466e-03 9.519120e+03 
3.285532e-03 1.357470e+04 
4.493598e-03 1.679347e+04 
5.701664e-03 1.926942e+04 
6.909730e-03 2.110783e+04 
8.117797e-03 2.243741e+04 
9.325863e-03 2.332299e+04 
1.053393e-02 2.383125e+04 
1.174199e-02 2.402493e+04 
1.295006e-02 2.394357e+04 
1.415813e-02 2.364337e+04 
1.536619e-02 2.317396e+04 
1.657426e-02 2.257003e+04 
1.778233e-02 2.186866e+04 
1.899039e-02 2.112481e+04 
2.019846e-02 2.035154e+04 
2.140652e-02 1.956100e+04 
2.261459e-02 1.876774e+04 
2.382266e-02 1.799210e+04 
2.503072e-02 1.724864e+04 
2.623879e-02 1.654404e+04 
2.744685e-02 1.588037e+04 
2.865492e-02 1.526427e+04 
2.986299e-02 1.469611e+04 
3.100100e-02 1.420459e+04 
3.220400e-02 1.373019e+04 
3.288100e-02 1.348355e+04 
3.424300e-02 1.302828e+04 
3.555100e-02 1.263729e+04 
3.686000e-02 1.228709e+04 
3.795000e-02 1.202203e+04 
3.929100e-02 1.172593e+04 
4.039800e-02 1.150071e+04 
4.164000e-02 1.126349e+04 
4.294400e-02 1.102622e+04 
4.415000e-02 1.081448e+04 
4.542900e-02 1.059058e+04 
4.660900e-02 1.038527e+04 
4.782300e-02 1.016581e+04 
4.892900e-02 9.962718e+03 
5.031200e-02 9.700501e+03 
5.155900e-02 9.454187e+03 
5.238100e-02 9.287792e+03 
5.378200e-02 8.998579e+03 
5.513400e-02 8.712756e+03 
5.627600e-02 8.468766e+03 
5.735300e-02 8.239371e+03 
5.870100e-02 7.956149e+03 
5.988700e-02 7.713776e+03 
6.113500e-02 7.466797e+03 
6.225900e-02 7.252380e+03 
6.340100e-02 7.042816e+03 
6.480200e-02 6.797440e+03 
6.601100e-02 6.596018e+03 
6.725500e-02 6.399169e+03 
6.829100e-02 6.244215e+03 
6.958600e-02 6.061563e+03 
7.071100e-02 5.914058e+03 
7.192300e-02 5.766579e+03 
7.307400e-02 5.637393e+03 
7.412300e-02 5.528577e+03 
7.550400e-02 5.398658e+03 
7.663100e-02 5.301651e+03 
7.791200e-02 5.202545e+03 
7.912700e-02 5.117479e+03 
8.027600e-02 5.043128e+03 
8.138400e-02 4.975909e+03 
8.272200e-02 4.899567e+03 
8.406100e-02 4.826809e+03 
8.534100e-02 4.758939e+03 
8.653800e-02 4.695307e+03 
8.759800e-02 4.638541e+03 
8.900300e-02 4.561718e+03 
9.009000e-02 4.500112e+03 
9.113300e-02 4.438346e+03 
9.239600e-02 4.361881e+03 
9.358000e-02 4.287483e+03 
9.496100e-02 4.196566e+03 
9.608400e-02 4.121288e+03 
9.727500e-02 4.040933e+03 
9.852600e-02 3.953202e+03 
9.973800e-02 3.868860e+03 
1.009000e-01 3.788790e+03 
1.020900e-01 3.706443e+03 
1.034000e-01 3.617996e+03 
1.046000e-01 3.538900e+03 
1.057200e-01 3.467170e+03 
1.069100e-01 3.393344e+03 
1.082500e-01 3.313705e+03 
1.093900e-01 3.249170e+03 
1.105400e-01 3.186535e+03 
1.116900e-01 3.127924e+03 
1.129600e-01 3.065944e+03 
1.142000e-01 3.009847e+03 
1.153300e-01 2.961437e+03 
1.166400e-01 2.908909e+03 
1.177800e-01 2.866640e+03 
1.190000e-01 2.823571e+03 
1.201200e-01 2.787520e+03 
1.213400e-01 2.749635e+03 
1.227100e-01 2.711247e+03 
1.238900e-01 2.679478e+03 
1.250700e-01 2.649855e+03 
1.263200e-01 2.619493e+03 
1.275500e-01 2.590950e+03 
1.287500e-01 2.563674e+03 
1.299900e-01 2.536021e+03 
1.311300e-01 2.510623e+03 
1.323500e-01 2.483218e+03 
1.335900e-01 2.455039e+03 
1.347100e-01 2.428873e+03 
1.359800e-01 2.398854e+03 
1.372100e-01 2.368453e+03 
1.384300e-01 2.338102e+03 
1.395700e-01 2.308292e+03 
1.407700e-01 2.277326e+03 
1.420300e-01 2.243015e+03 
1.432800e-01 2.209744e+03 
1.444500e-01 2.177411e+03 
1.456300e-01 2.145494e+03 
1.468900e-01 2.111553e+03 
1.480500e-01 2.080805e+03 
1.491700e-01 2.051781e+03 
1.503800e-01 2.021148e+03 
1.516400e-01 1.990128e+03 
1.528200e-01 1.962505e+03 
1.540200e-01 1.934986e+03 
1.551900e-01 1.909871e+03 
1.564300e-01 1.884071e+03 
1.576600e-01 1.859718e+03 
1.588700e-01 1.837099e+03 
1.600900e-01 1.814806e+03 
1.612700e-01 1.795005e+03 
1.625400e-01 1.774094e+03 
1.637600e-01 1.754995e+03 
1.649500e-01 1.737060e+03 
1.662200e-01 1.718342e+03 
1.674000e-01 1.701676e+03 
1.685000e-01 1.686398e+03 
1.697500e-01 1.669325e+03 
1.710300e-01 1.652151e+03 
1.722200e-01 1.636467e+03 
1.734400e-01 1.620296e+03 
1.746400e-01 1.604647e+03 
1.758700e-01 1.588692e+03 
1.770900e-01 1.572752e+03 
1.782700e-01 1.557593e+03 
1.794600e-01 1.542204e+03 
1.807000e-01 1.526200e+03 
1.819100e-01 1.510846e+03 
1.830100e-01 1.496700e+03 
1.842200e-01 1.481315e+03 
1.855000e-01 1.465301e+03 
1.867000e-01 1.450229e+03 
1.879200e-01 1.435155e+03 
1.890900e-01 1.420907e+03 
1.902800e-01 1.406525e+03 
1.915200e-01 1.391780e+03 
1.926900e-01 1.378100e+03 
1.939000e-01 1.364208e+03 
1.951700e-01 1.349862e+03 
1.963100e-01 1.337225e+03 
1.975100e-01 1.324229e+03 
1.987800e-01 1.310691e+03 
2.000100e-01 1.297856e+03 
2.012500e-01 1.285275e+03 
2.023400e-01 1.274377e+03 
2.036100e-01 1.261912e+03 
2.048900e-01 1.249727e+03 
2.060400e-01 1.238942e+03 
2.072200e-01 1.228046e+03 
2.084200e-01 1.217301e+03 
2.096900e-01 1.206097e+03 
2.109200e-01 1.195407e+03 
2.121100e-01 1.185314e+03 
2.132700e-01 1.175616e+03 
2.145200e-01 1.165312e+03 
2.157200e-01 1.155590e+03 
2.168800e-01 1.146333e+03 
2.180700e-01 1.136965e+03 
2.193400e-01 1.127090e+03 
2.206000e-01 1.117401e+03 
2.217500e-01 1.108678e+03 
2.229500e-01 1.099695e+03 
2.241400e-01 1.090806e+03 
2.253500e-01 1.081886e+03 
2.264900e-01 1.073591e+03 
2.277100e-01 1.064755e+03 
2.289900e-01 1.055529e+03 
2.301500e-01 1.047280e+03 
2.313600e-01 1.038785e+03 
2.325600e-01 1.030307e+03 
2.337700e-01 1.021871e+03 
2.350000e-01 1.013407e+03 
2.362000e-01 1.005190e+03 
2.374100e-01 9.969313e+02 
2.386500e-01 9.885781e+02 
2.399100e-01 9.802025e+02 
2.410400e-01 9.726944e+02 
2.422500e-01 9.647423e+02 
2.435000e-01 9.566331e+02 
2.447300e-01 9.487483e+02 
2.458700e-01 9.414959e+02 
2.470600e-01 9.340167e+02 
2.483300e-01 9.261358e+02 
2.495600e-01 9.186045e+02 
2.507600e-01 9.113531e+02 
2.519600e-01 9.041900e+02 
2.532200e-01 8.967621e+02 
2.543700e-01 8.901050e+02 
2.555500e-01 8.833810e+02 
2.568000e-01 8.763441e+02 
2.580100e-01 8.696152e+02 
2.592400e-01 8.629317e+02 
2.604100e-01 8.566813e+02 
2.616100e-01 8.503445e+02 
2.628400e-01 8.439255e+02 
2.640600e-01 8.377210e+02 
2.652200e-01 8.319233e+02 
2.664300e-01 8.259436e+02 
2.676500e-01 8.199837e+02 
2.688400e-01 8.143074e+02 
2.700700e-01 8.085509e+02 
2.712400e-01 8.031362e+02 
2.724800e-01 7.974614e+02 
2.736700e-01 7.921270e+02 
2.748800e-01 7.868146e+02 
2.761000e-01 7.815174e+02 
2.773200e-01 7.762786e+02 
2.785400e-01 7.711210e+02 
2.797000e-01 7.663188e+02 
2.808900e-01 7.614439e+02 
2.821400e-01 7.563785e+02 
2.833900e-01 7.513710e+02 
2.845500e-01 7.468181e+02 
2.857800e-01 7.420409e+02 
2.870300e-01 7.372382e+02 
2.882100e-01 7.327522e+02 
2.893900e-01 7.283324e+02 
2.906300e-01 7.237471e+02 
2.918900e-01 7.191376e+02 
2.930500e-01 7.149376e+02 
2.942500e-01 7.106392e+02 
2.954200e-01 7.065004e+02 
2.966500e-01 7.021931e+02 
2.978900e-01 6.978956e+02 
2.990400e-01 6.939496e+02 
3.002700e-01 6.897733e+02 
3.015100e-01 6.856071e+02 
3.026800e-01 6.817151e+02 
3.038500e-01 6.778603e+02 
3.050300e-01 6.740098e+02 
3.062600e-01 6.700345e+02 
3.075000e-01 6.660668e+02 
3.087000e-01 6.622650e+02 
3.099100e-01 6.584685e+02 
3.111200e-01 6.547088e+02 
3.123100e-01 6.510466e+02 
3.135300e-01 6.473281e+02 
3.147300e-01 6.437055e+02 
3.159900e-01 6.399386e+02 
3.171800e-01 6.364143e+02 
3.183700e-01 6.329221e+02 
3.196300e-01 6.292598e+02 
3.208400e-01 6.257765e+02 
3.220300e-01 6.223825e+02 
3.232000e-01 6.190770e+02 
3.244300e-01 6.156342e+02 
3.256700e-01 6.121963e+02 
3.269200e-01 6.087634e+02 
3.280800e-01 6.056068e+02 
3.292500e-01 6.024560e+02 
3.304800e-01 5.991752e+02 
3.317100e-01 5.959245e+02 
3.328900e-01 5.928341e+02 
3.340700e-01 5.897708e+02 
3.353600e-01 5.864592e+02 
3.365300e-01 5.834855e+02 
3.377100e-01 5.805123e+02 
3.389200e-01 5.774901e+02 
3.401600e-01 5.744208e+02 
3.413700e-01 5.714611e+02 
3.425300e-01 5.686540e+02 
3.437700e-01 5.656793e+02 
3.449800e-01 5.628022e+02 
3.461800e-01 5.599735e+02 
3.473600e-01 5.572202e+02 
3.485800e-01 5.544093e+02 
3.498100e-01 5.516000e+02 
3.510200e-01 5.488602e+02 
3.522000e-01 5.462108e+02 
3.533900e-01 5.435611e+02 
3.546400e-01 5.408182e+02 
3.558400e-01 5.382084e+02 
3.570600e-01 5.355774e+02 
3.582700e-01 5.329898e+02 
3.595000e-01 5.303817e+02 
3.607100e-01 5.278479e+02 
3.618900e-01 5.254055e+02 
3.631200e-01 5.228804e+02 
3.643200e-01 5.204373e+02 
3.655500e-01 5.179536e+02 
3.667300e-01 5.155903e+02 
3.679500e-01 5.131876e+02 
3.691900e-01 5.107657e+02 
3.703600e-01 5.084988e+02 
3.715700e-01 5.061729e+02 
3.727700e-01 5.038847e+02 
3.739900e-01 5.015844e+02 
3.752000e-01 4.993344e+02 
3.763900e-01 4.971391e+02 
3.775800e-01 4.949608e+02 
3.788200e-01 4.927090e+02 
3.800300e-01 4.905291e+02 
3.812100e-01 4.884301e+02 
3.824200e-01 4.863014e+02 
3.836100e-01 4.842241e+02 
3.848600e-01 4.820590e+02 
3.860400e-01 4.800310e+02 
3.872400e-01 4.779843e+02 
3.884600e-01 4.759326e+02 
3.896500e-01 4.739515e+02 
3.908700e-01 4.719358e+02 
3.920600e-01 4.699846e+02 
3.933100e-01 4.679507e+02 
3.945300e-01 4.659809e+02 
3.957200e-01 4.640886e+02 
3.969300e-01 4.621830e+02 
3.981700e-01 4.602450e+02 
3.993500e-01 4.584145e+02 
4.094840e-01 4.432703e+02 
4.272360e-01 4.191829e+02 
4.454600e-01 3.970653e+02 
4.630560e-01 3.777902e+02 
4.804610e-01 3.604183e+02 
4.980690e-01 3.443142e+02 
5.159230e-01 3.292925e+02 
5.317440e-01 3.169708e+02 
5.489640e-01 3.044988e+02 
5.671990e-01 2.922714e+02 
5.838690e-01 2.819014e+02 
6.018840e-01 2.714823e+02 
6.202330e-01 2.616406e+02 
6.379250e-01 2.528193e+02 
6.545410e-01 2.450961e+02 
6.714560e-01 2.377260e+02 
6.892080e-01 2.304954e+02 
7.066010e-01 2.238684e+02 
7.240540e-01 2.176197e+02 
7.420450e-01 2.115810e+02 
7.593780e-01 2.061049e+02 
7.764720e-01 2.010022e+02 
7.942840e-01 1.959756e+02 
8.116170e-01 1.913487e+02 
8.288310e-01 1.869846e+02 
8.462240e-01 1.827932e+02 
8.631980e-01 1.788893e+02 
8.810700e-01 1.749671e+02 
8.989410e-01 1.712192e+02 
9.166330e-01 1.676708e+02 
9.345640e-01 1.642297e+02 
9.515980e-01 1.610847e+02 
9.688720e-01 1.580121e+02 
9.865640e-01 1.549807e+02 
1.031870e+00 1.476950e+02 
1.063490e+00 1.429670e+02 
1.097920e+00 1.381201e+02 
1.134370e+00 1.332831e+02 
1.167730e+00 1.291014e+02 
1.203830e+00 1.247970e+02 
1.240470e+00 1.206647e+02 
1.275790e+00 1.168700e+02 
1.309140e+00 1.134635e+02 
1.342970e+00 1.101369e+02 
1.378420e+00 1.068160e+02 
1.413200e+00 1.036939e+02 
1.448110e+00 1.006905e+02 
1.484090e+00 9.772699e+01 
1.518820e+00 9.498161e+01 
1.552880e+00 9.239129e+01 
1.588630e+00 8.977904e+01 
1.623230e+00 8.735062e+01 
1.657720e+00 8.501878e+01 
1.692450e+00 8.276215e+01 
1.726400e+00 8.063053e+01 
1.762200e+00 7.846209e+01 
1.797880e+00 7.638234e+01 
1.833270e+00 7.439473e+01 
1.869070e+00 7.245402e+01 
1.903200e+00 7.066946e+01 
1.937740e+00 6.892484e+01 
1.973190e+00 6.719433e+01 
2.007440e+00 6.557999e+01 
2.042160e+00 6.399631e+01 
2.077900e+00 6.241861e+01 
2.112390e+00 6.094878e+01 
2.146220e+00 5.954909e+01 
2.181600e+00 5.813263e+01 
2.216930e+00 5.676336e+01 
2.250760e+00 5.549349e+01 
2.286500e+00 5.419381e+01 
2.321770e+00 5.295149e+01 
2.355950e+00 5.178517e+01 
2.391280e+00 5.061218e+01 
2.426240e+00 4.948749e+01 
2.460670e+00 4.841406e+01 
2.495640e+00 4.735705e+01 
2.531080e+00 4.631439e+01 
2.566220e+00 4.531071e+01 
2.600830e+00 4.435160e+01 
2.635080e+00 4.343050e+01 
2.670340e+00 4.250734e+01 
2.705970e+00 4.160150e+01 
2.740040e+00 4.075991e+01 
2.774520e+00 3.992996e+01 
2.809730e+00 3.910551e+01 
2.844390e+00 3.831716e+01 
2.879960e+00 3.753062e+01 
2.914860e+00 3.677888e+01 
2.949410e+00 3.605512e+01 
2.984440e+00 3.534022e+01 
3.019760e+00 3.463812e+01 
3.054730e+00 3.396182e+01 
3.089030e+00 3.331504e+01 
3.124060e+00 3.267207e+01 
3.159560e+00 3.203729e+01 
3.194710e+00 3.142484e+01 
3.229010e+00 3.084311e+01 
3.263320e+00 3.027431e+01 
3.297930e+00 2.971526e+01 
3.332830e+00 2.916503e+01 
3.368040e+00 2.862410e+01 
3.403300e+00 2.809640e+01 
3.438450e+00 2.758285e+01 
3.473060e+00 2.709014e+01 
3.508440e+00 2.659754e+01 
3.543110e+00 2.612721e+01 
3.577470e+00 2.567218e+01 
3.613040e+00 2.521258e+01 
3.648120e+00 2.476926e+01 
3.682910e+00 2.434036e+01 
3.718050e+00 2.391743e+01 
3.753320e+00 2.350303e+01 
3.787980e+00 2.310512e+01 
3.822290e+00 2.272037e+01 
3.857020e+00 2.233969e+01 
3.891920e+00 2.196590e+01 
3.926650e+00 2.160207e+01 
3.961970e+00 2.124073e+01 
3.997360e+00 2.088711e+01 
4.031670e+00 2.055206e+01 
4.066330e+00 2.022071e+01 
4.101420e+00 1.989288e+01 
4.136200e+00 1.957486e+01 
4.170810e+00 1.926547e+01 
4.206250e+00 1.895548e+01 
4.241580e+00 1.865334e+01 
4.276300e+00 1.836290e+01 
4.310970e+00 1.807914e+01 
4.346120e+00 1.779762e+01 
4.380600e+00 1.752731e+01 
4.414730e+00 1.726536e+01 
4.450350e+00 1.699785e+01 
4.485320e+00 1.674081e+01 
4.519810e+00 1.649260e+01 
4.555430e+00 1.624161e+01 
4.590870e+00 1.599714e+01 
4.625480e+00 1.576330e+01 
4.659910e+00 1.553537e+01 
4.695230e+00 1.530660e+01 
4.729960e+00 1.508623e+01 
4.764450e+00 1.487175e+01 
4.799530e+00 1.465797e+01 
4.834910e+00 1.444665e+01 
4.869700e+00 1.424319e+01 
4.904370e+00 1.404438e+01 
4.939450e+00 1.384721e+01 
4.973940e+00 1.365729e+01 
5.008430e+00 1.347095e+01 
5.043810e+00 1.328355e+01 
5.078840e+00 1.310160e+01 
5.113500e+00 1.292493e+01 
5.148890e+00 1.274831e+01 
5.184210e+00 1.257536e+01 
5.219060e+00 1.240795e+01 
5.253660e+00 1.224503e+01 
5.288570e+00 1.208361e+01 
5.323420e+00 1.192553e+01 
5.358440e+00 1.176969e+01 
5.393590e+00 1.161607e+01 
5.428310e+00 1.146733e+01 
5.462800e+00 1.132230e+01 
5.497640e+00 1.117835e+01 
5.532670e+00 1.103647e+01 
5.567280e+00 1.089881e+01 
5.602000e+00 1.076307e+01 
5.637270e+00 1.062783e+01 
5.672410e+00 1.049546e+01 
5.707020e+00 1.036728e+01 
5.742040e+00 1.024018e+01 
5.777430e+00 1.011397e+01 
5.812210e+00 9.992000e+00 
5.846820e+00 9.872862e+00 
5.881610e+00 9.755115e+00 
5.916510e+00 9.638915e+00 
5.951600e+00 9.524284e+00 
5.986560e+00 9.412059e+00 
6.021830e+00 9.300661e+00 
6.056490e+00 9.193191e+00 
6.091160e+00 9.087596e+00 
6.125830e+00 8.983651e+00 
6.161090e+00 8.879710e+00 
6.195760e+00 8.779350e+00 
6.230420e+00 8.680560e+00 
6.265690e+00 8.581597e+00 
6.300950e+00 8.484594e+00 
6.335620e+00 8.390668e+00 
6.370880e+00 8.296592e+00 
6.405550e+00 8.205741e+00 
6.440220e+00 8.116346e+00 
6.475480e+00 8.026786e+00 
6.510150e+00 7.940150e+00 
6.544810e+00 7.855073e+00 
6.580080e+00 7.769770e+00 
6.614750e+00 7.687144e+00 
6.649410e+00 7.606039e+00 
6.684080e+00 7.526134e+00 
6.719340e+00 7.446038e+00 
6.754010e+00 7.368524e+00 
6.788680e+00 7.292370e+00 
6.823940e+00 7.216016e+00 
6.859800e+00 7.139477e+00 
6.894470e+00 7.066747e+00 
6.929140e+00 6.995104e+00 
6.963800e+00 6.924467e+00 
6.999070e+00 6.853600e+00 
7.033730e+00 6.785206e+00 
7.068400e+00 6.717720e+00 
7.103660e+00 6.650020e+00 
7.138330e+00 6.584456e+00 
7.173600e+00 6.518866e+00 
7.208260e+00 6.455275e+00 
7.243530e+00 6.391430e+00 
7.277600e+00 6.330711e+00 
7.312860e+00 6.268826e+00 
7.348120e+00 6.207761e+00 
7.382790e+00 6.148506e+00 
7.417460e+00 6.090237e+00 
7.452720e+00 6.031860e+00 
7.487390e+00 5.975201e+00 
7.522650e+00 5.918319e+00 
7.557320e+00 5.863270e+00 
7.591990e+00 5.808979e+00 
7.627250e+00 5.754464e+00 
7.662510e+00 5.700643e+00 
7.697180e+00 5.648581e+00 
7.731850e+00 5.597238e+00 
7.766510e+00 5.546543e+00 
7.801180e+00 5.496457e+00 
7.836440e+00 5.446285e+00 
7.871110e+00 5.397643e+00 
7.906380e+00 5.348765e+00 
7.941040e+00 5.301318e+00 
7.976310e+00 5.253718e+00 
8.011570e+00 5.206825e+00 
8.046240e+00 5.161272e+00 
8.080900e+00 5.116272e+00 
8.115570e+00 5.071837e+00 
8.150830e+00 5.027356e+00 
8.185500e+00 4.984135e+00 
8.220770e+00 4.940684e+00 
8.255430e+00 4.898485e+00 
8.290100e+00 4.856955e+00 
8.324770e+00 4.815926e+00 
8.359430e+00 4.775380e+00 
8.394700e+00 4.734595e+00 
8.429960e+00 4.694390e+00 
8.464630e+00 4.655406e+00 
8.499890e+00 4.616210e+00 
8.534560e+00 4.578107e+00 
8.569200e+00 4.540463e+00 
