# Parameters:
# omega_b = 0.021594, omega_m = 0.151693, n_s = 0.881496, h = 80.511811, w = -1.000000, sigma_8 = 0.870079
# z = 1.300000
#
# k[1/Mpc] # P(k):
8.694000e-04 5.405655e+03 
2.077466e-03 1.082987e+04 
3.285532e-03 1.488372e+04 
4.493598e-03 1.792163e+04 
5.701664e-03 2.013679e+04 
6.909730e-03 2.168270e+04 
8.117797e-03 2.271512e+04 
9.325863e-03 2.331500e+04 
1.053393e-02 2.356005e+04 
1.174199e-02 2.351918e+04 
1.295006e-02 2.323648e+04 
1.415813e-02 2.276895e+04 
1.536619e-02 2.216264e+04 
1.657426e-02 2.144437e+04 
1.778233e-02 2.061958e+04 
1.899039e-02 1.971316e+04 
2.019846e-02 1.879063e+04 
2.140652e-02 1.790398e+04 
2.261459e-02 1.705324e+04 
2.382266e-02 1.624266e+04 
2.503072e-02 1.548098e+04 
2.623879e-02 1.477216e+04 
2.744685e-02 1.411731e+04 
2.865492e-02 1.351912e+04 
2.986299e-02 1.297560e+04 
3.100100e-02 1.251237e+04 
3.220400e-02 1.207099e+04 
3.288100e-02 1.184401e+04 
3.424300e-02 1.142849e+04 
3.555100e-02 1.107455e+04 
3.686000e-02 1.075919e+04 
3.795000e-02 1.052081e+04 
3.929100e-02 1.025366e+04 
4.039800e-02 1.004876e+04 
4.164000e-02 9.830795e+03 
4.294400e-02 9.608477e+03 
4.415000e-02 9.407207e+03 
4.542900e-02 9.190120e+03 
4.660900e-02 8.988641e+03 
4.782300e-02 8.770367e+03 
4.892900e-02 8.567218e+03 
5.031200e-02 8.303979e+03 
5.155900e-02 8.057010e+03 
5.238100e-02 7.890605e+03 
5.378200e-02 7.602061e+03 
5.513400e-02 7.317233e+03 
5.627600e-02 7.073263e+03 
5.735300e-02 6.841701e+03 
5.870100e-02 6.550983e+03 
5.988700e-02 6.297085e+03 
6.113500e-02 6.034255e+03 
6.225900e-02 5.804959e+03 
6.340100e-02 5.583258e+03 
6.480200e-02 5.330389e+03 
6.601100e-02 5.133527e+03 
6.725500e-02 4.952323e+03 
6.829100e-02 4.819259e+03 
6.958600e-02 4.670767e+03 
7.071100e-02 4.558315e+03 
7.192300e-02 4.451339e+03 
7.307400e-02 4.361579e+03 
7.412300e-02 4.288309e+03 
7.550400e-02 4.203269e+03 
7.663100e-02 4.140611e+03 
7.791200e-02 4.076687e+03 
7.912700e-02 4.020693e+03 
8.027600e-02 3.970234e+03 
8.138400e-02 3.922940e+03 
8.272200e-02 3.866469e+03 
8.406100e-02 3.809433e+03 
8.534100e-02 3.752529e+03 
8.653800e-02 3.696413e+03 
8.759800e-02 3.644909e+03 
8.900300e-02 3.573322e+03 
9.009000e-02 3.514805e+03 
9.113300e-02 3.455683e+03 
9.239600e-02 3.382350e+03 
9.358000e-02 3.311120e+03 
9.496100e-02 3.224806e+03 
9.608400e-02 3.154004e+03 
9.727500e-02 3.079029e+03 
9.852600e-02 2.998821e+03 
9.973800e-02 2.922710e+03 
1.009000e-01 2.851286e+03 
1.020900e-01 2.779973e+03 
1.034000e-01 2.704590e+03 
1.046000e-01 2.638413e+03 
1.057200e-01 2.580583e+03 
1.069100e-01 2.521921e+03 
1.082500e-01 2.461054e+03 
1.093900e-01 2.413263e+03 
1.105400e-01 2.367768e+03 
1.116900e-01 2.327196e+03 
1.129600e-01 2.284929e+03 
1.142000e-01 2.248241e+03 
1.153300e-01 2.217010e+03 
1.166400e-01 2.183821e+03 
1.177800e-01 2.157326e+03 
1.190000e-01 2.130430e+03 
1.201200e-01 2.107442e+03 
1.213400e-01 2.083193e+03 
1.227100e-01 2.057061e+03 
1.238900e-01 2.034987e+03 
1.250700e-01 2.012897e+03 
1.263200e-01 1.989588e+03 
1.275500e-01 1.966173e+03 
1.287500e-01 1.943068e+03 
1.299900e-01 1.918493e+03 
1.311300e-01 1.895460e+03 
1.323500e-01 1.869930e+03 
1.335900e-01 1.843551e+03 
1.347100e-01 1.818898e+03 
1.359800e-01 1.790772e+03 
1.372100e-01 1.762579e+03 
1.384300e-01 1.734723e+03 
1.395700e-01 1.707994e+03 
1.407700e-01 1.680370e+03 
1.420300e-01 1.650862e+03 
1.432800e-01 1.622290e+03 
1.444500e-01 1.595691e+03 
1.456300e-01 1.569464e+03 
1.468900e-01 1.542423e+03 
1.480500e-01 1.518183e+03 
1.491700e-01 1.495707e+03 
1.503800e-01 1.472493e+03 
1.516400e-01 1.449134e+03 
1.528200e-01 1.428961e+03 
1.540200e-01 1.408863e+03 
1.551900e-01 1.390981e+03 
1.564300e-01 1.372723e+03 
1.576600e-01 1.355646e+03 
1.588700e-01 1.339980e+03 
1.600900e-01 1.324540e+03 
1.612700e-01 1.310921e+03 
1.625400e-01 1.296536e+03 
1.637600e-01 1.283289e+03 
1.649500e-01 1.270781e+03 
1.662200e-01 1.257668e+03 
1.674000e-01 1.245659e+03 
1.685000e-01 1.234649e+03 
1.697500e-01 1.222084e+03 
1.710300e-01 1.209184e+03 
1.722200e-01 1.197404e+03 
1.734400e-01 1.184754e+03 
1.746400e-01 1.172495e+03 
1.758700e-01 1.159873e+03 
1.770900e-01 1.147016e+03 
1.782700e-01 1.134792e+03 
1.794600e-01 1.122263e+03 
1.807000e-01 1.109158e+03 
1.819100e-01 1.096592e+03 
1.830100e-01 1.085004e+03 
1.842200e-01 1.072405e+03 
1.855000e-01 1.059304e+03 
1.867000e-01 1.047093e+03 
1.879200e-01 1.034888e+03 
1.890900e-01 1.023391e+03 
1.902800e-01 1.011959e+03 
1.915200e-01 1.000245e+03 
1.926900e-01 9.894338e+02 
1.939000e-01 9.786301e+02 
1.951700e-01 9.674783e+02 
1.963100e-01 9.577108e+02 
1.975100e-01 9.478083e+02 
1.987800e-01 9.374961e+02 
2.000100e-01 9.277621e+02 
2.012500e-01 9.183177e+02 
2.023400e-01 9.101380e+02 
2.036100e-01 9.007975e+02 
2.048900e-01 8.917216e+02 
2.060400e-01 8.836895e+02 
2.072200e-01 8.755769e+02 
2.084200e-01 8.675833e+02 
2.096900e-01 8.592494e+02 
2.109200e-01 8.512989e+02 
2.121100e-01 8.437720e+02 
2.132700e-01 8.365396e+02 
2.145200e-01 8.288567e+02 
2.157200e-01 8.215977e+02 
2.168800e-01 8.146821e+02 
2.180700e-01 8.076841e+02 
2.193400e-01 8.003177e+02 
2.206000e-01 7.931083e+02 
2.217500e-01 7.866186e+02 
2.229500e-01 7.799368e+02 
2.241400e-01 7.733982e+02 
2.253500e-01 7.668391e+02 
2.264900e-01 7.607404e+02 
2.277100e-01 7.543103e+02 
2.289900e-01 7.476694e+02 
2.301500e-01 7.417316e+02 
2.313600e-01 7.356185e+02 
2.325600e-01 7.296854e+02 
2.337700e-01 7.237805e+02 
2.350000e-01 7.178567e+02 
2.362000e-01 7.121843e+02 
2.374100e-01 7.065757e+02 
2.386500e-01 7.009022e+02 
2.399100e-01 6.952126e+02 
2.410400e-01 6.902350e+02 
2.422500e-01 6.849772e+02 
2.435000e-01 6.796144e+02 
2.447300e-01 6.744168e+02 
2.458700e-01 6.697072e+02 
2.470600e-01 6.648491e+02 
2.483300e-01 6.597285e+02 
2.495600e-01 6.548457e+02 
2.507600e-01 6.501592e+02 
2.519600e-01 6.455285e+02 
2.532200e-01 6.407252e+02 
2.543700e-01 6.363977e+02 
2.555500e-01 6.320110e+02 
2.568000e-01 6.274190e+02 
2.580100e-01 6.230268e+02 
2.592400e-01 6.186035e+02 
2.604100e-01 6.144395e+02 
2.616100e-01 6.102171e+02 
2.628400e-01 6.059391e+02 
2.640600e-01 6.017213e+02 
2.652200e-01 5.977465e+02 
2.664300e-01 5.936466e+02 
2.676500e-01 5.895596e+02 
2.688400e-01 5.855938e+02 
2.700700e-01 5.815255e+02 
2.712400e-01 5.776987e+02 
2.724800e-01 5.736878e+02 
2.736700e-01 5.698654e+02 
2.748800e-01 5.660048e+02 
2.761000e-01 5.621553e+02 
2.773200e-01 5.583484e+02 
2.785400e-01 5.545742e+02 
2.797000e-01 5.510050e+02 
2.808900e-01 5.473821e+02 
2.821400e-01 5.436179e+02 
2.833900e-01 5.398945e+02 
2.845500e-01 5.364554e+02 
2.857800e-01 5.328471e+02 
2.870300e-01 5.292202e+02 
2.882100e-01 5.258327e+02 
2.893900e-01 5.224723e+02 
2.906300e-01 5.189741e+02 
2.918900e-01 5.154578e+02 
2.930500e-01 5.122543e+02 
2.942500e-01 5.089721e+02 
2.954200e-01 5.057984e+02 
2.966500e-01 5.024960e+02 
2.978900e-01 4.992016e+02 
2.990400e-01 4.961772e+02 
3.002700e-01 4.929721e+02 
3.015100e-01 4.897730e+02 
3.026800e-01 4.867848e+02 
3.038500e-01 4.838258e+02 
3.050300e-01 4.808705e+02 
3.062600e-01 4.778200e+02 
3.075000e-01 4.747760e+02 
3.087000e-01 4.718595e+02 
3.099100e-01 4.689477e+02 
3.111200e-01 4.660662e+02 
3.123100e-01 4.632629e+02 
3.135300e-01 4.604168e+02 
3.147300e-01 4.576446e+02 
3.159900e-01 4.547623e+02 
3.171800e-01 4.520701e+02 
3.183700e-01 4.494054e+02 
3.196300e-01 4.466113e+02 
3.208400e-01 4.439541e+02 
3.220300e-01 4.413655e+02 
3.232000e-01 4.388493e+02 
3.244300e-01 4.362310e+02 
3.256700e-01 4.336167e+02 
3.269200e-01 4.310066e+02 
3.280800e-01 4.286070e+02 
3.292500e-01 4.262161e+02 
3.304800e-01 4.237282e+02 
3.317100e-01 4.212635e+02 
3.328900e-01 4.189207e+02 
3.340700e-01 4.165987e+02 
3.353600e-01 4.140925e+02 
3.365300e-01 4.118436e+02 
3.377100e-01 4.095954e+02 
3.389200e-01 4.073105e+02 
3.401600e-01 4.049902e+02 
3.413700e-01 4.027548e+02 
3.425300e-01 4.006361e+02 
3.437700e-01 3.983913e+02 
3.449800e-01 3.962203e+02 
3.461800e-01 3.940862e+02 
3.473600e-01 3.920095e+02 
3.485800e-01 3.898903e+02 
3.498100e-01 3.877726e+02 
3.510200e-01 3.857075e+02 
3.522000e-01 3.837108e+02 
3.533900e-01 3.817141e+02 
3.546400e-01 3.796471e+02 
3.558400e-01 3.776807e+02 
3.570600e-01 3.756985e+02 
3.582700e-01 3.737493e+02 
3.595000e-01 3.717848e+02 
3.607100e-01 3.698754e+02 
3.618900e-01 3.680342e+02 
3.631200e-01 3.661309e+02 
3.643200e-01 3.642895e+02 
3.655500e-01 3.624179e+02 
3.667300e-01 3.606371e+02 
3.679500e-01 3.588240e+02 
3.691900e-01 3.569966e+02 
3.703600e-01 3.552864e+02 
3.715700e-01 3.535319e+02 
3.727700e-01 3.518059e+02 
3.739900e-01 3.500697e+02 
3.752000e-01 3.483691e+02 
3.763900e-01 3.467101e+02 
3.775800e-01 3.450641e+02 
3.788200e-01 3.433627e+02 
3.800300e-01 3.417158e+02 
3.812100e-01 3.401279e+02 
3.824200e-01 3.385160e+02 
3.836100e-01 3.369432e+02 
3.848600e-01 3.353042e+02 
3.860400e-01 3.337691e+02 
3.872400e-01 3.322199e+02 
3.884600e-01 3.306644e+02 
3.896500e-01 3.291615e+02 
3.908700e-01 3.276326e+02 
3.920600e-01 3.261527e+02 
3.933100e-01 3.246103e+02 
3.945300e-01 3.231166e+02 
3.957200e-01 3.216779e+02 
3.969300e-01 3.202281e+02 
3.981700e-01 3.187538e+02 
3.993500e-01 3.173613e+02 
4.094840e-01 3.058397e+02 
4.272360e-01 2.874556e+02 
4.454600e-01 2.705800e+02 
4.630560e-01 2.559141e+02 
4.804610e-01 2.427631e+02 
4.980690e-01 2.306494e+02 
5.159230e-01 2.194352e+02 
5.317440e-01 2.102964e+02 
5.489640e-01 2.011131e+02 
5.671990e-01 1.921701e+02 
5.838690e-01 1.846226e+02 
6.018840e-01 1.770745e+02 
6.202330e-01 1.699788e+02 
6.379250e-01 1.636354e+02 
6.545410e-01 1.581002e+02 
6.714560e-01 1.528290e+02 
6.892080e-01 1.476665e+02 
7.066010e-01 1.429443e+02 
7.240540e-01 1.385005e+02 
7.420450e-01 1.342142e+02 
7.593780e-01 1.303365e+02 
7.764720e-01 1.267298e+02 
7.942840e-01 1.231859e+02 
8.116170e-01 1.199319e+02 
8.288310e-01 1.168739e+02 
8.462240e-01 1.139440e+02 
8.631980e-01 1.112263e+02 
8.810700e-01 1.085051e+02 
8.989410e-01 1.059169e+02 
9.166330e-01 1.034760e+02 
9.345640e-01 1.011174e+02 
9.515980e-01 9.897406e+01 
9.688720e-01 9.689054e+01 
9.865640e-01 9.484567e+01 
1.031870e+00 8.997243e+01 
1.063490e+00 8.684672e+01 
1.097920e+00 8.367239e+01 
1.134370e+00 8.053637e+01 
1.167730e+00 7.785150e+01 
1.203830e+00 7.511798e+01 
1.240470e+00 7.251501e+01 
1.275790e+00 7.014819e+01 
1.309140e+00 6.803725e+01 
1.342970e+00 6.599626e+01 
1.378420e+00 6.396991e+01 
1.413200e+00 6.207891e+01 
1.448110e+00 6.027036e+01 
1.484090e+00 5.849627e+01 
1.518820e+00 5.686156e+01 
1.552880e+00 5.532700e+01 
1.588630e+00 5.378561e+01 
1.623230e+00 5.235863e+01 
1.657720e+00 5.099389e+01 
1.692450e+00 4.967660e+01 
1.726400e+00 4.843658e+01 
1.762200e+00 4.717898e+01 
1.797880e+00 4.597587e+01 
1.833270e+00 4.482847e+01 
1.869070e+00 4.371070e+01 
1.903200e+00 4.268447e+01 
1.937740e+00 4.168253e+01 
1.973190e+00 4.069006e+01 
2.007440e+00 3.976489e+01 
2.042160e+00 3.885849e+01 
2.077900e+00 3.795653e+01 
2.112390e+00 3.711619e+01 
2.146220e+00 3.631682e+01 
2.181600e+00 3.550806e+01 
2.216930e+00 3.472650e+01 
2.250760e+00 3.400163e+01 
2.286500e+00 3.325972e+01 
2.321770e+00 3.255053e+01 
2.355950e+00 3.188428e+01 
2.391280e+00 3.121458e+01 
2.426240e+00 3.057193e+01 
2.460670e+00 2.995812e+01 
2.495640e+00 2.935334e+01 
2.531080e+00 2.875661e+01 
2.566220e+00 2.818184e+01 
2.600830e+00 2.763208e+01 
2.635080e+00 2.710354e+01 
2.670340e+00 2.657306e+01 
2.705970e+00 2.605219e+01 
2.740040e+00 2.556792e+01 
2.774520e+00 2.508988e+01 
2.809730e+00 2.461440e+01 
2.844390e+00 2.415916e+01 
2.879960e+00 2.370411e+01 
2.914860e+00 2.326880e+01 
2.949410e+00 2.284926e+01 
2.984440e+00 2.243410e+01 
3.019760e+00 2.202605e+01 
3.054730e+00 2.163264e+01 
3.089030e+00 2.125529e+01 
3.124060e+00 2.087975e+01 
3.159560e+00 2.050852e+01 
3.194710e+00 2.014966e+01 
3.229010e+00 1.980839e+01 
3.263320e+00 1.947388e+01 
3.297930e+00 1.914478e+01 
3.332830e+00 1.882045e+01 
3.368040e+00 1.850090e+01 
3.403300e+00 1.818860e+01 
3.438450e+00 1.788405e+01 
3.473060e+00 1.759156e+01 
3.508440e+00 1.729846e+01 
3.543110e+00 1.701828e+01 
3.577470e+00 1.674631e+01 
3.613040e+00 1.647135e+01 
3.648120e+00 1.620579e+01 
3.682910e+00 1.594840e+01 
3.718050e+00 1.569391e+01 
3.753320e+00 1.544419e+01 
3.787980e+00 1.520400e+01 
3.822290e+00 1.497133e+01 
3.857020e+00 1.474061e+01 
3.891920e+00 1.451372e+01 
3.926650e+00 1.429239e+01 
3.961970e+00 1.407223e+01 
3.997360e+00 1.385616e+01 
4.031670e+00 1.365123e+01 
4.066330e+00 1.344812e+01 
4.101420e+00 1.324701e+01 
4.136200e+00 1.305123e+01 
4.170810e+00 1.286063e+01 
4.206250e+00 1.266917e+01 
4.241580e+00 1.248237e+01 
4.276300e+00 1.230232e+01 
4.310970e+00 1.212611e+01 
4.346120e+00 1.195102e+01 
4.380600e+00 1.178255e+01 
4.414730e+00 1.161917e+01 
4.450350e+00 1.145172e+01 
4.485320e+00 1.129073e+01 
4.519810e+00 1.113485e+01 
4.555430e+00 1.097698e+01 
4.590870e+00 1.082301e+01 
4.625480e+00 1.067543e+01 
4.659910e+00 1.053149e+01 
4.695230e+00 1.038649e+01 
4.729960e+00 1.024668e+01 
4.764450e+00 1.011038e+01 
4.799530e+00 9.974200e+00 
4.834910e+00 9.839514e+00 
4.869700e+00 9.709454e+00 
4.904370e+00 9.582258e+00 
4.939450e+00 9.455936e+00 
4.973940e+00 9.333954e+00 
5.008430e+00 9.214209e+00 
5.043810e+00 9.093509e+00 
5.078840e+00 8.976137e+00 
5.113500e+00 8.862119e+00 
5.148890e+00 8.747718e+00 
5.184210e+00 8.635623e+00 
5.219060e+00 8.526996e+00 
5.253660e+00 8.421021e+00 
5.288570e+00 8.315981e+00 
5.323420e+00 8.212934e+00 
5.358440e+00 8.111163e+00 
5.393590e+00 8.010799e+00 
5.428310e+00 7.913374e+00 
5.462800e+00 7.818242e+00 
5.497640e+00 7.723774e+00 
5.532670e+00 7.630414e+00 
5.567280e+00 7.539729e+00 
5.602000e+00 7.450273e+00 
5.637270e+00 7.360938e+00 
5.672410e+00 7.273426e+00 
5.707020e+00 7.188655e+00 
5.742040e+00 7.104348e+00 
5.777430e+00 7.020565e+00 
5.812210e+00 6.939570e+00 
5.846820e+00 6.860277e+00 
5.881610e+00 6.781847e+00 
5.916510e+00 6.704424e+00 
5.951600e+00 6.627867e+00 
5.986560e+00 6.552824e+00 
6.021830e+00 6.478312e+00 
6.056490e+00 6.406300e+00 
6.091160e+00 6.335435e+00 
6.125830e+00 6.265659e+00 
6.161090e+00 6.195817e+00 
6.195760e+00 6.128260e+00 
6.230420e+00 6.061743e+00 
6.265690e+00 5.995086e+00 
6.300950e+00 5.929561e+00 
6.335620e+00 5.866099e+00 
6.370880e+00 5.802522e+00 
6.405550e+00 5.741019e+00 
6.440220e+00 5.680450e+00 
6.475480e+00 5.619757e+00 
6.510150e+00 5.560985e+00 
6.544810e+00 5.503154e+00 
6.580080e+00 5.445156e+00 
6.614750e+00 5.388968e+00 
6.649410e+00 5.333715e+00 
6.684080e+00 5.279252e+00 
6.719340e+00 5.224648e+00 
6.754010e+00 5.171756e+00 
6.788680e+00 5.119695e+00 
6.823940e+00 5.067488e+00 
6.859800e+00 5.015145e+00 
6.894470e+00 4.965334e+00 
6.929140e+00 4.916236e+00 
6.963800e+00 4.867820e+00 
6.999070e+00 4.819233e+00 
7.033730e+00 4.772255e+00 
7.068400e+00 4.725892e+00 
7.103660e+00 4.679376e+00 
7.138330e+00 4.634297e+00 
7.173600e+00 4.589143e+00 
7.208260e+00 4.545359e+00 
7.243530e+00 4.501394e+00 
7.277600e+00 4.459541e+00 
7.312860e+00 4.416847e+00 
7.348120e+00 4.374714e+00 
7.382790e+00 4.333824e+00 
7.417460e+00 4.293557e+00 
7.452720e+00 4.253181e+00 
7.487390e+00 4.213989e+00 
7.522650e+00 4.174639e+00 
7.557320e+00 4.136527e+00 
7.591990e+00 4.098926e+00 
7.627250e+00 4.061166e+00 
7.662510e+00 4.023882e+00 
7.697180e+00 3.987776e+00 
7.731850e+00 3.952151e+00 
7.766510e+00 3.916973e+00 
7.801180e+00 3.882213e+00 
7.836440e+00 3.847374e+00 
7.871110e+00 3.813585e+00 
7.906380e+00 3.779628e+00 
7.941040e+00 3.746662e+00 
7.976310e+00 3.713569e+00 
8.011570e+00 3.680943e+00 
8.046240e+00 3.649246e+00 
8.080900e+00 3.617932e+00 
8.115570e+00 3.587004e+00 
8.150830e+00 3.556024e+00 
8.185500e+00 3.525920e+00 
8.220770e+00 3.495652e+00 
8.255430e+00 3.466255e+00 
8.290100e+00 3.437292e+00 
8.324770e+00 3.408673e+00 
8.359430e+00 3.380389e+00 
8.394700e+00 3.351936e+00 
8.429960e+00 3.323879e+00 
8.464630e+00 3.296667e+00 
8.499890e+00 3.269304e+00 
8.534560e+00 3.242702e+00 
8.569200e+00 3.216419e+00 
