# Parameters:
# omega_b = 0.023390, omega_m = 0.147283, n_s = 0.919291, h = 61.141732, w = -1.000000, sigma_8 = 0.874803
# z = 1.300000
#
# k[1/Mpc] # P(k):
8.694000e-04 6.253381e+03 
2.077466e-03 1.289215e+04 
3.285532e-03 1.795158e+04 
4.493598e-03 2.180483e+04 
5.701664e-03 2.464408e+04 
6.909730e-03 2.664549e+04 
8.117797e-03 2.799816e+04 
9.325863e-03 2.879850e+04 
1.053393e-02 2.914055e+04 
1.174199e-02 2.910924e+04 
1.295006e-02 2.875873e+04 
1.415813e-02 2.816174e+04 
1.536619e-02 2.738112e+04 
1.657426e-02 2.646075e+04 
1.778233e-02 2.544618e+04 
1.899039e-02 2.440316e+04 
2.019846e-02 2.334812e+04 
2.140652e-02 2.229579e+04 
2.261459e-02 2.126325e+04 
2.382266e-02 2.027283e+04 
2.503072e-02 1.933927e+04 
2.623879e-02 1.846817e+04 
2.744685e-02 1.766102e+04 
2.865492e-02 1.692183e+04 
2.986299e-02 1.624848e+04 
3.100100e-02 1.567287e+04 
3.220400e-02 1.512270e+04 
3.288100e-02 1.483879e+04 
3.424300e-02 1.431744e+04 
3.555100e-02 1.387153e+04 
3.686000e-02 1.347252e+04 
3.795000e-02 1.316989e+04 
3.929100e-02 1.282951e+04 
4.039800e-02 1.256813e+04 
4.164000e-02 1.229021e+04 
4.294400e-02 1.200787e+04 
4.415000e-02 1.175343e+04 
4.542900e-02 1.148135e+04 
4.660900e-02 1.123059e+04 
4.782300e-02 1.096174e+04 
4.892900e-02 1.071332e+04 
5.031200e-02 1.039394e+04 
5.155900e-02 1.009637e+04 
5.238100e-02 9.896880e+03 
5.378200e-02 9.553144e+03 
5.513400e-02 9.217786e+03 
5.627600e-02 8.934915e+03 
5.735300e-02 8.671677e+03 
5.870100e-02 8.350261e+03 
5.988700e-02 8.078172e+03 
6.113500e-02 7.803859e+03 
6.225900e-02 7.568367e+03 
6.340100e-02 7.340690e+03 
6.480200e-02 7.076854e+03 
6.601100e-02 6.863084e+03 
6.725500e-02 6.656323e+03 
6.829100e-02 6.495203e+03 
6.958600e-02 6.306486e+03 
7.071100e-02 6.155140e+03 
7.192300e-02 6.004492e+03 
7.307400e-02 5.872906e+03 
7.412300e-02 5.762167e+03 
7.550400e-02 5.629770e+03 
7.663100e-02 5.530560e+03 
7.791200e-02 5.428273e+03 
7.912700e-02 5.339228e+03 
8.027600e-02 5.260232e+03 
8.138400e-02 5.187710e+03 
8.272200e-02 5.103721e+03 
8.406100e-02 5.021972e+03 
8.534100e-02 4.943946e+03 
8.653800e-02 4.869678e+03 
8.759800e-02 4.802949e+03 
8.900300e-02 4.712174e+03 
9.009000e-02 4.639323e+03 
9.113300e-02 4.566611e+03 
9.239600e-02 4.477046e+03 
9.358000e-02 4.390652e+03 
9.496100e-02 4.286551e+03 
9.608400e-02 4.201350e+03 
9.727500e-02 4.111220e+03 
9.852600e-02 4.014949e+03 
9.973800e-02 3.923436e+03 
1.009000e-01 3.837407e+03 
1.020900e-01 3.750996e+03 
1.034000e-01 3.659133e+03 
1.046000e-01 3.577951e+03 
1.057200e-01 3.505830e+03 
1.069100e-01 3.432097e+03 
1.082500e-01 3.353911e+03 
1.093900e-01 3.291229e+03 
1.105400e-01 3.230779e+03 
1.116900e-01 3.174861e+03 
1.129600e-01 3.115857e+03 
1.142000e-01 3.062655e+03 
1.153300e-01 3.016611e+03 
1.166400e-01 2.966457e+03 
1.177800e-01 2.925556e+03 
1.190000e-01 2.883613e+03 
1.201200e-01 2.847443e+03 
1.213400e-01 2.809230e+03 
1.227100e-01 2.768648e+03 
1.238900e-01 2.734661e+03 
1.250700e-01 2.701664e+03 
1.263200e-01 2.667404e+03 
1.275500e-01 2.634209e+03 
1.287500e-01 2.602187e+03 
1.299900e-01 2.569246e+03 
1.311300e-01 2.539029e+03 
1.323500e-01 2.506487e+03 
1.335900e-01 2.473394e+03 
1.347100e-01 2.443138e+03 
1.359800e-01 2.408901e+03 
1.372100e-01 2.375138e+03 
1.384300e-01 2.341870e+03 
1.395700e-01 2.310194e+03 
1.407700e-01 2.277425e+03 
1.420300e-01 2.242399e+03 
1.432800e-01 2.208441e+03 
1.444500e-01 2.176445e+03 
1.456300e-01 2.144859e+03 
1.468900e-01 2.111730e+03 
1.480500e-01 2.081846e+03 
1.491700e-01 2.053727e+03 
1.503800e-01 2.024164e+03 
1.516400e-01 1.994198e+03 
1.528200e-01 1.967425e+03 
1.540200e-01 1.940744e+03 
1.551900e-01 1.916121e+03 
1.564300e-01 1.890753e+03 
1.576600e-01 1.866595e+03 
1.588700e-01 1.843896e+03 
1.600900e-01 1.821496e+03 
1.612700e-01 1.801120e+03 
1.625400e-01 1.779604e+03 
1.637600e-01 1.759696e+03 
1.649500e-01 1.740847e+03 
1.662200e-01 1.721137e+03 
1.674000e-01 1.703356e+03 
1.685000e-01 1.687059e+03 
1.697500e-01 1.668810e+03 
1.710300e-01 1.650418e+03 
1.722200e-01 1.633624e+03 
1.734400e-01 1.616391e+03 
1.746400e-01 1.599721e+03 
1.758700e-01 1.582792e+03 
1.770900e-01 1.566012e+03 
1.782700e-01 1.550057e+03 
1.794600e-01 1.533999e+03 
1.807000e-01 1.517393e+03 
1.819100e-01 1.501463e+03 
1.830100e-01 1.486967e+03 
1.842200e-01 1.471233e+03 
1.855000e-01 1.454865e+03 
1.867000e-01 1.439634e+03 
1.879200e-01 1.424402e+03 
1.890900e-01 1.410026e+03 
1.902800e-01 1.395617e+03 
1.915200e-01 1.380845e+03 
1.926900e-01 1.367155e+03 
1.939000e-01 1.353303e+03 
1.951700e-01 1.339000e+03 
1.963100e-01 1.326404e+03 
1.975100e-01 1.313462e+03 
1.987800e-01 1.299981e+03 
2.000100e-01 1.287191e+03 
2.012500e-01 1.274638e+03 
2.023400e-01 1.263764e+03 
2.036100e-01 1.251316e+03 
2.048900e-01 1.239106e+03 
2.060400e-01 1.228299e+03 
2.072200e-01 1.217378e+03 
2.084200e-01 1.206552e+03 
2.096900e-01 1.195265e+03 
2.109200e-01 1.184495e+03 
2.121100e-01 1.174273e+03 
2.132700e-01 1.164449e+03 
2.145200e-01 1.154012e+03 
2.157200e-01 1.144132e+03 
2.168800e-01 1.134711e+03 
2.180700e-01 1.125177e+03 
2.193400e-01 1.115116e+03 
2.206000e-01 1.105223e+03 
2.217500e-01 1.096317e+03 
2.229500e-01 1.087147e+03 
2.241400e-01 1.078054e+03 
2.253500e-01 1.068929e+03 
2.264900e-01 1.060444e+03 
2.277100e-01 1.051404e+03 
2.289900e-01 1.041961e+03 
2.301500e-01 1.033519e+03 
2.313600e-01 1.024826e+03 
2.325600e-01 1.016152e+03 
2.337700e-01 1.007522e+03 
2.350000e-01 9.988645e+02 
2.362000e-01 9.904627e+02 
2.374100e-01 9.820221e+02 
2.386500e-01 9.734861e+02 
2.399100e-01 9.649285e+02 
2.410400e-01 9.572672e+02 
2.422500e-01 9.491549e+02 
2.435000e-01 9.408837e+02 
2.447300e-01 9.328448e+02 
2.458700e-01 9.254617e+02 
2.470600e-01 9.178486e+02 
2.483300e-01 9.098278e+02 
2.495600e-01 9.021711e+02 
2.507600e-01 8.948095e+02 
2.519600e-01 8.875386e+02 
2.532200e-01 8.799998e+02 
2.543700e-01 8.732543e+02 
2.555500e-01 8.664487e+02 
2.568000e-01 8.593271e+02 
2.580100e-01 8.525181e+02 
2.592400e-01 8.457681e+02 
2.604100e-01 8.394617e+02 
2.616100e-01 8.330686e+02 
2.628400e-01 8.265933e+02 
2.640600e-01 8.203459e+02 
2.652200e-01 8.145128e+02 
2.664300e-01 8.084972e+02 
2.676500e-01 8.025019e+02 
2.688400e-01 7.967995e+02 
2.700700e-01 7.910214e+02 
2.712400e-01 7.855867e+02 
2.724800e-01 7.798915e+02 
2.736700e-01 7.745422e+02 
2.748800e-01 7.692196e+02 
2.761000e-01 7.639124e+02 
2.773200e-01 7.586641e+02 
2.785400e-01 7.534990e+02 
2.797000e-01 7.486932e+02 
2.808900e-01 7.438150e+02 
2.821400e-01 7.387464e+02 
2.833900e-01 7.337361e+02 
2.845500e-01 7.291830e+02 
2.857800e-01 7.244057e+02 
2.870300e-01 7.196033e+02 
2.882100e-01 7.151178e+02 
2.893900e-01 7.106997e+02 
2.906300e-01 7.061168e+02 
2.918900e-01 7.015100e+02 
2.930500e-01 6.973126e+02 
2.942500e-01 6.930176e+02 
2.954200e-01 6.888834e+02 
2.966500e-01 6.845812e+02 
2.978900e-01 6.802889e+02 
2.990400e-01 6.763479e+02 
3.002700e-01 6.721784e+02 
3.015100e-01 6.680199e+02 
3.026800e-01 6.641352e+02 
3.038500e-01 6.602878e+02 
3.050300e-01 6.564450e+02 
3.062600e-01 6.524798e+02 
3.075000e-01 6.485226e+02 
3.087000e-01 6.447308e+02 
3.099100e-01 6.409446e+02 
3.111200e-01 6.371961e+02 
3.123100e-01 6.335465e+02 
3.135300e-01 6.298409e+02 
3.147300e-01 6.262311e+02 
3.159900e-01 6.224776e+02 
3.171800e-01 6.189678e+02 
3.183700e-01 6.154915e+02 
3.196300e-01 6.118458e+02 
3.208400e-01 6.083786e+02 
3.220300e-01 6.050004e+02 
3.232000e-01 6.017117e+02 
3.244300e-01 5.982874e+02 
3.256700e-01 5.948679e+02 
3.269200e-01 5.914536e+02 
3.280800e-01 5.883143e+02 
3.292500e-01 5.851822e+02 
3.304800e-01 5.819214e+02 
3.317100e-01 5.786907e+02 
3.328900e-01 5.756194e+02 
3.340700e-01 5.725752e+02 
3.353600e-01 5.692856e+02 
3.365300e-01 5.663322e+02 
3.377100e-01 5.633794e+02 
3.389200e-01 5.603782e+02 
3.401600e-01 5.573302e+02 
3.413700e-01 5.543915e+02 
3.425300e-01 5.516048e+02 
3.437700e-01 5.486519e+02 
3.449800e-01 5.457959e+02 
3.461800e-01 5.429881e+02 
3.473600e-01 5.402554e+02 
3.485800e-01 5.374658e+02 
3.498100e-01 5.346779e+02 
3.510200e-01 5.319591e+02 
3.522000e-01 5.293301e+02 
3.533900e-01 5.267009e+02 
3.546400e-01 5.239790e+02 
3.558400e-01 5.213893e+02 
3.570600e-01 5.187786e+02 
3.582700e-01 5.162111e+02 
3.595000e-01 5.136232e+02 
3.607100e-01 5.111090e+02 
3.618900e-01 5.086853e+02 
3.631200e-01 5.061797e+02 
3.643200e-01 5.037554e+02 
3.655500e-01 5.012911e+02 
3.667300e-01 4.989462e+02 
3.679500e-01 4.965615e+02 
3.691900e-01 4.941578e+02 
3.703600e-01 4.919080e+02 
3.715700e-01 4.895998e+02 
3.727700e-01 4.873290e+02 
3.739900e-01 4.850458e+02 
3.752000e-01 4.828119e+02 
3.763900e-01 4.806323e+02 
3.775800e-01 4.784697e+02 
3.788200e-01 4.762342e+02 
3.800300e-01 4.740701e+02 
3.812100e-01 4.719859e+02 
3.824200e-01 4.698719e+02 
3.836100e-01 4.678089e+02 
3.848600e-01 4.656589e+02 
3.860400e-01 4.636451e+02 
3.872400e-01 4.616127e+02 
3.884600e-01 4.595747e+02 
3.896500e-01 4.576066e+02 
3.908700e-01 4.556042e+02 
3.920600e-01 4.536659e+02 
3.933100e-01 4.516455e+02 
3.945300e-01 4.496888e+02 
3.957200e-01 4.478084e+02 
3.969300e-01 4.459146e+02 
3.981700e-01 4.439885e+02 
3.993500e-01 4.421694e+02 
4.094840e-01 4.271201e+02 
4.272360e-01 4.031797e+02 
4.454600e-01 3.812134e+02 
4.630560e-01 3.620965e+02 
4.804610e-01 3.448998e+02 
4.980690e-01 3.289941e+02 
5.159230e-01 3.141935e+02 
5.317440e-01 3.020797e+02 
5.489640e-01 2.898453e+02 
5.671990e-01 2.778770e+02 
5.838690e-01 2.677442e+02 
6.018840e-01 2.575792e+02 
6.202330e-01 2.479920e+02 
6.379250e-01 2.394070e+02 
6.545410e-01 2.318982e+02 
6.714560e-01 2.247371e+02 
6.892080e-01 2.177156e+02 
7.066010e-01 2.112830e+02 
7.240540e-01 2.052202e+02 
7.420450e-01 1.993624e+02 
7.593780e-01 1.940516e+02 
7.764720e-01 1.891042e+02 
7.942840e-01 1.842315e+02 
8.116170e-01 1.797470e+02 
8.288310e-01 1.755183e+02 
8.462240e-01 1.714577e+02 
8.631980e-01 1.676768e+02 
8.810700e-01 1.638792e+02 
8.989410e-01 1.602517e+02 
9.166330e-01 1.568184e+02 
9.345640e-01 1.534907e+02 
9.515980e-01 1.504506e+02 
9.688720e-01 1.474821e+02 
9.865640e-01 1.445551e+02 
1.031870e+00 1.375281e+02 
1.063490e+00 1.329755e+02 
1.097920e+00 1.283143e+02 
1.134370e+00 1.236704e+02 
1.167730e+00 1.196617e+02 
1.203830e+00 1.155433e+02 
1.240470e+00 1.115957e+02 
1.275790e+00 1.079778e+02 
1.309140e+00 1.047342e+02 
1.342970e+00 1.015735e+02 
1.378420e+00 9.842218e+01 
1.413200e+00 9.546469e+01 
1.448110e+00 9.262438e+01 
1.484090e+00 8.982550e+01 
1.518820e+00 8.723684e+01 
1.552880e+00 8.479827e+01 
1.588630e+00 8.234240e+01 
1.623230e+00 8.006226e+01 
1.657720e+00 7.787534e+01 
1.692450e+00 7.576178e+01 
1.726400e+00 7.376810e+01 
1.762200e+00 7.174232e+01 
1.797880e+00 6.980158e+01 
1.833270e+00 6.794873e+01 
1.869070e+00 6.614176e+01 
1.903200e+00 6.448181e+01 
1.937740e+00 6.286057e+01 
1.973190e+00 6.125399e+01 
2.007440e+00 5.975667e+01 
2.042160e+00 5.828912e+01 
2.077900e+00 5.682833e+01 
2.112390e+00 5.546857e+01 
2.146220e+00 5.417479e+01 
2.181600e+00 5.286655e+01 
2.216930e+00 5.160288e+01 
2.250760e+00 5.043174e+01 
2.286500e+00 4.923392e+01 
2.321770e+00 4.808975e+01 
2.355950e+00 4.701631e+01 
2.391280e+00 4.593755e+01 
2.426240e+00 4.490380e+01 
2.460670e+00 4.391769e+01 
2.495640e+00 4.294716e+01 
2.531080e+00 4.199051e+01 
2.566220e+00 4.107009e+01 
2.600830e+00 4.019097e+01 
2.635080e+00 3.934711e+01 
2.670340e+00 3.850195e+01 
2.705970e+00 3.767295e+01 
2.740040e+00 3.690302e+01 
2.774520e+00 3.614415e+01 
2.809730e+00 3.539067e+01 
2.844390e+00 3.467045e+01 
2.879960e+00 3.395220e+01 
2.914860e+00 3.326602e+01 
2.949410e+00 3.260556e+01 
2.984440e+00 3.195352e+01 
3.019760e+00 3.131335e+01 
3.054730e+00 3.069687e+01 
3.089030e+00 3.010760e+01 
3.124060e+00 2.952194e+01 
3.159560e+00 2.894390e+01 
3.194710e+00 2.838643e+01 
3.229010e+00 2.785701e+01 
3.263320e+00 2.733956e+01 
3.297930e+00 2.683108e+01 
3.332830e+00 2.633080e+01 
3.368040e+00 2.583908e+01 
3.403300e+00 2.535948e+01 
3.438450e+00 2.489292e+01 
3.473060e+00 2.444536e+01 
3.508440e+00 2.399801e+01 
3.543110e+00 2.357094e+01 
3.577470e+00 2.315793e+01 
3.613040e+00 2.274080e+01 
3.648120e+00 2.233853e+01 
3.682910e+00 2.194942e+01 
3.718050e+00 2.156581e+01 
3.753320e+00 2.119001e+01 
3.787980e+00 2.082922e+01 
3.822290e+00 2.048040e+01 
3.857020e+00 2.013534e+01 
3.891920e+00 1.979657e+01 
3.926650e+00 1.946689e+01 
3.961970e+00 1.913951e+01 
3.997360e+00 1.881916e+01 
4.031670e+00 1.851568e+01 
4.066330e+00 1.821560e+01 
4.101420e+00 1.791873e+01 
4.136200e+00 1.763079e+01 
4.170810e+00 1.735067e+01 
4.206250e+00 1.707005e+01 
4.241580e+00 1.679655e+01 
4.276300e+00 1.653369e+01 
4.310970e+00 1.627691e+01 
4.346120e+00 1.602218e+01 
4.380600e+00 1.577761e+01 
4.414730e+00 1.554062e+01 
4.450350e+00 1.529863e+01 
4.485320e+00 1.506612e+01 
4.519810e+00 1.484162e+01 
4.555430e+00 1.461462e+01 
4.590870e+00 1.439353e+01 
4.625480e+00 1.418209e+01 
4.659910e+00 1.397600e+01 
4.695230e+00 1.376916e+01 
4.729960e+00 1.356993e+01 
4.764450e+00 1.337604e+01 
4.799530e+00 1.318281e+01 
4.834910e+00 1.299180e+01 
4.869700e+00 1.280790e+01 
4.904370e+00 1.262823e+01 
4.939450e+00 1.245003e+01 
4.973940e+00 1.227841e+01 
5.008430e+00 1.211003e+01 
5.043810e+00 1.194070e+01 
5.078840e+00 1.177630e+01 
5.113500e+00 1.161668e+01 
5.148890e+00 1.145713e+01 
5.184210e+00 1.130089e+01 
5.219060e+00 1.114966e+01 
5.253660e+00 1.100250e+01 
5.288570e+00 1.085671e+01 
5.323420e+00 1.071393e+01 
5.358440e+00 1.057319e+01 
5.393590e+00 1.043445e+01 
5.428310e+00 1.030013e+01 
5.462800e+00 1.016918e+01 
5.497640e+00 1.003919e+01 
5.532670e+00 9.911086e+00 
5.567280e+00 9.786801e+00 
5.602000e+00 9.664249e+00 
5.637270e+00 9.542163e+00 
5.672410e+00 9.422675e+00 
5.707020e+00 9.306974e+00 
5.742040e+00 9.192247e+00 
5.777430e+00 9.078338e+00 
5.812210e+00 8.968259e+00 
5.846820e+00 8.860741e+00 
5.881610e+00 8.754485e+00 
5.916510e+00 8.649628e+00 
5.951600e+00 8.546195e+00 
5.986560e+00 8.444937e+00 
6.021830e+00 8.344429e+00 
6.056490e+00 8.247474e+00 
6.091160e+00 8.152218e+00 
6.125830e+00 8.058453e+00 
6.161090e+00 7.964697e+00 
6.195760e+00 7.874178e+00 
6.230420e+00 7.785080e+00 
6.265690e+00 7.695829e+00 
6.300950e+00 7.608361e+00 
6.335620e+00 7.523671e+00 
6.370880e+00 7.438849e+00 
6.405550e+00 7.356941e+00 
6.440220e+00 7.276349e+00 
6.475480e+00 7.195612e+00 
6.510150e+00 7.117516e+00 
6.544810e+00 7.040835e+00 
6.580080e+00 6.963953e+00 
6.614750e+00 6.889486e+00 
6.649410e+00 6.816402e+00 
6.684080e+00 6.744404e+00 
6.719340e+00 6.672237e+00 
6.754010e+00 6.602401e+00 
6.788680e+00 6.533801e+00 
6.823940e+00 6.465025e+00 
6.859800e+00 6.396083e+00 
6.894470e+00 6.330584e+00 
6.929140e+00 6.266070e+00 
6.963800e+00 6.202464e+00 
6.999070e+00 6.138654e+00 
7.033730e+00 6.077081e+00 
7.068400e+00 6.016326e+00 
7.103660e+00 5.955382e+00 
7.138330e+00 5.896366e+00 
7.173600e+00 5.837337e+00 
7.208260e+00 5.780110e+00 
7.243530e+00 5.722654e+00 
7.277600e+00 5.668024e+00 
7.312860e+00 5.612352e+00 
7.348120e+00 5.557422e+00 
7.382790e+00 5.504120e+00 
7.417460e+00 5.451715e+00 
7.452720e+00 5.399219e+00 
7.487390e+00 5.348270e+00 
7.522650e+00 5.297121e+00 
7.557320e+00 5.247633e+00 
7.591990e+00 5.198831e+00 
7.627250e+00 5.149829e+00 
7.662510e+00 5.101453e+00 
7.697180e+00 5.054668e+00 
7.731850e+00 5.008534e+00 
7.766510e+00 4.962984e+00 
7.801180e+00 4.917983e+00 
7.836440e+00 4.872914e+00 
7.871110e+00 4.829226e+00 
7.906380e+00 4.785327e+00 
7.941040e+00 4.742714e+00 
7.976310e+00 4.699972e+00 
8.011570e+00 4.657876e+00 
8.046240e+00 4.616983e+00 
8.080900e+00 4.576588e+00 
8.115570e+00 4.536703e+00 
8.150830e+00 4.496787e+00 
8.185500e+00 4.458003e+00 
8.220770e+00 4.419014e+00 
8.255430e+00 4.381149e+00 
8.290100e+00 4.343900e+00 
8.324770e+00 4.307103e+00 
8.359430e+00 4.270739e+00 
8.394700e+00 4.234162e+00 
8.429960e+00 4.198114e+00 
8.464630e+00 4.163168e+00 
8.499890e+00 4.128033e+00 
8.534560e+00 4.093878e+00 
8.569200e+00 4.060135e+00 
