# Parameters:
# omega_b = 0.021689, omega_m = 0.141220, n_s = 0.900394, h = 74.606299, w = -1.000000, sigma_8 = 0.709449
# z = 1.300000
#
# k[1/Mpc] # P(k):
8.694000e-04 4.420378e+03 
2.077466e-03 8.917872e+03 
3.285532e-03 1.226850e+04 
4.493598e-03 1.475371e+04 
5.701664e-03 1.654038e+04 
6.909730e-03 1.775985e+04 
8.117797e-03 1.854544e+04 
9.325863e-03 1.896674e+04 
1.053393e-02 1.909116e+04 
1.174199e-02 1.897879e+04 
1.295006e-02 1.866763e+04 
1.415813e-02 1.820663e+04 
1.536619e-02 1.763638e+04 
1.657426e-02 1.698266e+04 
1.778233e-02 1.626218e+04 
1.899039e-02 1.550463e+04 
2.019846e-02 1.474317e+04 
2.140652e-02 1.400590e+04 
2.261459e-02 1.329824e+04 
2.382266e-02 1.262821e+04 
2.503072e-02 1.200311e+04 
2.623879e-02 1.142557e+04 
2.744685e-02 1.089627e+04 
2.865492e-02 1.041616e+04 
2.986299e-02 9.982930e+03 
3.100100e-02 9.616396e+03 
3.220400e-02 9.269462e+03 
3.288100e-02 9.092089e+03 
3.424300e-02 8.768988e+03 
3.555100e-02 8.495291e+03 
3.686000e-02 8.252533e+03 
3.795000e-02 8.069472e+03 
3.929100e-02 7.864491e+03 
4.039800e-02 7.706990e+03 
4.164000e-02 7.538959e+03 
4.294400e-02 7.366370e+03 
4.415000e-02 7.209217e+03 
4.542900e-02 7.038304e+03 
4.660900e-02 6.878831e+03 
4.782300e-02 6.704802e+03 
4.892900e-02 6.542282e+03 
5.031200e-02 6.331014e+03 
5.155900e-02 6.132429e+03 
5.238100e-02 5.998634e+03 
5.378200e-02 5.767068e+03 
5.513400e-02 5.539809e+03 
5.627600e-02 5.346930e+03 
5.735300e-02 5.166010e+03 
5.870100e-02 4.942573e+03 
5.988700e-02 4.750978e+03 
6.113500e-02 4.555901e+03 
6.225900e-02 4.387944e+03 
6.340100e-02 4.226722e+03 
6.480200e-02 4.043135e+03 
6.601100e-02 3.899704e+03 
6.725500e-02 3.766604e+03 
6.829100e-02 3.667931e+03 
6.958600e-02 3.556861e+03 
7.071100e-02 3.471991e+03 
7.192300e-02 3.390749e+03 
7.307400e-02 3.322249e+03 
7.412300e-02 3.266148e+03 
7.550400e-02 3.200823e+03 
7.663100e-02 3.152571e+03 
7.791200e-02 3.103152e+03 
7.912700e-02 3.059660e+03 
8.027600e-02 3.020300e+03 
8.138400e-02 2.983258e+03 
8.272200e-02 2.938827e+03 
8.406100e-02 2.893766e+03 
8.534100e-02 2.848664e+03 
8.653800e-02 2.804129e+03 
8.759800e-02 2.763253e+03 
8.900300e-02 2.706474e+03 
9.009000e-02 2.660130e+03 
9.113300e-02 2.613400e+03 
9.239600e-02 2.555536e+03 
9.358000e-02 2.499461e+03 
9.496100e-02 2.431719e+03 
9.608400e-02 2.376280e+03 
9.727500e-02 2.317680e+03 
9.852600e-02 2.255220e+03 
9.973800e-02 2.196074e+03 
1.009000e-01 2.140675e+03 
1.020900e-01 2.085578e+03 
1.034000e-01 2.027463e+03 
1.046000e-01 1.976570e+03 
1.057200e-01 1.932289e+03 
1.069100e-01 1.887451e+03 
1.082500e-01 1.841142e+03 
1.093900e-01 1.804911e+03 
1.105400e-01 1.770499e+03 
1.116900e-01 1.739980e+03 
1.129600e-01 1.708239e+03 
1.142000e-01 1.680807e+03 
1.153300e-01 1.657479e+03 
1.166400e-01 1.632727e+03 
1.177800e-01 1.612943e+03 
1.190000e-01 1.592849e+03 
1.201200e-01 1.575566e+03 
1.213400e-01 1.557314e+03 
1.227100e-01 1.537400e+03 
1.238900e-01 1.520523e+03 
1.250700e-01 1.503451e+03 
1.263200e-01 1.485369e+03 
1.275500e-01 1.467058e+03 
1.287500e-01 1.448934e+03 
1.299900e-01 1.429573e+03 
1.311300e-01 1.411408e+03 
1.323500e-01 1.391252e+03 
1.335900e-01 1.370445e+03 
1.347100e-01 1.351022e+03 
1.359800e-01 1.328903e+03 
1.372100e-01 1.306801e+03 
1.384300e-01 1.285011e+03 
1.395700e-01 1.264198e+03 
1.407700e-01 1.242711e+03 
1.420300e-01 1.219895e+03 
1.432800e-01 1.197814e+03 
1.444500e-01 1.177389e+03 
1.456300e-01 1.157258e+03 
1.468900e-01 1.136589e+03 
1.480500e-01 1.118092e+03 
1.491700e-01 1.100977e+03 
1.503800e-01 1.083347e+03 
1.516400e-01 1.065621e+03 
1.528200e-01 1.050359e+03 
1.540200e-01 1.035157e+03 
1.551900e-01 1.021651e+03 
1.564300e-01 1.007869e+03 
1.576600e-01 9.949800e+02 
1.588700e-01 9.831569e+02 
1.600900e-01 9.715049e+02 
1.612700e-01 9.612049e+02 
1.625400e-01 9.503265e+02 
1.637600e-01 9.402840e+02 
1.649500e-01 9.307884e+02 
1.662200e-01 9.208256e+02 
1.674000e-01 9.116588e+02 
1.685000e-01 9.032562e+02 
1.697500e-01 8.936446e+02 
1.710300e-01 8.837571e+02 
1.722200e-01 8.747290e+02 
1.734400e-01 8.650034e+02 
1.746400e-01 8.555786e+02 
1.758700e-01 8.458732e+02 
1.770900e-01 8.359814e+02 
1.782700e-01 8.265800e+02 
1.794600e-01 8.169469e+02 
1.807000e-01 8.068744e+02 
1.819100e-01 7.972196e+02 
1.830100e-01 7.883323e+02 
1.842200e-01 7.786756e+02 
1.855000e-01 7.686392e+02 
1.867000e-01 7.593081e+02 
1.879200e-01 7.499853e+02 
1.890900e-01 7.412108e+02 
1.902800e-01 7.325111e+02 
1.915200e-01 7.235996e+02 
1.926900e-01 7.153840e+02 
1.939000e-01 7.071963e+02 
1.951700e-01 6.987472e+02 
1.963100e-01 6.913551e+02 
1.975100e-01 6.838790e+02 
1.987800e-01 6.760955e+02 
2.000100e-01 6.687546e+02 
2.012500e-01 6.616440e+02 
2.023400e-01 6.554869e+02 
2.036100e-01 6.484588e+02 
2.048900e-01 6.416364e+02 
2.060400e-01 6.356000e+02 
2.072200e-01 6.295039e+02 
2.084200e-01 6.234962e+02 
2.096900e-01 6.172339e+02 
2.109200e-01 6.112609e+02 
2.121100e-01 6.055980e+02 
2.132700e-01 6.001573e+02 
2.145200e-01 5.943787e+02 
2.157200e-01 5.889078e+02 
2.168800e-01 5.836910e+02 
2.180700e-01 5.784131e+02 
2.193400e-01 5.728516e+02 
2.206000e-01 5.673969e+02 
2.217500e-01 5.624878e+02 
2.229500e-01 5.574346e+02 
2.241400e-01 5.524657e+02 
2.253500e-01 5.474817e+02 
2.264900e-01 5.428487e+02 
2.277100e-01 5.379535e+02 
2.289900e-01 5.328860e+02 
2.301500e-01 5.283563e+02 
2.313600e-01 5.236937e+02 
2.325600e-01 5.191452e+02 
2.337700e-01 5.146195e+02 
2.350000e-01 5.100804e+02 
2.362000e-01 5.057254e+02 
2.374100e-01 5.014088e+02 
2.386500e-01 4.970434e+02 
2.399100e-01 4.926670e+02 
2.410400e-01 4.888275e+02 
2.422500e-01 4.847715e+02 
2.435000e-01 4.806356e+02 
2.447300e-01 4.766269e+02 
2.458700e-01 4.729899e+02 
2.470600e-01 4.692391e+02 
2.483300e-01 4.652869e+02 
2.495600e-01 4.615200e+02 
2.507600e-01 4.579068e+02 
2.519600e-01 4.543376e+02 
2.532200e-01 4.506362e+02 
2.543700e-01 4.473084e+02 
2.555500e-01 4.439397e+02 
2.568000e-01 4.404143e+02 
2.580100e-01 4.370432e+02 
2.592400e-01 4.336592e+02 
2.604100e-01 4.304787e+02 
2.616100e-01 4.272544e+02 
2.628400e-01 4.239884e+02 
2.640600e-01 4.207814e+02 
2.652200e-01 4.177646e+02 
2.664300e-01 4.146535e+02 
2.676500e-01 4.115531e+02 
2.688400e-01 4.085541e+02 
2.700700e-01 4.054839e+02 
2.712400e-01 4.025965e+02 
2.724800e-01 3.995710e+02 
2.736700e-01 3.966940e+02 
2.748800e-01 3.937948e+02 
2.761000e-01 3.909045e+02 
2.773200e-01 3.880468e+02 
2.785400e-01 3.852168e+02 
2.797000e-01 3.825460e+02 
2.808900e-01 3.798355e+02 
2.821400e-01 3.770200e+02 
2.833900e-01 3.742358e+02 
2.845500e-01 3.716678e+02 
2.857800e-01 3.689742e+02 
2.870300e-01 3.662672e+02 
2.882100e-01 3.637395e+02 
2.893900e-01 3.612332e+02 
2.906300e-01 3.586250e+02 
2.918900e-01 3.560040e+02 
2.930500e-01 3.536167e+02 
2.942500e-01 3.511711e+02 
2.954200e-01 3.488069e+02 
2.966500e-01 3.463473e+02 
2.978900e-01 3.438943e+02 
2.990400e-01 3.416427e+02 
3.002700e-01 3.392566e+02 
3.015100e-01 3.368753e+02 
3.026800e-01 3.346515e+02 
3.038500e-01 3.324499e+02 
3.050300e-01 3.302515e+02 
3.062600e-01 3.279817e+02 
3.075000e-01 3.257172e+02 
3.087000e-01 3.235482e+02 
3.099100e-01 3.213831e+02 
3.111200e-01 3.192409e+02 
3.123100e-01 3.171571e+02 
3.135300e-01 3.150420e+02 
3.147300e-01 3.129822e+02 
3.159900e-01 3.108413e+02 
3.171800e-01 3.088420e+02 
3.183700e-01 3.068636e+02 
3.196300e-01 3.047897e+02 
3.208400e-01 3.028179e+02 
3.220300e-01 3.008973e+02 
3.232000e-01 2.990316e+02 
3.244300e-01 2.970908e+02 
3.256700e-01 2.951535e+02 
3.269200e-01 2.932197e+02 
3.280800e-01 2.914422e+02 
3.292500e-01 2.896723e+02 
3.304800e-01 2.878312e+02 
3.317100e-01 2.860077e+02 
3.328900e-01 2.842746e+02 
3.340700e-01 2.825575e+02 
3.353600e-01 2.807058e+02 
3.365300e-01 2.790453e+02 
3.377100e-01 2.773855e+02 
3.389200e-01 2.756991e+02 
3.401600e-01 2.739869e+02 
3.413700e-01 2.723390e+02 
3.425300e-01 2.707784e+02 
3.437700e-01 2.691251e+02 
3.449800e-01 2.675266e+02 
3.461800e-01 2.659556e+02 
3.473600e-01 2.644277e+02 
3.485800e-01 2.628705e+02 
3.498100e-01 2.613146e+02 
3.510200e-01 2.597977e+02 
3.522000e-01 2.583313e+02 
3.533900e-01 2.568653e+02 
3.546400e-01 2.553505e+02 
3.558400e-01 2.539099e+02 
3.570600e-01 2.524580e+02 
3.582700e-01 2.510306e+02 
3.595000e-01 2.495922e+02 
3.607100e-01 2.481957e+02 
3.618900e-01 2.468502e+02 
3.631200e-01 2.454597e+02 
3.643200e-01 2.441147e+02 
3.655500e-01 2.427478e+02 
3.667300e-01 2.414475e+02 
3.679500e-01 2.401264e+02 
3.691900e-01 2.387950e+02 
3.703600e-01 2.375493e+02 
3.715700e-01 2.362715e+02 
3.727700e-01 2.350148e+02 
3.739900e-01 2.337516e+02 
3.752000e-01 2.325159e+02 
3.763900e-01 2.313106e+02 
3.775800e-01 2.301149e+02 
3.788200e-01 2.288792e+02 
3.800300e-01 2.276834e+02 
3.812100e-01 2.265317e+02 
3.824200e-01 2.253637e+02 
3.836100e-01 2.242242e+02 
3.848600e-01 2.230369e+02 
3.860400e-01 2.219251e+02 
3.872400e-01 2.208032e+02 
3.884600e-01 2.196785e+02 
3.896500e-01 2.185925e+02 
3.908700e-01 2.174879e+02 
3.920600e-01 2.164188e+02 
3.933100e-01 2.153048e+02 
3.945300e-01 2.142261e+02 
3.957200e-01 2.131884e+02 
3.969300e-01 2.121433e+02 
3.981700e-01 2.110805e+02 
3.993500e-01 2.100770e+02 
4.094840e-01 2.017884e+02 
4.272360e-01 1.886179e+02 
4.454600e-01 1.765832e+02 
4.630560e-01 1.661668e+02 
4.804610e-01 1.568605e+02 
4.980690e-01 1.483150e+02 
5.159230e-01 1.404312e+02 
5.317440e-01 1.340233e+02 
5.489640e-01 1.276050e+02 
5.671990e-01 1.213725e+02 
5.838690e-01 1.161256e+02 
6.018840e-01 1.108922e+02 
6.202330e-01 1.059882e+02 
6.379250e-01 1.016140e+02 
6.545410e-01 9.780854e+01 
6.714560e-01 9.419363e+01 
6.892080e-01 9.066137e+01 
7.066010e-01 8.743974e+01 
7.240540e-01 8.441647e+01 
7.420450e-01 8.150933e+01 
7.593780e-01 7.888839e+01 
7.764720e-01 7.645721e+01 
7.942840e-01 7.407649e+01 
8.116170e-01 7.189785e+01 
8.288310e-01 6.985923e+01 
8.462240e-01 6.791173e+01 
8.631980e-01 6.611322e+01 
8.810700e-01 6.431906e+01 
8.989410e-01 6.262055e+01 
9.166330e-01 6.102490e+01 
9.345640e-01 5.948823e+01 
9.515980e-01 5.809937e+01 
9.688720e-01 5.675550e+01 
9.865640e-01 5.544263e+01 
1.031870e+00 5.233745e+01 
1.063490e+00 5.036567e+01 
1.097920e+00 4.837906e+01 
1.134370e+00 4.643349e+01 
1.167730e+00 4.478153e+01 
1.203830e+00 4.311528e+01 
1.240470e+00 4.153972e+01 
1.275790e+00 4.011895e+01 
1.309140e+00 3.885903e+01 
1.342970e+00 3.765153e+01 
1.378420e+00 3.645857e+01 
1.413200e+00 3.535262e+01 
1.448110e+00 3.430024e+01 
1.484090e+00 3.327386e+01 
1.518820e+00 3.233275e+01 
1.552880e+00 3.145342e+01 
1.588630e+00 3.057361e+01 
1.623230e+00 2.976252e+01 
1.657720e+00 2.899012e+01 
1.692450e+00 2.824630e+01 
1.726400e+00 2.754865e+01 
1.762200e+00 2.684353e+01 
1.797880e+00 2.617084e+01 
1.833270e+00 2.553082e+01 
1.869070e+00 2.490907e+01 
1.903200e+00 2.433934e+01 
1.937740e+00 2.378395e+01 
1.973190e+00 2.323486e+01 
2.007440e+00 2.272356e+01 
2.042160e+00 2.222360e+01 
2.077900e+00 2.172702e+01 
2.112390e+00 2.126435e+01 
2.146220e+00 2.082513e+01 
2.181600e+00 2.038103e+01 
2.216930e+00 1.995229e+01 
2.250760e+00 1.955485e+01 
2.286500e+00 1.914827e+01 
2.321770e+00 1.875985e+01 
2.355950e+00 1.839480e+01 
2.391280e+00 1.802848e+01 
2.426240e+00 1.767683e+01 
2.460670e+00 1.734085e+01 
2.495640e+00 1.700982e+01 
2.531080e+00 1.668340e+01 
2.566220e+00 1.636902e+01 
2.600830e+00 1.606818e+01 
2.635080e+00 1.577877e+01 
2.670340e+00 1.548801e+01 
2.705970e+00 1.520258e+01 
2.740040e+00 1.493719e+01 
2.774520e+00 1.467516e+01 
2.809730e+00 1.441434e+01 
2.844390e+00 1.416440e+01 
2.879960e+00 1.391419e+01 
2.914860e+00 1.367485e+01 
2.949410e+00 1.344408e+01 
2.984440e+00 1.321539e+01 
3.019760e+00 1.299065e+01 
3.054730e+00 1.277391e+01 
3.089030e+00 1.256546e+01 
3.124060e+00 1.235790e+01 
3.159560e+00 1.215261e+01 
3.194710e+00 1.195389e+01 
3.229010e+00 1.176474e+01 
3.263320e+00 1.157902e+01 
3.297930e+00 1.139620e+01 
3.332830e+00 1.121594e+01 
3.368040e+00 1.103802e+01 
3.403300e+00 1.086389e+01 
3.438450e+00 1.069383e+01 
3.473060e+00 1.053038e+01 
3.508440e+00 1.036639e+01 
3.543110e+00 1.020949e+01 
3.577470e+00 1.005671e+01 
3.613040e+00 9.902181e+00 
3.648120e+00 9.752896e+00 
3.682910e+00 9.607994e+00 
3.718050e+00 9.464363e+00 
3.753320e+00 9.323305e+00 
3.787980e+00 9.187467e+00 
3.822290e+00 9.055718e+00 
3.857020e+00 8.924837e+00 
3.891920e+00 8.795986e+00 
3.926650e+00 8.670078e+00 
3.961970e+00 8.544681e+00 
3.997360e+00 8.421305e+00 
4.031670e+00 8.304219e+00 
4.066330e+00 8.188017e+00 
4.101420e+00 8.072898e+00 
4.136200e+00 7.960492e+00 
4.170810e+00 7.851016e+00 
4.206250e+00 7.740841e+00 
4.241580e+00 7.633271e+00 
4.276300e+00 7.529357e+00 
4.310970e+00 7.427502e+00 
4.346120e+00 7.326194e+00 
4.380600e+00 7.228558e+00 
4.414730e+00 7.133833e+00 
4.450350e+00 7.036454e+00 
4.485320e+00 6.942794e+00 
4.519810e+00 6.851904e+00 
4.555430e+00 6.759747e+00 
4.590870e+00 6.669784e+00 
4.625480e+00 6.583423e+00 
4.659910e+00 6.499162e+00 
4.695230e+00 6.414009e+00 
4.729960e+00 6.331832e+00 
4.764450e+00 6.251617e+00 
4.799530e+00 6.171322e+00 
4.834910e+00 6.091879e+00 
4.869700e+00 6.014988e+00 
4.904370e+00 5.939740e+00 
4.939450e+00 5.864938e+00 
4.973940e+00 5.792556e+00 
5.008430e+00 5.721481e+00 
5.043810e+00 5.649713e+00 
5.078840e+00 5.579843e+00 
5.113500e+00 5.511948e+00 
5.148890e+00 5.443611e+00 
5.184210e+00 5.376623e+00 
5.219060e+00 5.311654e+00 
5.253660e+00 5.248152e+00 
5.288570e+00 5.185193e+00 
5.323420e+00 5.123352e+00 
5.358440e+00 5.062195e+00 
5.393590e+00 5.001868e+00 
5.428310e+00 4.943184e+00 
5.462800e+00 4.885810e+00 
5.497640e+00 4.828822e+00 
5.532670e+00 4.772376e+00 
5.567280e+00 4.717498e+00 
5.602000e+00 4.663351e+00 
5.637270e+00 4.609187e+00 
5.672410e+00 4.556097e+00 
5.707020e+00 4.504660e+00 
5.742040e+00 4.453383e+00 
5.777430e+00 4.402391e+00 
5.812210e+00 4.353086e+00 
5.846820e+00 4.304743e+00 
5.881610e+00 4.256900e+00 
5.916510e+00 4.209661e+00 
5.951600e+00 4.162865e+00 
5.986560e+00 4.116951e+00 
6.021830e+00 4.071354e+00 
6.056490e+00 4.027226e+00 
6.091160e+00 3.983748e+00 
6.125830e+00 3.940931e+00 
6.161090e+00 3.898047e+00 
6.195760e+00 3.856515e+00 
6.230420e+00 3.815618e+00 
6.265690e+00 3.774624e+00 
6.300950e+00 3.734236e+00 
6.335620e+00 3.695115e+00 
6.370880e+00 3.655917e+00 
6.405550e+00 3.617956e+00 
6.440220e+00 3.580554e+00 
6.475480e+00 3.543069e+00 
6.510150e+00 3.506744e+00 
6.544810e+00 3.470945e+00 
6.580080e+00 3.435039e+00 
6.614750e+00 3.400248e+00 
6.649410e+00 3.365999e+00 
6.684080e+00 3.332229e+00 
6.719340e+00 3.298369e+00 
6.754010e+00 3.265549e+00 
6.788680e+00 3.233198e+00 
6.823940e+00 3.200755e+00 
6.859800e+00 3.168223e+00 
6.894470e+00 3.137238e+00 
6.929140e+00 3.106686e+00 
6.963800e+00 3.076555e+00 
6.999070e+00 3.046313e+00 
7.033730e+00 3.017041e+00 
7.068400e+00 2.988150e+00 
7.103660e+00 2.959161e+00 
7.138330e+00 2.931057e+00 
7.173600e+00 2.902886e+00 
7.208260e+00 2.875569e+00 
7.243530e+00 2.848136e+00 
7.277600e+00 2.822007e+00 
7.312860e+00 2.795339e+00 
7.348120e+00 2.769019e+00 
7.382790e+00 2.743474e+00 
7.417460e+00 2.718292e+00 
7.452720e+00 2.693029e+00 
7.487390e+00 2.668504e+00 
7.522650e+00 2.643878e+00 
7.557320e+00 2.620026e+00 
7.591990e+00 2.596491e+00 
7.627250e+00 2.572855e+00 
7.662510e+00 2.549516e+00 
7.697180e+00 2.526901e+00 
7.731850e+00 2.504581e+00 
7.766510e+00 2.482539e+00 
7.801180e+00 2.460759e+00 
7.836440e+00 2.438929e+00 
7.871110e+00 2.417756e+00 
7.906380e+00 2.396477e+00 
7.941040e+00 2.375818e+00 
7.976310e+00 2.355073e+00 
8.011570e+00 2.334613e+00 
8.046240e+00 2.314734e+00 
8.080900e+00 2.295094e+00 
8.115570e+00 2.275696e+00 
8.150830e+00 2.256267e+00 
8.185500e+00 2.237386e+00 
8.220770e+00 2.218401e+00 
8.255430e+00 2.199961e+00 
8.290100e+00 2.181785e+00 
8.324770e+00 2.163822e+00 
8.359430e+00 2.146069e+00 
8.394700e+00 2.128208e+00 
8.429960e+00 2.110599e+00 
8.464630e+00 2.093521e+00 
8.499890e+00 2.076347e+00 
8.534560e+00 2.059650e+00 
8.569200e+00 2.043153e+00 
