# Parameters:
# omega_b = 0.022287, omega_m = 0.123031, n_s = 0.857874, h = 84.055118, w = -1.000000, sigma_8 = 0.747244
# z = 1.300000
#
# k[1/Mpc] # P(k):
8.694000e-04 9.223380e+03 
2.077466e-03 1.759546e+04 
3.285532e-03 2.335268e+04 
4.493598e-03 2.726192e+04 
5.701664e-03 2.977102e+04 
6.909730e-03 3.121167e+04 
8.117797e-03 3.188257e+04 
9.325863e-03 3.193620e+04 
1.053393e-02 3.150995e+04 
1.174199e-02 3.071986e+04 
1.295006e-02 2.964026e+04 
1.415813e-02 2.836316e+04 
1.536619e-02 2.696190e+04 
1.657426e-02 2.548272e+04 
1.778233e-02 2.395327e+04 
1.899039e-02 2.242400e+04 
2.019846e-02 2.095282e+04 
2.140652e-02 1.958112e+04 
2.261459e-02 1.831215e+04 
2.382266e-02 1.715138e+04 
2.503072e-02 1.610245e+04 
2.623879e-02 1.516269e+04 
2.744685e-02 1.432964e+04 
2.865492e-02 1.359580e+04 
2.986299e-02 1.295183e+04 
3.100100e-02 1.242257e+04 
3.220400e-02 1.193428e+04 
3.288100e-02 1.169010e+04 
3.424300e-02 1.125311e+04 
3.555100e-02 1.088959e+04 
3.686000e-02 1.057092e+04 
3.795000e-02 1.033131e+04 
3.929100e-02 1.006080e+04 
4.039800e-02 9.849147e+03 
4.164000e-02 9.618606e+03 
4.294400e-02 9.372845e+03 
4.415000e-02 9.143452e+03 
4.542900e-02 8.886177e+03 
4.660900e-02 8.642325e+03 
4.782300e-02 8.372100e+03 
4.892900e-02 8.118999e+03 
5.031200e-02 7.790402e+03 
5.155900e-02 7.484097e+03 
5.238100e-02 7.279814e+03 
5.378200e-02 6.930777e+03 
5.513400e-02 6.595382e+03 
5.627600e-02 6.316819e+03 
5.735300e-02 6.060774e+03 
5.870100e-02 5.751889e+03 
5.988700e-02 5.493439e+03 
6.113500e-02 5.236674e+03 
6.225900e-02 5.021288e+03 
6.340100e-02 4.819671e+03 
6.480200e-02 4.595692e+03 
6.601100e-02 4.426373e+03 
6.725500e-02 4.273806e+03 
6.829100e-02 4.164403e+03 
6.958600e-02 4.044275e+03 
7.071100e-02 3.955455e+03 
7.192300e-02 3.872704e+03 
7.307400e-02 3.804616e+03 
7.412300e-02 3.749818e+03 
7.550400e-02 3.686771e+03 
7.663100e-02 3.640133e+03 
7.791200e-02 3.591238e+03 
7.912700e-02 3.546078e+03 
8.027600e-02 3.503025e+03 
8.138400e-02 3.460390e+03 
8.272200e-02 3.406115e+03 
8.406100e-02 3.347823e+03 
8.534100e-02 3.286175e+03 
8.653800e-02 3.223252e+03 
8.759800e-02 3.164635e+03 
8.900300e-02 3.082331e+03 
9.009000e-02 3.014934e+03 
9.113300e-02 2.947352e+03 
9.239600e-02 2.864323e+03 
9.358000e-02 2.784926e+03 
9.496100e-02 2.691108e+03 
9.608400e-02 2.615829e+03 
9.727500e-02 2.537522e+03 
9.852600e-02 2.457161e+03 
9.973800e-02 2.382686e+03 
1.009000e-01 2.314251e+03 
1.020900e-01 2.249324e+03 
1.034000e-01 2.182369e+03 
1.046000e-01 2.125292e+03 
1.057200e-01 2.078129e+03 
1.069100e-01 2.031253e+03 
1.082500e-01 1.985324e+03 
1.093900e-01 1.950795e+03 
1.105400e-01 1.918841e+03 
1.116900e-01 1.892160e+03 
1.129600e-01 1.864885e+03 
1.142000e-01 1.842328e+03 
1.153300e-01 1.823210e+03 
1.166400e-01 1.803047e+03 
1.177800e-01 1.786321e+03 
1.190000e-01 1.769041e+03 
1.201200e-01 1.752494e+03 
1.213400e-01 1.734711e+03 
1.227100e-01 1.712133e+03 
1.238900e-01 1.692332e+03 
1.250700e-01 1.670185e+03 
1.263200e-01 1.646065e+03 
1.275500e-01 1.620210e+03 
1.287500e-01 1.594245e+03 
1.299900e-01 1.565942e+03 
1.311300e-01 1.539521e+03 
1.323500e-01 1.510385e+03 
1.335900e-01 1.480877e+03 
1.347100e-01 1.454024e+03 
1.359800e-01 1.424126e+03 
1.372100e-01 1.395502e+03 
1.384300e-01 1.367908e+03 
1.395700e-01 1.342917e+03 
1.407700e-01 1.317326e+03 
1.420300e-01 1.291953e+03 
1.432800e-01 1.267412e+03 
1.444500e-01 1.246212e+03 
1.456300e-01 1.225312e+03 
1.468900e-01 1.204635e+03 
1.480500e-01 1.186356e+03 
1.491700e-01 1.169661e+03 
1.503800e-01 1.152748e+03 
1.516400e-01 1.135744e+03 
1.528200e-01 1.121164e+03 
1.540200e-01 1.106631e+03 
1.551900e-01 1.093495e+03 
1.564300e-01 1.080027e+03 
1.576600e-01 1.067194e+03 
1.588700e-01 1.055129e+03 
1.600900e-01 1.043203e+03 
1.612700e-01 1.032047e+03 
1.625400e-01 1.020265e+03 
1.637600e-01 1.009023e+03 
1.649500e-01 9.981758e+02 
1.662200e-01 9.867329e+02 
1.674000e-01 9.758479e+02 
1.685000e-01 9.658739e+02 
1.697500e-01 9.543843e+02 
1.710300e-01 9.424886e+02 
1.722200e-01 9.316325e+02 
1.734400e-01 9.199950e+02 
1.746400e-01 9.087266e+02 
1.758700e-01 8.972004e+02 
1.770900e-01 8.856003e+02 
1.782700e-01 8.745824e+02 
1.794600e-01 8.634618e+02 
1.807000e-01 8.519461e+02 
1.819100e-01 8.409144e+02 
1.830100e-01 8.309912e+02 
1.842200e-01 8.202508e+02 
1.855000e-01 8.091034e+02 
1.867000e-01 7.989855e+02 
1.879200e-01 7.888788e+02 
1.890900e-01 7.793998e+02 
1.902800e-01 7.701648e+02 
1.915200e-01 7.607057e+02 
1.926900e-01 7.520162e+02 
1.939000e-01 7.434558e+02 
1.951700e-01 7.346220e+02 
1.963100e-01 7.269088e+02 
1.975100e-01 7.191506e+02 
1.987800e-01 7.110729e+02 
2.000100e-01 7.034525e+02 
2.012500e-01 6.960676e+02 
2.023400e-01 6.896726e+02 
2.036100e-01 6.823607e+02 
2.048900e-01 6.752169e+02 
2.060400e-01 6.688958e+02 
2.072200e-01 6.625058e+02 
2.084200e-01 6.561312e+02 
2.096900e-01 6.494867e+02 
2.109200e-01 6.431494e+02 
2.121100e-01 6.370561e+02 
2.132700e-01 6.311981e+02 
2.145200e-01 6.249769e+02 
2.157200e-01 6.190346e+02 
2.168800e-01 6.133446e+02 
2.180700e-01 6.075890e+02 
2.193400e-01 6.015038e+02 
2.206000e-01 5.954973e+02 
2.217500e-01 5.900928e+02 
2.229500e-01 5.845307e+02 
2.241400e-01 5.790280e+02 
2.253500e-01 5.735091e+02 
2.264900e-01 5.683801e+02 
2.277100e-01 5.629539e+02 
2.289900e-01 5.573292e+02 
2.301500e-01 5.523028e+02 
2.313600e-01 5.471303e+02 
2.325600e-01 5.420834e+02 
2.337700e-01 5.370633e+02 
2.350000e-01 5.320298e+02 
2.362000e-01 5.272045e+02 
2.374100e-01 5.224262e+02 
2.386500e-01 5.175954e+02 
2.399100e-01 5.127537e+02 
2.410400e-01 5.085187e+02 
2.422500e-01 5.040475e+02 
2.435000e-01 4.994893e+02 
2.447300e-01 4.950758e+02 
2.458700e-01 4.910861e+02 
2.470600e-01 4.869724e+02 
2.483300e-01 4.826387e+02 
2.495600e-01 4.785187e+02 
2.507600e-01 4.745806e+02 
2.519600e-01 4.706911e+02 
2.532200e-01 4.666585e+02 
2.543700e-01 4.630468e+02 
2.555500e-01 4.594007e+02 
2.568000e-01 4.555854e+02 
2.580100e-01 4.519377e+02 
2.592400e-01 4.482930e+02 
2.604100e-01 4.448752e+02 
2.616100e-01 4.414107e+02 
2.628400e-01 4.379020e+02 
2.640600e-01 4.344710e+02 
2.652200e-01 4.312496e+02 
2.664300e-01 4.279279e+02 
2.676500e-01 4.246179e+02 
2.688400e-01 4.214258e+02 
2.700700e-01 4.181642e+02 
2.712400e-01 4.150971e+02 
2.724800e-01 4.118836e+02 
2.736700e-01 4.088334e+02 
2.748800e-01 4.057651e+02 
2.761000e-01 4.027066e+02 
2.773200e-01 3.996829e+02 
2.785400e-01 3.966907e+02 
2.797000e-01 3.938714e+02 
2.808900e-01 3.910105e+02 
2.821400e-01 3.880389e+02 
2.833900e-01 3.851008e+02 
2.845500e-01 3.823943e+02 
2.857800e-01 3.795557e+02 
2.870300e-01 3.767032e+02 
2.882100e-01 3.740399e+02 
2.893900e-01 3.714011e+02 
2.906300e-01 3.686562e+02 
2.918900e-01 3.658981e+02 
2.930500e-01 3.633861e+02 
2.942500e-01 3.608137e+02 
2.954200e-01 3.583293e+02 
2.966500e-01 3.557449e+02 
2.978900e-01 3.531676e+02 
2.990400e-01 3.508022e+02 
3.002700e-01 3.482981e+02 
3.015100e-01 3.458003e+02 
3.026800e-01 3.434679e+02 
3.038500e-01 3.411590e+02 
3.050300e-01 3.388537e+02 
3.062600e-01 3.364776e+02 
3.075000e-01 3.341073e+02 
3.087000e-01 3.318371e+02 
3.099100e-01 3.295711e+02 
3.111200e-01 3.273308e+02 
3.123100e-01 3.251542e+02 
3.135300e-01 3.229450e+02 
3.147300e-01 3.207938e+02 
3.159900e-01 3.185579e+02 
3.171800e-01 3.164728e+02 
3.183700e-01 3.144114e+02 
3.196300e-01 3.122506e+02 
3.208400e-01 3.101962e+02 
3.220300e-01 3.081955e+02 
3.232000e-01 3.062541e+02 
3.244300e-01 3.042355e+02 
3.256700e-01 3.022205e+02 
3.269200e-01 3.002095e+02 
3.280800e-01 2.983610e+02 
3.292500e-01 2.965224e+02 
3.304800e-01 2.946105e+02 
3.317100e-01 2.927170e+02 
3.328900e-01 2.909175e+02 
3.340700e-01 2.891345e+02 
3.353600e-01 2.872132e+02 
3.365300e-01 2.854907e+02 
3.377100e-01 2.837691e+02 
3.389200e-01 2.820198e+02 
3.401600e-01 2.802440e+02 
3.413700e-01 2.785349e+02 
3.425300e-01 2.769165e+02 
3.437700e-01 2.752020e+02 
3.449800e-01 2.735445e+02 
3.461800e-01 2.719154e+02 
3.473600e-01 2.703311e+02 
3.485800e-01 2.687157e+02 
3.498100e-01 2.671019e+02 
3.510200e-01 2.655286e+02 
3.522000e-01 2.640077e+02 
3.533900e-01 2.624873e+02 
3.546400e-01 2.609146e+02 
3.558400e-01 2.594187e+02 
3.570600e-01 2.579112e+02 
3.582700e-01 2.564292e+02 
3.595000e-01 2.549359e+02 
3.607100e-01 2.534849e+02 
3.618900e-01 2.520860e+02 
3.631200e-01 2.506403e+02 
3.643200e-01 2.492420e+02 
3.655500e-01 2.478210e+02 
3.667300e-01 2.464693e+02 
3.679500e-01 2.450931e+02 
3.691900e-01 2.437064e+02 
3.703600e-01 2.424089e+02 
3.715700e-01 2.410781e+02 
3.727700e-01 2.397693e+02 
3.739900e-01 2.384525e+02 
3.752000e-01 2.371625e+02 
3.763900e-01 2.359042e+02 
3.775800e-01 2.346562e+02 
3.788200e-01 2.333664e+02 
3.800300e-01 2.321182e+02 
3.812100e-01 2.309145e+02 
3.824200e-01 2.296926e+02 
3.836100e-01 2.285005e+02 
3.848600e-01 2.272585e+02 
3.860400e-01 2.260956e+02 
3.872400e-01 2.249223e+02 
3.884600e-01 2.237437e+02 
3.896500e-01 2.226051e+02 
3.908700e-01 2.214470e+02 
3.920600e-01 2.203263e+02 
3.933100e-01 2.191584e+02 
3.945300e-01 2.180278e+02 
3.957200e-01 2.169378e+02 
3.969300e-01 2.158394e+02 
3.981700e-01 2.147226e+02 
3.993500e-01 2.136682e+02 
4.094840e-01 2.049534e+02 
4.272360e-01 1.910704e+02 
4.454600e-01 1.783844e+02 
4.630560e-01 1.674249e+02 
4.804610e-01 1.576671e+02 
4.980690e-01 1.487481e+02 
5.159230e-01 1.405603e+02 
5.317440e-01 1.339362e+02 
5.489640e-01 1.273309e+02 
5.671990e-01 1.209457e+02 
5.838690e-01 1.155886e+02 
6.018840e-01 1.102611e+02 
6.202330e-01 1.052820e+02 
6.379250e-01 1.008483e+02 
6.545410e-01 9.699682e+01 
6.714560e-01 9.334101e+01 
6.892080e-01 8.977140e+01 
7.066010e-01 8.651661e+01 
7.240540e-01 8.346316e+01 
7.420450e-01 8.052642e+01 
7.593780e-01 7.787807e+01 
7.764720e-01 7.542156e+01 
7.942840e-01 7.301528e+01 
8.116170e-01 7.081259e+01 
8.288310e-01 6.875058e+01 
8.462240e-01 6.678058e+01 
8.631980e-01 6.496066e+01 
8.810700e-01 6.314490e+01 
8.989410e-01 6.142544e+01 
9.166330e-01 5.981003e+01 
9.345640e-01 5.825489e+01 
9.515980e-01 5.684884e+01 
9.688720e-01 5.548837e+01 
9.865640e-01 5.415946e+01 
1.031870e+00 5.101792e+01 
1.063490e+00 4.902485e+01 
1.097920e+00 4.701826e+01 
1.134370e+00 4.505528e+01 
1.167730e+00 4.339027e+01 
1.203830e+00 4.171319e+01 
1.240470e+00 4.012940e+01 
1.275790e+00 3.870387e+01 
1.309140e+00 3.744111e+01 
1.342970e+00 3.623312e+01 
1.378420e+00 3.504118e+01 
1.413200e+00 3.393805e+01 
1.448110e+00 3.289044e+01 
1.484090e+00 3.186969e+01 
1.518820e+00 3.093551e+01 
1.552880e+00 3.006431e+01 
1.588630e+00 2.919400e+01 
1.623230e+00 2.839273e+01 
1.657720e+00 2.763046e+01 
1.692450e+00 2.689786e+01 
1.726400e+00 2.621190e+01 
1.762200e+00 2.551943e+01 
1.797880e+00 2.485972e+01 
1.833270e+00 2.423285e+01 
1.869070e+00 2.362474e+01 
1.903200e+00 2.306821e+01 
1.937740e+00 2.252644e+01 
1.973190e+00 2.199146e+01 
2.007440e+00 2.149397e+01 
2.042160e+00 2.100805e+01 
2.077900e+00 2.052585e+01 
2.112390e+00 2.007728e+01 
2.146220e+00 1.965182e+01 
2.181600e+00 1.922214e+01 
2.216930e+00 1.880775e+01 
2.250760e+00 1.842399e+01 
2.286500e+00 1.803177e+01 
2.321770e+00 1.765743e+01 
2.355950e+00 1.730605e+01 
2.391280e+00 1.695371e+01 
2.426240e+00 1.661580e+01 
2.460670e+00 1.629323e+01 
2.495640e+00 1.597563e+01 
2.531080e+00 1.566277e+01 
2.566220e+00 1.536165e+01 
2.600830e+00 1.507373e+01 
2.635080e+00 1.479698e+01 
2.670340e+00 1.451931e+01 
2.705970e+00 1.424682e+01 
2.740040e+00 1.399357e+01 
2.774520e+00 1.374371e+01 
2.809730e+00 1.349521e+01 
2.844390e+00 1.325724e+01 
2.879960e+00 1.301924e+01 
2.914860e+00 1.279166e+01 
2.949410e+00 1.257231e+01 
2.984440e+00 1.235516e+01 
3.019760e+00 1.214181e+01 
3.054730e+00 1.193611e+01 
3.089030e+00 1.173853e+01 
3.124060e+00 1.154186e+01 
3.159560e+00 1.134739e+01 
3.194710e+00 1.115929e+01 
3.229010e+00 1.098031e+01 
3.263320e+00 1.080469e+01 
3.297930e+00 1.063187e+01 
3.332830e+00 1.046154e+01 
3.368040e+00 1.029350e+01 
3.403300e+00 1.012910e+01 
3.438450e+00 9.968663e+00 
3.473060e+00 9.814500e+00 
3.508440e+00 9.659868e+00 
3.543110e+00 9.511951e+00 
3.577470e+00 9.368070e+00 
3.613040e+00 9.222553e+00 
3.648120e+00 9.081966e+00 
3.682910e+00 8.945562e+00 
3.718050e+00 8.810448e+00 
3.753320e+00 8.677781e+00 
3.787980e+00 8.550055e+00 
3.822290e+00 8.426200e+00 
3.857020e+00 8.303199e+00 
3.891920e+00 8.182138e+00 
3.926650e+00 8.063894e+00 
3.961970e+00 7.946154e+00 
3.997360e+00 7.830365e+00 
4.031670e+00 7.720488e+00 
4.066330e+00 7.611465e+00 
4.101420e+00 7.503465e+00 
4.136200e+00 7.398055e+00 
4.170810e+00 7.295397e+00 
4.206250e+00 7.192101e+00 
4.241580e+00 7.091255e+00 
4.276300e+00 6.993880e+00 
4.310970e+00 6.898462e+00 
4.346120e+00 6.803568e+00 
4.380600e+00 6.712128e+00 
4.414730e+00 6.623420e+00 
4.450350e+00 6.532251e+00 
4.485320e+00 6.444569e+00 
4.519810e+00 6.359503e+00 
4.555430e+00 6.273264e+00 
4.590870e+00 6.189085e+00 
4.625480e+00 6.108291e+00 
4.659910e+00 6.029466e+00 
4.695230e+00 5.949831e+00 
4.729960e+00 5.872988e+00 
4.764450e+00 5.797993e+00 
4.799530e+00 5.722941e+00 
4.834910e+00 5.648689e+00 
4.869700e+00 5.576827e+00 
4.904370e+00 5.506504e+00 
4.939450e+00 5.436604e+00 
4.973940e+00 5.368977e+00 
5.008430e+00 5.302575e+00 
5.043810e+00 5.235531e+00 
5.078840e+00 5.170265e+00 
5.113500e+00 5.106848e+00 
5.148890e+00 5.043042e+00 
5.184210e+00 4.980500e+00 
5.219060e+00 4.919846e+00 
5.253660e+00 4.860566e+00 
5.288570e+00 4.801796e+00 
5.323420e+00 4.744072e+00 
5.358440e+00 4.686988e+00 
5.393590e+00 4.630681e+00 
5.428310e+00 4.575919e+00 
5.462800e+00 4.522388e+00 
5.497640e+00 4.469220e+00 
5.532670e+00 4.416567e+00 
5.567280e+00 4.365383e+00 
5.602000e+00 4.314884e+00 
5.637270e+00 4.264372e+00 
5.672410e+00 4.214865e+00 
5.707020e+00 4.166901e+00 
5.742040e+00 4.119096e+00 
5.777430e+00 4.071562e+00 
5.812210e+00 4.025602e+00 
5.846820e+00 3.980540e+00 
5.881610e+00 3.935946e+00 
5.916510e+00 3.891919e+00 
5.951600e+00 3.848309e+00 
5.986560e+00 3.805526e+00 
6.021830e+00 3.763041e+00 
6.056490e+00 3.721931e+00 
6.091160e+00 3.681434e+00 
6.125830e+00 3.641553e+00 
6.161090e+00 3.601613e+00 
6.195760e+00 3.562934e+00 
6.230420e+00 3.524847e+00 
6.265690e+00 3.486674e+00 
6.300950e+00 3.449078e+00 
6.335620e+00 3.412662e+00 
6.370880e+00 3.376177e+00 
6.405550e+00 3.340844e+00 
6.440220e+00 3.306032e+00 
6.475480e+00 3.271145e+00 
6.510150e+00 3.237341e+00 
6.544810e+00 3.204033e+00 
6.580080e+00 3.170628e+00 
6.614750e+00 3.138263e+00 
6.649410e+00 3.106406e+00 
6.684080e+00 3.074998e+00 
6.719340e+00 3.043506e+00 
6.754010e+00 3.012987e+00 
6.788680e+00 2.982912e+00 
6.823940e+00 2.952752e+00 
6.859800e+00 2.922511e+00 
6.894470e+00 2.893714e+00 
6.929140e+00 2.865322e+00 
6.963800e+00 2.837322e+00 
6.999070e+00 2.809221e+00 
7.033730e+00 2.782024e+00 
7.068400e+00 2.755183e+00 
7.103660e+00 2.728252e+00 
7.138330e+00 2.702145e+00 
7.173600e+00 2.675982e+00 
7.208260e+00 2.650611e+00 
7.243530e+00 2.625134e+00 
7.277600e+00 2.600875e+00 
7.312860e+00 2.576121e+00 
7.348120e+00 2.551692e+00 
7.382790e+00 2.527982e+00 
7.417460e+00 2.504617e+00 
7.452720e+00 2.481180e+00 
7.487390e+00 2.458429e+00 
7.522650e+00 2.435586e+00 
7.557320e+00 2.413463e+00 
7.591990e+00 2.391637e+00 
7.627250e+00 2.369718e+00 
7.662510e+00 2.348075e+00 
7.697180e+00 2.327109e+00 
7.731850e+00 2.306420e+00 
7.766510e+00 2.285989e+00 
7.801180e+00 2.265801e+00 
7.836440e+00 2.245571e+00 
7.871110e+00 2.225952e+00 
7.906380e+00 2.206235e+00 
7.941040e+00 2.187093e+00 
7.976310e+00 2.167877e+00 
8.011570e+00 2.148931e+00 
8.046240e+00 2.130524e+00 
8.080900e+00 2.112339e+00 
8.115570e+00 2.094379e+00 
8.150830e+00 2.076393e+00 
8.185500e+00 2.058915e+00 
8.220770e+00 2.041343e+00 
8.255430e+00 2.024274e+00 
8.290100e+00 2.007460e+00 
8.324770e+00 1.990846e+00 
8.359430e+00 1.974425e+00 
8.394700e+00 1.957906e+00 
8.429960e+00 1.941622e+00 
8.464630e+00 1.925834e+00 
8.499890e+00 1.909959e+00 
8.534560e+00 1.894524e+00 
8.569200e+00 1.879274e+00 
