# Parameters:
# omega_b = 0.022823, omega_m = 0.145906, n_s = 1.009055, h = 63.503937, w = -1.000000, sigma_8 = 0.720472
# z = 1.300000
#
# k[1/Mpc] # P(k):
8.694000e-04 2.758902e+03 
2.077466e-03 6.154275e+03 
3.285532e-03 8.924422e+03 
4.493598e-03 1.113833e+04 
5.701664e-03 1.285133e+04 
6.909730e-03 1.412707e+04 
8.117797e-03 1.504928e+04 
9.325863e-03 1.566096e+04 
1.053393e-02 1.600854e+04 
1.174199e-02 1.613668e+04 
1.295006e-02 1.607349e+04 
1.415813e-02 1.585846e+04 
1.536619e-02 1.552656e+04 
1.657426e-02 1.510219e+04 
1.778233e-02 1.461060e+04 
1.899039e-02 1.408772e+04 
2.019846e-02 1.354486e+04 
2.140652e-02 1.299427e+04 
2.261459e-02 1.244672e+04 
2.382266e-02 1.191599e+04 
2.503072e-02 1.141171e+04 
2.623879e-02 1.093822e+04 
2.744685e-02 1.049733e+04 
2.865492e-02 1.009224e+04 
2.986299e-02 9.722536e+03 
3.100100e-02 9.406384e+03 
3.220400e-02 9.104507e+03 
3.288100e-02 8.949064e+03 
3.424300e-02 8.664404e+03 
3.555100e-02 8.421935e+03 
3.686000e-02 8.206112e+03 
3.795000e-02 8.043115e+03 
3.929100e-02 7.860694e+03 
4.039800e-02 7.720909e+03 
4.164000e-02 7.572153e+03 
4.294400e-02 7.420136e+03 
4.415000e-02 7.282141e+03 
4.542900e-02 7.132479e+03 
4.660900e-02 6.992891e+03 
4.782300e-02 6.840298e+03 
4.892900e-02 6.697391e+03 
5.031200e-02 6.510729e+03 
5.155900e-02 6.333941e+03 
5.238100e-02 6.214118e+03 
5.378200e-02 6.005518e+03 
5.513400e-02 5.799450e+03 
5.627600e-02 5.623963e+03 
5.735300e-02 5.459433e+03 
5.870100e-02 5.257007e+03 
5.988700e-02 5.084450e+03 
6.113500e-02 4.909507e+03 
6.225900e-02 4.758800e+03 
6.340100e-02 4.613021e+03 
6.480200e-02 4.444487e+03 
6.601100e-02 4.309027e+03 
6.725500e-02 4.179321e+03 
6.829100e-02 4.079658e+03 
6.958600e-02 3.964264e+03 
7.071100e-02 3.873140e+03 
7.192300e-02 3.783674e+03 
7.307400e-02 3.706585e+03 
7.412300e-02 3.642463e+03 
7.550400e-02 3.566817e+03 
7.663100e-02 3.510655e+03 
7.791200e-02 3.453296e+03 
7.912700e-02 3.403542e+03 
8.027600e-02 3.359356e+03 
8.138400e-02 3.318624e+03 
8.272200e-02 3.271054e+03 
8.406100e-02 3.224171e+03 
8.534100e-02 3.178641e+03 
8.653800e-02 3.134571e+03 
8.759800e-02 3.094516e+03 
8.900300e-02 3.039316e+03 
9.009000e-02 2.994426e+03 
9.113300e-02 2.949104e+03 
9.239600e-02 2.892834e+03 
9.358000e-02 2.838023e+03 
9.496100e-02 2.771221e+03 
9.608400e-02 2.716123e+03 
9.727500e-02 2.657513e+03 
9.852600e-02 2.594164e+03 
9.973800e-02 2.533675e+03 
1.009000e-01 2.476597e+03 
1.020900e-01 2.418868e+03 
1.034000e-01 2.357438e+03 
1.046000e-01 2.303095e+03 
1.057200e-01 2.254916e+03 
1.069100e-01 2.205765e+03 
1.082500e-01 2.154014e+03 
1.093900e-01 2.112894e+03 
1.105400e-01 2.073456e+03 
1.116900e-01 2.037645e+03 
1.129600e-01 2.000118e+03 
1.142000e-01 1.967005e+03 
1.153300e-01 1.938655e+03 
1.166400e-01 1.908266e+03 
1.177800e-01 1.883907e+03 
1.190000e-01 1.859131e+03 
1.201200e-01 1.838090e+03 
1.213400e-01 1.815919e+03 
1.227100e-01 1.792525e+03 
1.238900e-01 1.772903e+03 
1.250700e-01 1.753727e+03 
1.263200e-01 1.733686e+03 
1.275500e-01 1.713977e+03 
1.287500e-01 1.694725e+03 
1.299900e-01 1.674547e+03 
1.311300e-01 1.655753e+03 
1.323500e-01 1.635092e+03 
1.335900e-01 1.613780e+03 
1.347100e-01 1.593907e+03 
1.359800e-01 1.571204e+03 
1.372100e-01 1.548392e+03 
1.384300e-01 1.525787e+03 
1.395700e-01 1.503961e+03 
1.407700e-01 1.481365e+03 
1.420300e-01 1.456970e+03 
1.432800e-01 1.433333e+03 
1.444500e-01 1.411035e+03 
1.456300e-01 1.389037e+03 
1.468900e-01 1.366117e+03 
1.480500e-01 1.345494e+03 
1.491700e-01 1.326247e+03 
1.503800e-01 1.306210e+03 
1.516400e-01 1.285994e+03 
1.528200e-01 1.268320e+03 
1.540200e-01 1.250711e+03 
1.551900e-01 1.234862e+03 
1.564300e-01 1.218635e+03 
1.576600e-01 1.203383e+03 
1.588700e-01 1.189298e+03 
1.600900e-01 1.175413e+03 
1.612700e-01 1.163082e+03 
1.625400e-01 1.150059e+03 
1.637600e-01 1.138069e+03 
1.649500e-01 1.126753e+03 
1.662200e-01 1.114903e+03 
1.674000e-01 1.104128e+03 
1.685000e-01 1.094251e+03 
1.697500e-01 1.083050e+03 
1.710300e-01 1.071622e+03 
1.722200e-01 1.061186e+03 
1.734400e-01 1.050127e+03 
1.746400e-01 1.039414e+03 
1.758700e-01 1.028423e+03 
1.770900e-01 1.017301e+03 
1.782700e-01 1.006727e+03 
1.794600e-01 9.959288e+02 
1.807000e-01 9.846592e+02 
1.819100e-01 9.738515e+02 
1.830100e-01 9.638984e+02 
1.842200e-01 9.530779e+02 
1.855000e-01 9.418237e+02 
1.867000e-01 9.313119e+02 
1.879200e-01 9.208037e+02 
1.890900e-01 9.108966e+02 
1.902800e-01 9.010084e+02 
1.915200e-01 8.908745e+02 
1.926900e-01 8.815088e+02 
1.939000e-01 8.721097e+02 
1.951700e-01 8.624065e+02 
1.963100e-01 8.538951e+02 
1.975100e-01 8.452343e+02 
1.987800e-01 8.362143e+02 
2.000100e-01 8.276905e+02 
2.012500e-01 8.193995e+02 
2.023400e-01 8.122182e+02 
2.036100e-01 8.040145e+02 
2.048900e-01 7.960316e+02 
2.060400e-01 7.889664e+02 
2.072200e-01 7.818298e+02 
2.084200e-01 7.747947e+02 
2.096900e-01 7.674597e+02 
2.109200e-01 7.604618e+02 
2.121100e-01 7.538319e+02 
2.132700e-01 7.474609e+02 
2.145200e-01 7.406928e+02 
2.157200e-01 7.342848e+02 
2.168800e-01 7.281736e+02 
2.180700e-01 7.219894e+02 
2.193400e-01 7.154647e+02 
2.206000e-01 7.090513e+02 
2.217500e-01 7.032781e+02 
2.229500e-01 6.973340e+02 
2.241400e-01 6.914507e+02 
2.253500e-01 6.855474e+02 
2.264900e-01 6.800587e+02 
2.277100e-01 6.742282e+02 
2.289900e-01 6.681582e+02 
2.301500e-01 6.627313e+02 
2.313600e-01 6.571436e+02 
2.325600e-01 6.516178e+02 
2.337700e-01 6.461191e+02 
2.350000e-01 6.406035e+02 
2.362000e-01 6.352764e+02 
2.374100e-01 6.299550e+02 
2.386500e-01 6.245731e+02 
2.399100e-01 6.191772e+02 
2.410400e-01 6.143885e+02 
2.422500e-01 6.093227e+02 
2.435000e-01 6.041571e+02 
2.447300e-01 5.991421e+02 
2.458700e-01 5.945602e+02 
2.470600e-01 5.898351e+02 
2.483300e-01 5.848561e+02 
2.495600e-01 5.801048e+02 
2.507600e-01 5.755392e+02 
2.519600e-01 5.710292e+02 
2.532200e-01 5.663525e+02 
2.543700e-01 5.621559e+02 
2.555500e-01 5.579135e+02 
2.568000e-01 5.534737e+02 
2.580100e-01 5.492282e+02 
2.592400e-01 5.449899e+02 
2.604100e-01 5.410170e+02 
2.616100e-01 5.369891e+02 
2.628400e-01 5.329091e+02 
2.640600e-01 5.289347e+02 
2.652200e-01 5.252087e+02 
2.664300e-01 5.213659e+02 
2.676500e-01 5.175360e+02 
2.688400e-01 5.138592e+02 
2.700700e-01 5.101122e+02 
2.712400e-01 5.065879e+02 
2.724800e-01 5.028947e+02 
2.736700e-01 4.994017e+02 
2.748800e-01 4.959009e+02 
2.761000e-01 4.924105e+02 
2.773200e-01 4.889590e+02 
2.785400e-01 4.855499e+02 
2.797000e-01 4.823520e+02 
2.808900e-01 4.791062e+02 
2.821400e-01 4.757341e+02 
2.833900e-01 4.723998e+02 
2.845500e-01 4.693435e+02 
2.857800e-01 4.661371e+02 
2.870300e-01 4.629141e+02 
2.882100e-01 4.599042e+02 
2.893900e-01 4.569273e+02 
2.906300e-01 4.538332e+02 
2.918900e-01 4.507233e+02 
2.930500e-01 4.478901e+02 
2.942500e-01 4.449887e+02 
2.954200e-01 4.421875e+02 
2.966500e-01 4.392729e+02 
2.978900e-01 4.363654e+02 
2.990400e-01 4.336962e+02 
3.002700e-01 4.308681e+02 
3.015100e-01 4.280455e+02 
3.026800e-01 4.254092e+02 
3.038500e-01 4.227986e+02 
3.050300e-01 4.201913e+02 
3.062600e-01 4.174979e+02 
3.075000e-01 4.148103e+02 
3.087000e-01 4.122354e+02 
3.099100e-01 4.096647e+02 
3.111200e-01 4.071197e+02 
3.123100e-01 4.046420e+02 
3.135300e-01 4.021265e+02 
3.147300e-01 3.996764e+02 
3.159900e-01 3.971291e+02 
3.171800e-01 3.947476e+02 
3.183700e-01 3.923891e+02 
3.196300e-01 3.899161e+02 
3.208400e-01 3.875644e+02 
3.220300e-01 3.852735e+02 
3.232000e-01 3.830451e+02 
3.244300e-01 3.807257e+02 
3.256700e-01 3.784099e+02 
3.269200e-01 3.760980e+02 
3.280800e-01 3.739725e+02 
3.292500e-01 3.718536e+02 
3.304800e-01 3.696482e+02 
3.317100e-01 3.674635e+02 
3.328900e-01 3.653869e+02 
3.340700e-01 3.633288e+02 
3.353600e-01 3.611070e+02 
3.365300e-01 3.591132e+02 
3.377100e-01 3.571201e+02 
3.389200e-01 3.550946e+02 
3.401600e-01 3.530378e+02 
3.413700e-01 3.510567e+02 
3.425300e-01 3.491795e+02 
3.437700e-01 3.471905e+02 
3.449800e-01 3.452670e+02 
3.461800e-01 3.433763e+02 
3.473600e-01 3.415369e+02 
3.485800e-01 3.396610e+02 
3.498100e-01 3.377863e+02 
3.510200e-01 3.359584e+02 
3.522000e-01 3.341910e+02 
3.533900e-01 3.324237e+02 
3.546400e-01 3.305970e+02 
3.558400e-01 3.288593e+02 
3.570600e-01 3.271077e+02 
3.582700e-01 3.253854e+02 
3.595000e-01 3.236495e+02 
3.607100e-01 3.219640e+02 
3.618900e-01 3.203399e+02 
3.631200e-01 3.186612e+02 
3.643200e-01 3.170371e+02 
3.655500e-01 3.153863e+02 
3.667300e-01 3.138158e+02 
3.679500e-01 3.122203e+02 
3.691900e-01 3.106123e+02 
3.703600e-01 3.091074e+02 
3.715700e-01 3.075636e+02 
3.727700e-01 3.060450e+02 
3.739900e-01 3.045186e+02 
3.752000e-01 3.030261e+02 
3.763900e-01 3.015700e+02 
3.775800e-01 3.001254e+02 
3.788200e-01 2.986322e+02 
3.800300e-01 2.971869e+02 
3.812100e-01 2.957953e+02 
3.824200e-01 2.943842e+02 
3.836100e-01 2.930073e+02 
3.848600e-01 2.915724e+02 
3.860400e-01 2.902286e+02 
3.872400e-01 2.888724e+02 
3.884600e-01 2.875133e+02 
3.896500e-01 2.862011e+02 
3.908700e-01 2.848661e+02 
3.920600e-01 2.835740e+02 
3.933100e-01 2.822273e+02 
3.945300e-01 2.809231e+02 
3.957200e-01 2.796695e+02 
3.969300e-01 2.784070e+02 
3.981700e-01 2.771231e+02 
3.993500e-01 2.759105e+02 
4.094840e-01 2.658880e+02 
4.272360e-01 2.499512e+02 
4.454600e-01 2.353467e+02 
4.630560e-01 2.226542e+02 
4.804610e-01 2.112567e+02 
4.980690e-01 2.007316e+02 
5.159230e-01 1.909615e+02 
5.317440e-01 1.829776e+02 
5.489640e-01 1.749353e+02 
5.671990e-01 1.670832e+02 
5.838690e-01 1.604440e+02 
6.018840e-01 1.537945e+02 
6.202330e-01 1.475373e+02 
6.379250e-01 1.419402e+02 
6.545410e-01 1.370553e+02 
6.714560e-01 1.324043e+02 
6.892080e-01 1.278500e+02 
7.066010e-01 1.236871e+02 
7.240540e-01 1.197722e+02 
7.420450e-01 1.160005e+02 
7.593780e-01 1.125929e+02 
7.764720e-01 1.094262e+02 
7.942840e-01 1.063189e+02 
8.116170e-01 1.034697e+02 
8.288310e-01 1.007968e+02 
8.462240e-01 9.823851e+01 
8.631980e-01 9.586960e+01 
8.810700e-01 9.350088e+01 
8.989410e-01 9.125190e+01 
9.166330e-01 8.913374e+01 
9.345640e-01 8.708872e+01 
9.515980e-01 8.523414e+01 
9.688720e-01 8.343407e+01 
9.865640e-01 8.166986e+01 
1.031870e+00 7.747429e+01 
1.063490e+00 7.479010e+01 
1.097920e+00 7.206964e+01 
1.134370e+00 6.938723e+01 
1.167730e+00 6.709497e+01 
1.203830e+00 6.476550e+01 
1.240470e+00 6.255009e+01 
1.275790e+00 6.053800e+01 
1.309140e+00 5.874519e+01 
1.342970e+00 5.701399e+01 
1.378420e+00 5.529621e+01 
1.413200e+00 5.369433e+01 
1.448110e+00 5.216238e+01 
1.484090e+00 5.066116e+01 
1.518820e+00 4.927795e+01 
1.552880e+00 4.797948e+01 
1.588630e+00 4.667519e+01 
1.623230e+00 4.546806e+01 
1.657720e+00 4.431417e+01 
1.692450e+00 4.319949e+01 
1.726400e+00 4.214999e+01 
1.762200e+00 4.108573e+01 
1.797880e+00 4.006738e+01 
1.833270e+00 3.909592e+01 
1.869070e+00 3.814934e+01 
1.903200e+00 3.727994e+01 
1.937740e+00 3.643062e+01 
1.973190e+00 3.558906e+01 
2.007440e+00 3.480402e+01 
2.042160e+00 3.403470e+01 
2.077900e+00 3.326903e+01 
2.112390e+00 3.255485e+01 
2.146220e+00 3.187545e+01 
2.181600e+00 3.118757e+01 
2.216930e+00 3.052250e+01 
2.250760e+00 2.990532e+01 
2.286500e+00 2.927326e+01 
2.321770e+00 2.866874e+01 
2.355950e+00 2.810024e+01 
2.391280e+00 2.752877e+01 
2.426240e+00 2.697991e+01 
2.460670e+00 2.645529e+01 
2.495640e+00 2.593812e+01 
2.531080e+00 2.542754e+01 
2.566220e+00 2.493551e+01 
2.600830e+00 2.446454e+01 
2.635080e+00 2.401137e+01 
2.670340e+00 2.355597e+01 
2.705970e+00 2.310873e+01 
2.740040e+00 2.269277e+01 
2.774520e+00 2.228190e+01 
2.809730e+00 2.187289e+01 
2.844390e+00 2.148098e+01 
2.879960e+00 2.108879e+01 
2.914860e+00 2.071352e+01 
2.949410e+00 2.035167e+01 
2.984440e+00 1.999320e+01 
3.019760e+00 1.964080e+01 
3.054730e+00 1.930094e+01 
3.089030e+00 1.897439e+01 
3.124060e+00 1.864929e+01 
3.159560e+00 1.832778e+01 
3.194710e+00 1.801668e+01 
3.229010e+00 1.772067e+01 
3.263320e+00 1.743023e+01 
3.297930e+00 1.714439e+01 
3.332830e+00 1.686255e+01 
3.368040e+00 1.658461e+01 
3.403300e+00 1.631278e+01 
3.438450e+00 1.604745e+01 
3.473060e+00 1.579251e+01 
3.508440e+00 1.553690e+01 
3.543110e+00 1.529244e+01 
3.577470e+00 1.505475e+01 
3.613040e+00 1.481440e+01 
3.648120e+00 1.458224e+01 
3.682910e+00 1.435707e+01 
3.718050e+00 1.413414e+01 
3.753320e+00 1.391532e+01 
3.787980e+00 1.370471e+01 
3.822290e+00 1.350060e+01 
3.857020e+00 1.329804e+01 
3.891920e+00 1.309873e+01 
3.926650e+00 1.290415e+01 
3.961970e+00 1.271050e+01 
3.997360e+00 1.252023e+01 
4.031670e+00 1.233973e+01 
4.066330e+00 1.216073e+01 
4.101420e+00 1.198344e+01 
4.136200e+00 1.181065e+01 
4.170810e+00 1.164241e+01 
4.206250e+00 1.147328e+01 
4.241580e+00 1.130823e+01 
4.276300e+00 1.114898e+01 
4.310970e+00 1.099302e+01 
4.346120e+00 1.083800e+01 
4.380600e+00 1.068873e+01 
4.414730e+00 1.054396e+01 
4.450350e+00 1.039541e+01 
4.485320e+00 1.025257e+01 
4.519810e+00 1.011414e+01 
4.555430e+00 9.973888e+00 
4.590870e+00 9.837043e+00 
4.625480e+00 9.705801e+00 
4.659910e+00 9.577777e+00 
4.695230e+00 9.448657e+00 
4.729960e+00 9.324110e+00 
4.764450e+00 9.202631e+00 
4.799530e+00 9.081169e+00 
4.834910e+00 8.961019e+00 
4.869700e+00 8.844910e+00 
4.904370e+00 8.731329e+00 
4.939450e+00 8.618488e+00 
4.973940e+00 8.509441e+00 
5.008430e+00 8.402380e+00 
5.043810e+00 8.294401e+00 
5.078840e+00 8.189354e+00 
5.113500e+00 8.087294e+00 
5.148890e+00 7.984767e+00 
5.184210e+00 7.884288e+00 
5.219060e+00 7.786888e+00 
5.253660e+00 7.691807e+00 
5.288570e+00 7.597552e+00 
5.323420e+00 7.505048e+00 
5.358440e+00 7.413650e+00 
5.393590e+00 7.323503e+00 
5.428310e+00 7.235928e+00 
5.462800e+00 7.150372e+00 
5.497640e+00 7.065404e+00 
5.532670e+00 6.981361e+00 
5.567280e+00 6.899698e+00 
5.602000e+00 6.819132e+00 
5.637270e+00 6.738630e+00 
5.672410e+00 6.659753e+00 
5.707020e+00 6.583339e+00 
5.742040e+00 6.507276e+00 
5.777430e+00 6.431666e+00 
5.812210e+00 6.358564e+00 
5.846820e+00 6.286963e+00 
5.881610e+00 6.216127e+00 
5.916510e+00 6.146193e+00 
5.951600e+00 6.076995e+00 
5.986560e+00 6.009141e+00 
6.021830e+00 5.941760e+00 
6.056490e+00 5.876605e+00 
6.091160e+00 5.812456e+00 
6.125830e+00 5.749287e+00 
6.161090e+00 5.686044e+00 
6.195760e+00 5.624845e+00 
6.230420e+00 5.564583e+00 
6.265690e+00 5.504187e+00 
6.300950e+00 5.444760e+00 
6.335620e+00 5.387200e+00 
6.370880e+00 5.329531e+00 
6.405550e+00 5.273723e+00 
6.440220e+00 5.218754e+00 
6.475480e+00 5.163667e+00 
6.510150e+00 5.110308e+00 
6.544810e+00 5.057768e+00 
6.580080e+00 5.005074e+00 
6.614750e+00 4.954019e+00 
6.649410e+00 4.903792e+00 
6.684080e+00 4.854274e+00 
6.719340e+00 4.804626e+00 
6.754010e+00 4.756520e+00 
6.788680e+00 4.709140e+00 
6.823940e+00 4.661624e+00 
6.859800e+00 4.613980e+00 
6.894470e+00 4.568623e+00 
6.929140e+00 4.523907e+00 
6.963800e+00 4.479809e+00 
6.999070e+00 4.435552e+00 
7.033730e+00 4.392741e+00 
7.068400e+00 4.350490e+00 
7.103660e+00 4.308095e+00 
7.138330e+00 4.267002e+00 
7.173600e+00 4.225828e+00 
7.208260e+00 4.185900e+00 
7.243530e+00 4.145804e+00 
7.277600e+00 4.107622e+00 
7.312860e+00 4.068659e+00 
7.348120e+00 4.030206e+00 
7.382790e+00 3.992885e+00 
7.417460e+00 3.956113e+00 
7.452720e+00 3.919230e+00 
7.487390e+00 3.883428e+00 
7.522650e+00 3.847478e+00 
7.557320e+00 3.812655e+00 
7.591990e+00 3.778295e+00 
7.627250e+00 3.743788e+00 
7.662510e+00 3.709715e+00 
7.697180e+00 3.676706e+00 
7.731850e+00 3.644130e+00 
7.766510e+00 3.611961e+00 
7.801180e+00 3.580174e+00 
7.836440e+00 3.548310e+00 
7.871110e+00 3.517404e+00 
7.906380e+00 3.486342e+00 
7.941040e+00 3.456186e+00 
7.976310e+00 3.425904e+00 
8.011570e+00 3.396039e+00 
8.046240e+00 3.367024e+00 
8.080900e+00 3.338358e+00 
8.115570e+00 3.310043e+00 
8.150830e+00 3.281677e+00 
8.185500e+00 3.254112e+00 
8.220770e+00 3.226397e+00 
8.255430e+00 3.199477e+00 
8.290100e+00 3.172939e+00 
8.324770e+00 3.146713e+00 
8.359430e+00 3.120793e+00 
8.394700e+00 3.094718e+00 
8.429960e+00 3.069001e+00 
8.464630e+00 3.044055e+00 
8.499890e+00 3.018971e+00 
8.534560e+00 2.994583e+00 
8.569200e+00 2.970486e+00 
