# Parameters:
# omega_b = 0.022398, omega_m = 0.144252, n_s = 1.048425, h = 56.653543, w = -1.000000, sigma_8 = 0.895276
# z = 1.300000
#
# k[1/Mpc] # P(k):
8.694000e-04 3.919486e+03 
2.077466e-03 9.006408e+03 
3.285532e-03 1.328011e+04 
4.493598e-03 1.677556e+04 
5.701664e-03 1.953241e+04 
6.909730e-03 2.162796e+04 
8.117797e-03 2.318002e+04 
9.325863e-03 2.424723e+04 
1.053393e-02 2.489541e+04 
1.174199e-02 2.519008e+04 
1.295006e-02 2.517215e+04 
1.415813e-02 2.490299e+04 
1.536619e-02 2.443867e+04 
1.657426e-02 2.382023e+04 
1.778233e-02 2.309793e+04 
1.899039e-02 2.233975e+04 
2.019846e-02 2.154706e+04 
2.140652e-02 2.072469e+04 
2.261459e-02 1.989428e+04 
2.382266e-02 1.908268e+04 
2.503072e-02 1.830715e+04 
2.623879e-02 1.757541e+04 
2.744685e-02 1.689066e+04 
2.865492e-02 1.625915e+04 
2.986299e-02 1.568093e+04 
3.100100e-02 1.518498e+04 
3.220400e-02 1.471027e+04 
3.288100e-02 1.446540e+04 
3.424300e-02 1.401644e+04 
3.555100e-02 1.363376e+04 
3.686000e-02 1.329309e+04 
3.795000e-02 1.303606e+04 
3.929100e-02 1.274889e+04 
4.039800e-02 1.252945e+04 
4.164000e-02 1.229650e+04 
4.294400e-02 1.205951e+04 
4.415000e-02 1.184502e+04 
4.542900e-02 1.161324e+04 
4.660900e-02 1.139749e+04 
4.782300e-02 1.116216e+04 
4.892900e-02 1.094193e+04 
5.031200e-02 1.065447e+04 
5.155900e-02 1.038207e+04 
5.238100e-02 1.019737e+04 
5.378200e-02 9.875770e+03 
5.513400e-02 9.558473e+03 
5.627600e-02 9.289102e+03 
5.735300e-02 9.037890e+03 
5.870100e-02 8.731449e+03 
5.988700e-02 8.472984e+03 
6.113500e-02 8.213274e+03 
6.225900e-02 7.990584e+03 
6.340100e-02 7.774545e+03 
6.480200e-02 7.522158e+03 
6.601100e-02 7.314618e+03 
6.725500e-02 7.110783e+03 
6.829100e-02 6.949476e+03 
6.958600e-02 6.758486e+03 
7.071100e-02 6.603766e+03 
7.192300e-02 6.448857e+03 
7.307400e-02 6.313130e+03 
7.412300e-02 6.198878e+03 
7.550400e-02 6.062674e+03 
7.663100e-02 5.961070e+03 
7.791200e-02 5.857372e+03 
7.912700e-02 5.768270e+03 
8.027600e-02 5.690194e+03 
8.138400e-02 5.619352e+03 
8.272200e-02 5.538413e+03 
8.406100e-02 5.460626e+03 
8.534100e-02 5.387196e+03 
8.653800e-02 5.317569e+03 
8.759800e-02 5.254977e+03 
8.900300e-02 5.169542e+03 
9.009000e-02 5.100478e+03 
9.113300e-02 5.030836e+03 
9.239600e-02 4.944338e+03 
9.358000e-02 4.859908e+03 
9.496100e-02 4.756538e+03 
9.608400e-02 4.670938e+03 
9.727500e-02 4.579578e+03 
9.852600e-02 4.480091e+03 
9.973800e-02 4.384652e+03 
1.009000e-01 4.294215e+03 
1.020900e-01 4.201815e+03 
1.034000e-01 4.102902e+03 
1.046000e-01 4.014799e+03 
1.057200e-01 3.935588e+03 
1.069100e-01 3.854300e+03 
1.082500e-01 3.767358e+03 
1.093900e-01 3.697345e+03 
1.105400e-01 3.629638e+03 
1.116900e-01 3.566822e+03 
1.129600e-01 3.500530e+03 
1.142000e-01 3.440871e+03 
1.153300e-01 3.389414e+03 
1.166400e-01 3.333644e+03 
1.177800e-01 3.288640e+03 
1.190000e-01 3.242720e+03 
1.201200e-01 3.203862e+03 
1.213400e-01 3.162943e+03 
1.227100e-01 3.120639e+03 
1.238900e-01 3.085431e+03 
1.250700e-01 3.051950e+03 
1.263200e-01 3.017398e+03 
1.275500e-01 2.984386e+03 
1.287500e-01 2.952658e+03 
1.299900e-01 2.920203e+03 
1.311300e-01 2.890371e+03 
1.323500e-01 2.858151e+03 
1.335900e-01 2.825165e+03 
1.347100e-01 2.794720e+03 
1.359800e-01 2.760004e+03 
1.372100e-01 2.725251e+03 
1.384300e-01 2.690753e+03 
1.395700e-01 2.657327e+03 
1.407700e-01 2.622659e+03 
1.420300e-01 2.584844e+03 
1.432800e-01 2.548165e+03 
1.444500e-01 2.512987e+03 
1.456300e-01 2.478247e+03 
1.468900e-01 2.441493e+03 
1.480500e-01 2.408239e+03 
1.491700e-01 2.376870e+03 
1.503800e-01 2.343792e+03 
1.516400e-01 2.310259e+03 
1.528200e-01 2.280305e+03 
1.540200e-01 2.250448e+03 
1.551900e-01 2.223019e+03 
1.564300e-01 2.194786e+03 
1.576600e-01 2.168000e+03 
1.588700e-01 2.142957e+03 
1.600900e-01 2.118252e+03 
1.612700e-01 2.096013e+03 
1.625400e-01 2.072526e+03 
1.637600e-01 2.050908e+03 
1.649500e-01 2.030505e+03 
1.662200e-01 2.009184e+03 
1.674000e-01 1.990049e+03 
1.685000e-01 1.972508e+03 
1.697500e-01 1.952866e+03 
1.710300e-01 1.933069e+03 
1.722200e-01 1.914988e+03 
1.734400e-01 1.896366e+03 
1.746400e-01 1.878346e+03 
1.758700e-01 1.860000e+03 
1.770900e-01 1.841727e+03 
1.782700e-01 1.824348e+03 
1.794600e-01 1.806772e+03 
1.807000e-01 1.788539e+03 
1.819100e-01 1.771044e+03 
1.830100e-01 1.755013e+03 
1.842200e-01 1.737590e+03 
1.855000e-01 1.719458e+03 
1.867000e-01 1.702483e+03 
1.879200e-01 1.685505e+03 
1.890900e-01 1.669465e+03 
1.902800e-01 1.653328e+03 
1.915200e-01 1.636782e+03 
1.926900e-01 1.621436e+03 
1.939000e-01 1.605880e+03 
1.951700e-01 1.589813e+03 
1.963100e-01 1.575661e+03 
1.975100e-01 1.561112e+03 
1.987800e-01 1.545954e+03 
2.000100e-01 1.531578e+03 
2.012500e-01 1.517478e+03 
2.023400e-01 1.505261e+03 
2.036100e-01 1.491280e+03 
2.048900e-01 1.477588e+03 
2.060400e-01 1.465466e+03 
2.072200e-01 1.453216e+03 
2.084200e-01 1.441098e+03 
2.096900e-01 1.428461e+03 
2.109200e-01 1.416402e+03 
2.121100e-01 1.404970e+03 
2.132700e-01 1.393981e+03 
2.145200e-01 1.382306e+03 
2.157200e-01 1.371256e+03 
2.168800e-01 1.360720e+03 
2.180700e-01 1.350056e+03 
2.193400e-01 1.338793e+03 
2.206000e-01 1.327705e+03 
2.217500e-01 1.317721e+03 
2.229500e-01 1.307439e+03 
2.241400e-01 1.297214e+03 
2.253500e-01 1.286950e+03 
2.264900e-01 1.277404e+03 
2.277100e-01 1.267209e+03 
2.289900e-01 1.256535e+03 
2.301500e-01 1.246989e+03 
2.313600e-01 1.237157e+03 
2.325600e-01 1.227296e+03 
2.337700e-01 1.217481e+03 
2.350000e-01 1.207634e+03 
2.362000e-01 1.198053e+03 
2.374100e-01 1.188400e+03 
2.386500e-01 1.178637e+03 
2.399100e-01 1.168846e+03 
2.410400e-01 1.160043e+03 
2.422500e-01 1.150714e+03 
2.435000e-01 1.141201e+03 
2.447300e-01 1.131948e+03 
2.458700e-01 1.123425e+03 
2.470600e-01 1.114635e+03 
2.483300e-01 1.105373e+03 
2.495600e-01 1.096522e+03 
2.507600e-01 1.088000e+03 
2.519600e-01 1.079582e+03 
2.532200e-01 1.070852e+03 
2.543700e-01 1.063038e+03 
2.555500e-01 1.055153e+03 
2.568000e-01 1.046899e+03 
2.580100e-01 1.039007e+03 
2.592400e-01 1.031188e+03 
2.604100e-01 1.023885e+03 
2.616100e-01 1.016480e+03 
2.628400e-01 1.008978e+03 
2.640600e-01 1.001752e+03 
2.652200e-01 9.950093e+02 
2.664300e-01 9.880546e+02 
2.676500e-01 9.811223e+02 
2.688400e-01 9.745413e+02 
2.700700e-01 9.678806e+02 
2.712400e-01 9.616149e+02 
2.724800e-01 9.550477e+02 
2.736700e-01 9.488890e+02 
2.748800e-01 9.427709e+02 
2.761000e-01 9.366697e+02 
2.773200e-01 9.306353e+02 
2.785400e-01 9.247015e+02 
2.797000e-01 9.191924e+02 
2.808900e-01 9.135993e+02 
2.821400e-01 9.077872e+02 
2.833900e-01 9.020418e+02 
2.845500e-01 8.968346e+02 
2.857800e-01 8.913702e+02 
2.870300e-01 8.858763e+02 
2.882100e-01 8.807442e+02 
2.893900e-01 8.756954e+02 
2.906300e-01 8.704615e+02 
2.918900e-01 8.651993e+02 
2.930500e-01 8.604042e+02 
2.942500e-01 8.554982e+02 
2.954200e-01 8.507793e+02 
2.966500e-01 8.458679e+02 
2.978900e-01 8.409673e+02 
2.990400e-01 8.364671e+02 
3.002700e-01 8.317068e+02 
3.015100e-01 8.269592e+02 
3.026800e-01 8.225235e+02 
3.038500e-01 8.181300e+02 
3.050300e-01 8.137411e+02 
3.062600e-01 8.092122e+02 
3.075000e-01 8.046918e+02 
3.087000e-01 8.003598e+02 
3.099100e-01 7.960336e+02 
3.111200e-01 7.917493e+02 
3.123100e-01 7.875763e+02 
3.135300e-01 7.833386e+02 
3.147300e-01 7.792099e+02 
3.159900e-01 7.749164e+02 
3.171800e-01 7.708985e+02 
3.183700e-01 7.669168e+02 
3.196300e-01 7.627407e+02 
3.208400e-01 7.587683e+02 
3.220300e-01 7.548975e+02 
3.232000e-01 7.511263e+02 
3.244300e-01 7.471978e+02 
3.256700e-01 7.432745e+02 
3.269200e-01 7.393566e+02 
3.280800e-01 7.357537e+02 
3.292500e-01 7.321560e+02 
3.304800e-01 7.284091e+02 
3.317100e-01 7.246965e+02 
3.328900e-01 7.211665e+02 
3.340700e-01 7.176672e+02 
3.353600e-01 7.138816e+02 
3.365300e-01 7.104810e+02 
3.377100e-01 7.070808e+02 
3.389200e-01 7.036243e+02 
3.401600e-01 7.001136e+02 
3.413700e-01 6.967260e+02 
3.425300e-01 6.935115e+02 
3.437700e-01 6.901048e+02 
3.449800e-01 6.868096e+02 
3.461800e-01 6.835697e+02 
3.473600e-01 6.804149e+02 
3.485800e-01 6.771914e+02 
3.498100e-01 6.739695e+02 
3.510200e-01 6.708271e+02 
3.522000e-01 6.677881e+02 
3.533900e-01 6.647487e+02 
3.546400e-01 6.615980e+02 
3.558400e-01 6.585998e+02 
3.570600e-01 6.555770e+02 
3.582700e-01 6.526040e+02 
3.595000e-01 6.496071e+02 
3.607100e-01 6.466935e+02 
3.618900e-01 6.438831e+02 
3.631200e-01 6.409775e+02 
3.643200e-01 6.381660e+02 
3.655500e-01 6.353078e+02 
3.667300e-01 6.325878e+02 
3.679500e-01 6.298183e+02 
3.691900e-01 6.270264e+02 
3.703600e-01 6.244131e+02 
3.715700e-01 6.217317e+02 
3.727700e-01 6.190936e+02 
3.739900e-01 6.164401e+02 
3.752000e-01 6.138425e+02 
3.763900e-01 6.113077e+02 
3.775800e-01 6.087926e+02 
3.788200e-01 6.061924e+02 
3.800300e-01 6.036752e+02 
3.812100e-01 6.012492e+02 
3.824200e-01 5.987873e+02 
3.836100e-01 5.963847e+02 
3.848600e-01 5.938805e+02 
3.860400e-01 5.915348e+02 
3.872400e-01 5.891673e+02 
3.884600e-01 5.867914e+02 
3.896500e-01 5.844963e+02 
3.908700e-01 5.821610e+02 
3.920600e-01 5.799004e+02 
3.933100e-01 5.775438e+02 
3.945300e-01 5.752614e+02 
3.957200e-01 5.730667e+02 
3.969300e-01 5.708559e+02 
3.981700e-01 5.686074e+02 
3.993500e-01 5.664835e+02 
4.094840e-01 5.488932e+02 
4.272360e-01 5.208406e+02 
4.454600e-01 4.950097e+02 
4.630560e-01 4.724424e+02 
4.804610e-01 4.520572e+02 
4.980690e-01 4.331237e+02 
5.159230e-01 4.154252e+02 
5.317440e-01 4.008850e+02 
5.489640e-01 3.861380e+02 
5.671990e-01 3.716546e+02 
5.838690e-01 3.593544e+02 
6.018840e-01 3.469773e+02 
6.202330e-01 3.352640e+02 
6.379250e-01 3.247540e+02 
6.545410e-01 3.155367e+02 
6.714560e-01 3.067302e+02 
6.892080e-01 2.980814e+02 
7.066010e-01 2.901434e+02 
7.240540e-01 2.826480e+02 
7.420450e-01 2.753940e+02 
7.593780e-01 2.688042e+02 
7.764720e-01 2.626557e+02 
7.942840e-01 2.565884e+02 
8.116170e-01 2.509941e+02 
8.288310e-01 2.457046e+02 
8.462240e-01 2.406171e+02 
8.631980e-01 2.358662e+02 
8.810700e-01 2.310832e+02 
8.989410e-01 2.265001e+02 
9.166330e-01 2.221512e+02 
9.345640e-01 2.179257e+02 
9.515980e-01 2.140505e+02 
9.688720e-01 2.102539e+02 
9.865640e-01 2.064974e+02 
1.031870e+00 1.974255e+02 
1.063490e+00 1.915005e+02 
1.097920e+00 1.853960e+02 
1.134370e+00 1.792692e+02 
1.167730e+00 1.739445e+02 
1.203830e+00 1.684300e+02 
1.240470e+00 1.631122e+02 
1.275790e+00 1.582023e+02 
1.309140e+00 1.537787e+02 
1.342970e+00 1.494343e+02 
1.378420e+00 1.450836e+02 
1.413200e+00 1.409761e+02 
1.448110e+00 1.370114e+02 
1.484090e+00 1.330856e+02 
1.518820e+00 1.294368e+02 
1.552880e+00 1.259836e+02 
1.588630e+00 1.224922e+02 
1.623230e+00 1.192377e+02 
1.657720e+00 1.161045e+02 
1.692450e+00 1.130670e+02 
1.726400e+00 1.101908e+02 
1.762200e+00 1.072584e+02 
1.797880e+00 1.044408e+02 
1.833270e+00 1.017436e+02 
1.869070e+00 9.910498e+01 
1.903200e+00 9.667529e+01 
1.937740e+00 9.429715e+01 
1.973190e+00 9.193495e+01 
2.007440e+00 8.972918e+01 
2.042160e+00 8.756231e+01 
2.077900e+00 8.540093e+01 
2.112390e+00 8.338638e+01 
2.146220e+00 8.146537e+01 
2.181600e+00 7.951995e+01 
2.216930e+00 7.763769e+01 
2.250760e+00 7.589104e+01 
2.286500e+00 7.410232e+01 
2.321770e+00 7.239141e+01 
2.355950e+00 7.078482e+01 
2.391280e+00 6.916718e+01 
2.426240e+00 6.761583e+01 
2.460670e+00 6.613491e+01 
2.495640e+00 6.467623e+01 
2.531080e+00 6.323630e+01 
2.566220e+00 6.184975e+01 
2.600830e+00 6.052462e+01 
2.635080e+00 5.925197e+01 
2.670340e+00 5.797640e+01 
2.705970e+00 5.672436e+01 
2.740040e+00 5.556087e+01 
2.774520e+00 5.441324e+01 
2.809730e+00 5.327315e+01 
2.844390e+00 5.218311e+01 
2.879960e+00 5.109594e+01 
2.914860e+00 5.005652e+01 
2.949410e+00 4.905578e+01 
2.984440e+00 4.806753e+01 
3.019760e+00 4.709672e+01 
3.054730e+00 4.616153e+01 
3.089030e+00 4.526775e+01 
3.124060e+00 4.437929e+01 
3.159560e+00 4.350216e+01 
3.194710e+00 4.265610e+01 
3.229010e+00 4.185264e+01 
3.263320e+00 4.106734e+01 
3.297930e+00 4.029556e+01 
3.332830e+00 3.953591e+01 
3.368040e+00 3.878948e+01 
3.403300e+00 3.806162e+01 
3.438450e+00 3.735347e+01 
3.473060e+00 3.667419e+01 
3.508440e+00 3.599517e+01 
3.543110e+00 3.534707e+01 
3.577470e+00 3.472059e+01 
3.613040e+00 3.408786e+01 
3.648120e+00 3.347750e+01 
3.682910e+00 3.288727e+01 
3.718050e+00 3.230565e+01 
3.753320e+00 3.173592e+01 
3.787980e+00 3.118899e+01 
3.822290e+00 3.066034e+01 
3.857020e+00 3.013756e+01 
3.891920e+00 2.962440e+01 
3.926650e+00 2.912514e+01 
3.961970e+00 2.862951e+01 
3.997360e+00 2.814481e+01 
4.031670e+00 2.768567e+01 
4.066330e+00 2.723170e+01 
4.101420e+00 2.678264e+01 
4.136200e+00 2.634743e+01 
4.170810e+00 2.592409e+01 
4.206250e+00 2.550013e+01 
4.241580e+00 2.508701e+01 
4.276300e+00 2.469016e+01 
4.310970e+00 2.430261e+01 
4.346120e+00 2.391825e+01 
4.380600e+00 2.354934e+01 
4.414730e+00 2.319190e+01 
4.450350e+00 2.282722e+01 
4.485320e+00 2.247687e+01 
4.519810e+00 2.213877e+01 
4.555430e+00 2.179703e+01 
4.590870e+00 2.146424e+01 
4.625480e+00 2.114606e+01 
4.659910e+00 2.083596e+01 
4.695230e+00 2.052504e+01 
4.729960e+00 2.022563e+01 
4.764450e+00 1.993433e+01 
4.799530e+00 1.964416e+01 
4.834910e+00 1.935735e+01 
4.869700e+00 1.908140e+01 
4.904370e+00 1.881184e+01 
4.939450e+00 1.854456e+01 
4.973940e+00 1.828729e+01 
5.008430e+00 1.803489e+01 
5.043810e+00 1.778119e+01 
5.078840e+00 1.753496e+01 
5.113500e+00 1.729589e+01 
5.148890e+00 1.705714e+01 
5.184210e+00 1.682338e+01 
5.219060e+00 1.659717e+01 
5.253660e+00 1.637715e+01 
5.288570e+00 1.615918e+01 
5.323420e+00 1.594580e+01 
5.358440e+00 1.573553e+01 
5.393590e+00 1.552827e+01 
5.428310e+00 1.532773e+01 
5.462800e+00 1.513228e+01 
5.497640e+00 1.493829e+01 
5.532670e+00 1.474723e+01 
5.567280e+00 1.456192e+01 
5.602000e+00 1.437919e+01 
5.637270e+00 1.419723e+01 
5.672410e+00 1.401917e+01 
5.707020e+00 1.384675e+01 
5.742040e+00 1.367590e+01 
5.777430e+00 1.350630e+01 
5.812210e+00 1.334240e+01 
5.846820e+00 1.318238e+01 
5.881610e+00 1.302425e+01 
5.916510e+00 1.286820e+01 
5.951600e+00 1.271436e+01 
5.986560e+00 1.256378e+01 
6.021830e+00 1.241433e+01 
6.056490e+00 1.227020e+01 
6.091160e+00 1.212865e+01 
6.125830e+00 1.198931e+01 
6.161090e+00 1.185000e+01 
6.195760e+00 1.171554e+01 
6.230420e+00 1.158318e+01 
6.265690e+00 1.145059e+01 
6.300950e+00 1.132072e+01 
6.335620e+00 1.119498e+01 
6.370880e+00 1.106903e+01 
6.405550e+00 1.094744e+01 
6.440220e+00 1.082781e+01 
6.475480e+00 1.070796e+01 
6.510150e+00 1.059206e+01 
6.544810e+00 1.047829e+01 
6.580080e+00 1.036422e+01 
6.614750e+00 1.025373e+01 
6.649410e+00 1.014530e+01 
6.684080e+00 1.003848e+01 
6.719340e+00 9.931407e+00 
6.754010e+00 9.827803e+00 
6.788680e+00 9.726058e+00 
6.823940e+00 9.624047e+00 
6.859800e+00 9.521790e+00 
6.894470e+00 9.424634e+00 
6.929140e+00 9.328936e+00 
6.963800e+00 9.234583e+00 
6.999070e+00 9.139925e+00 
7.033730e+00 9.048588e+00 
7.068400e+00 8.958464e+00 
7.103660e+00 8.868056e+00 
7.138330e+00 8.780503e+00 
7.173600e+00 8.692924e+00 
7.208260e+00 8.608014e+00 
7.243530e+00 8.522765e+00 
7.277600e+00 8.441694e+00 
7.312860e+00 8.359068e+00 
7.348120e+00 8.277539e+00 
7.382790e+00 8.198426e+00 
7.417460e+00 8.120649e+00 
7.452720e+00 8.042736e+00 
7.487390e+00 7.967117e+00 
7.522650e+00 7.891201e+00 
7.557320e+00 7.817715e+00 
7.591990e+00 7.745234e+00 
7.627250e+00 7.672455e+00 
7.662510e+00 7.600603e+00 
7.697180e+00 7.531098e+00 
7.731850e+00 7.462555e+00 
7.766510e+00 7.394878e+00 
7.801180e+00 7.328015e+00 
7.836440e+00 7.261019e+00 
7.871110e+00 7.196057e+00 
7.906380e+00 7.130780e+00 
7.941040e+00 7.067414e+00 
7.976310e+00 7.003841e+00 
8.011570e+00 6.941210e+00 
8.046240e+00 6.880368e+00 
8.080900e+00 6.820267e+00 
8.115570e+00 6.760915e+00 
8.150830e+00 6.701481e+00 
8.185500e+00 6.643733e+00 
8.220770e+00 6.585677e+00 
8.255430e+00 6.529296e+00 
8.290100e+00 6.473799e+00 
8.324770e+00 6.418971e+00 
8.359430e+00 6.364789e+00 
8.394700e+00 6.310290e+00 
8.429960e+00 6.256550e+00 
8.464630e+00 6.204430e+00 
8.499890e+00 6.152027e+00 
8.534560e+00 6.101085e+00 
8.569200e+00 6.050759e+00 
