# Parameters:
# omega_b = 0.023043, omega_m = 0.152520, n_s = 0.971260, h = 75.551181, w = -1.000000, sigma_8 = 0.884252
# z = 1.300000
#
# k[1/Mpc] # P(k):
8.694000e-04 3.879659e+03 
2.077466e-03 8.396261e+03 
3.285532e-03 1.200930e+04 
4.493598e-03 1.487723e+04 
5.701664e-03 1.707750e+04 
6.909730e-03 1.870805e+04 
8.117797e-03 1.988734e+04 
9.325863e-03 2.067458e+04 
1.053393e-02 2.112852e+04 
1.174199e-02 2.130291e+04 
1.295006e-02 2.123363e+04 
1.415813e-02 2.097111e+04 
1.536619e-02 2.055713e+04 
1.657426e-02 2.001744e+04 
1.778233e-02 1.936000e+04 
1.899039e-02 1.861558e+04 
2.019846e-02 1.784469e+04 
2.140652e-02 1.709139e+04 
2.261459e-02 1.635645e+04 
2.382266e-02 1.564660e+04 
2.503072e-02 1.497205e+04 
2.623879e-02 1.433806e+04 
2.744685e-02 1.374663e+04 
2.865492e-02 1.320241e+04 
2.986299e-02 1.270495e+04 
3.100100e-02 1.227880e+04 
3.220400e-02 1.187147e+04 
3.288100e-02 1.166170e+04 
3.424300e-02 1.127793e+04 
3.555100e-02 1.095198e+04 
3.686000e-02 1.066323e+04 
3.795000e-02 1.044652e+04 
3.929100e-02 1.020631e+04 
4.039800e-02 1.002403e+04 
4.164000e-02 9.831689e+03 
4.294400e-02 9.637322e+03 
4.415000e-02 9.461848e+03 
4.542900e-02 9.272311e+03 
4.660900e-02 9.095635e+03 
4.782300e-02 8.902180e+03 
4.892900e-02 8.720464e+03 
5.031200e-02 8.482035e+03 
5.155900e-02 8.255029e+03 
5.238100e-02 8.100433e+03 
5.378200e-02 7.829586e+03 
5.513400e-02 7.558787e+03 
5.627600e-02 7.324517e+03 
5.735300e-02 7.100748e+03 
5.870100e-02 6.818463e+03 
5.988700e-02 6.571326e+03 
6.113500e-02 6.315230e+03 
6.225900e-02 6.091613e+03 
6.340100e-02 5.875130e+03 
6.480200e-02 5.627628e+03 
6.601100e-02 5.433850e+03 
6.725500e-02 5.254239e+03 
6.829100e-02 5.121154e+03 
6.958600e-02 4.971455e+03 
7.071100e-02 4.857013e+03 
7.192300e-02 4.747338e+03 
7.307400e-02 4.654758e+03 
7.412300e-02 4.578909e+03 
7.550400e-02 4.490707e+03 
7.663100e-02 4.425752e+03 
7.791200e-02 4.359778e+03 
7.912700e-02 4.302418e+03 
8.027600e-02 4.251118e+03 
8.138400e-02 4.203379e+03 
8.272200e-02 4.146826e+03 
8.406100e-02 4.090095e+03 
8.534100e-02 4.033784e+03 
8.653800e-02 3.978313e+03 
8.759800e-02 3.927354e+03 
8.900300e-02 3.856359e+03 
9.009000e-02 3.798096e+03 
9.113300e-02 3.738938e+03 
9.239600e-02 3.665274e+03 
9.358000e-02 3.593341e+03 
9.496100e-02 3.505596e+03 
9.608400e-02 3.433272e+03 
9.727500e-02 3.356401e+03 
9.852600e-02 3.273576e+03 
9.973800e-02 3.194697e+03 
1.009000e-01 3.120436e+03 
1.020900e-01 3.045828e+03 
1.034000e-01 2.966728e+03 
1.046000e-01 2.897056e+03 
1.057200e-01 2.835854e+03 
1.069100e-01 2.773640e+03 
1.082500e-01 2.708785e+03 
1.093900e-01 2.657684e+03 
1.105400e-01 2.608928e+03 
1.116900e-01 2.565247e+03 
1.129600e-01 2.519672e+03 
1.142000e-01 2.479973e+03 
1.153300e-01 2.446149e+03 
1.166400e-01 2.410160e+03 
1.177800e-01 2.381453e+03 
1.190000e-01 2.352326e+03 
1.201200e-01 2.327540e+03 
1.213400e-01 2.301415e+03 
1.227100e-01 2.273513e+03 
1.238900e-01 2.250006e+03 
1.250700e-01 2.226672e+03 
1.263200e-01 2.202122e+03 
1.275500e-01 2.177616e+03 
1.287500e-01 2.153498e+03 
1.299900e-01 2.127939e+03 
1.311300e-01 2.104005e+03 
1.323500e-01 2.077507e+03 
1.335900e-01 2.050114e+03 
1.347100e-01 2.024492e+03 
1.359800e-01 1.995223e+03 
1.372100e-01 1.965817e+03 
1.384300e-01 1.936713e+03 
1.395700e-01 1.908686e+03 
1.407700e-01 1.879691e+03 
1.420300e-01 1.848565e+03 
1.432800e-01 1.818407e+03 
1.444500e-01 1.790176e+03 
1.456300e-01 1.762323e+03 
1.468900e-01 1.733482e+03 
1.480500e-01 1.707584e+03 
1.491700e-01 1.683507e+03 
1.503800e-01 1.658562e+03 
1.516400e-01 1.633431e+03 
1.528200e-01 1.611627e+03 
1.540200e-01 1.589897e+03 
1.551900e-01 1.570485e+03 
1.564300e-01 1.550642e+03 
1.576600e-01 1.532049e+03 
1.588700e-01 1.514952e+03 
1.600900e-01 1.498098e+03 
1.612700e-01 1.483195e+03 
1.625400e-01 1.467452e+03 
1.637600e-01 1.452949e+03 
1.649500e-01 1.439254e+03 
1.662200e-01 1.424899e+03 
1.674000e-01 1.411777e+03 
1.685000e-01 1.399748e+03 
1.697500e-01 1.386039e+03 
1.710300e-01 1.371984e+03 
1.722200e-01 1.359148e+03 
1.734400e-01 1.345410e+03 
1.746400e-01 1.332096e+03 
1.758700e-01 1.318397e+03 
1.770900e-01 1.304461e+03 
1.782700e-01 1.291209e+03 
1.794600e-01 1.277636e+03 
1.807000e-01 1.263442e+03 
1.819100e-01 1.249828e+03 
1.830100e-01 1.237270e+03 
1.842200e-01 1.223613e+03 
1.855000e-01 1.209408e+03 
1.867000e-01 1.196154e+03 
1.879200e-01 1.182903e+03 
1.890900e-01 1.170414e+03 
1.902800e-01 1.157977e+03 
1.915200e-01 1.145229e+03 
1.926900e-01 1.133457e+03 
1.939000e-01 1.121674e+03 
1.951700e-01 1.109509e+03 
1.963100e-01 1.098846e+03 
1.975100e-01 1.088021e+03 
1.987800e-01 1.076746e+03 
2.000100e-01 1.066096e+03 
2.012500e-01 1.055754e+03 
2.023400e-01 1.046795e+03 
2.036100e-01 1.036561e+03 
2.048900e-01 1.026608e+03 
2.060400e-01 1.017799e+03 
2.072200e-01 1.008899e+03 
2.084200e-01 1.000123e+03 
2.096900e-01 9.909720e+02 
2.109200e-01 9.822405e+02 
2.121100e-01 9.739637e+02 
2.132700e-01 9.660091e+02 
2.145200e-01 9.575576e+02 
2.157200e-01 9.495612e+02 
2.168800e-01 9.419372e+02 
2.180700e-01 9.342212e+02 
2.193400e-01 9.260873e+02 
2.206000e-01 9.181057e+02 
2.217500e-01 9.109200e+02 
2.229500e-01 9.035206e+02 
2.241400e-01 8.962413e+02 
2.253500e-01 8.889373e+02 
2.264900e-01 8.821451e+02 
2.277100e-01 8.749584e+02 
2.289900e-01 8.675076e+02 
2.301500e-01 8.608451e+02 
2.313600e-01 8.539845e+02 
2.325600e-01 8.472699e+02 
2.337700e-01 8.405868e+02 
2.350000e-01 8.338816e+02 
2.362000e-01 8.274360e+02 
2.374100e-01 8.210332e+02 
2.386500e-01 8.145560e+02 
2.399100e-01 8.080602e+02 
2.410400e-01 8.023390e+02 
2.422500e-01 7.962908e+02 
2.435000e-01 7.901215e+02 
2.447300e-01 7.841368e+02 
2.458700e-01 7.786927e+02 
2.470600e-01 7.730767e+02 
2.483300e-01 7.671573e+02 
2.495600e-01 7.615092e+02 
2.507600e-01 7.560837e+02 
2.519600e-01 7.507225e+02 
2.532200e-01 7.451615e+02 
2.543700e-01 7.401587e+02 
2.555500e-01 7.350924e+02 
2.568000e-01 7.297888e+02 
2.580100e-01 7.247159e+02 
2.592400e-01 7.196257e+02 
2.604100e-01 7.148419e+02 
2.616100e-01 7.099909e+02 
2.628400e-01 7.050758e+02 
2.640600e-01 7.002546e+02 
2.652200e-01 6.957209e+02 
2.664300e-01 6.910441e+02 
2.676500e-01 6.863820e+02 
2.688400e-01 6.818792e+02 
2.700700e-01 6.772733e+02 
2.712400e-01 6.729403e+02 
2.724800e-01 6.683987e+02 
2.736700e-01 6.640849e+02 
2.748800e-01 6.597426e+02 
2.761000e-01 6.554124e+02 
2.773200e-01 6.511297e+02 
2.785400e-01 6.468909e+02 
2.797000e-01 6.428969e+02 
2.808900e-01 6.388425e+02 
2.821400e-01 6.346295e+02 
2.833900e-01 6.304626e+02 
2.845500e-01 6.266284e+02 
2.857800e-01 6.226053e+02 
2.870300e-01 6.185609e+02 
2.882100e-01 6.147831e+02 
2.893900e-01 6.110417e+02 
2.906300e-01 6.071498e+02 
2.918900e-01 6.032374e+02 
2.930500e-01 5.996727e+02 
2.942500e-01 5.960210e+02 
2.954200e-01 5.924935e+02 
2.966500e-01 5.888225e+02 
2.978900e-01 5.851600e+02 
2.990400e-01 5.817972e+02 
3.002700e-01 5.782344e+02 
3.015100e-01 5.746786e+02 
3.026800e-01 5.713568e+02 
3.038500e-01 5.680670e+02 
3.050300e-01 5.647810e+02 
3.062600e-01 5.613892e+02 
3.075000e-01 5.580042e+02 
3.087000e-01 5.547606e+02 
3.099100e-01 5.515218e+02 
3.111200e-01 5.483159e+02 
3.123100e-01 5.451960e+02 
3.135300e-01 5.420281e+02 
3.147300e-01 5.389421e+02 
3.159900e-01 5.357332e+02 
3.171800e-01 5.327341e+02 
3.183700e-01 5.297645e+02 
3.196300e-01 5.266503e+02 
3.208400e-01 5.236884e+02 
3.220300e-01 5.208025e+02 
3.232000e-01 5.179958e+02 
3.244300e-01 5.150741e+02 
3.256700e-01 5.121566e+02 
3.269200e-01 5.092435e+02 
3.280800e-01 5.065649e+02 
3.292500e-01 5.038945e+02 
3.304800e-01 5.011148e+02 
3.317100e-01 4.983609e+02 
3.328900e-01 4.957427e+02 
3.340700e-01 4.931476e+02 
3.353600e-01 4.903444e+02 
3.365300e-01 4.878281e+02 
3.377100e-01 4.853122e+02 
3.389200e-01 4.827551e+02 
3.401600e-01 4.801580e+02 
3.413700e-01 4.776545e+02 
3.425300e-01 4.752808e+02 
3.437700e-01 4.727654e+02 
3.449800e-01 4.703326e+02 
3.461800e-01 4.679407e+02 
3.473600e-01 4.656125e+02 
3.485800e-01 4.632352e+02 
3.498100e-01 4.608593e+02 
3.510200e-01 4.585422e+02 
3.522000e-01 4.563016e+02 
3.533900e-01 4.540608e+02 
3.546400e-01 4.517395e+02 
3.558400e-01 4.495307e+02 
3.570600e-01 4.473039e+02 
3.582700e-01 4.451141e+02 
3.595000e-01 4.429068e+02 
3.607100e-01 4.407606e+02 
3.618900e-01 4.386902e+02 
3.631200e-01 4.365499e+02 
3.643200e-01 4.344791e+02 
3.655500e-01 4.323740e+02 
3.667300e-01 4.303709e+02 
3.679500e-01 4.283301e+02 
3.691900e-01 4.262730e+02 
3.703600e-01 4.243476e+02 
3.715700e-01 4.223722e+02 
3.727700e-01 4.204289e+02 
3.739900e-01 4.184734e+02 
3.752000e-01 4.165577e+02 
3.763900e-01 4.146885e+02 
3.775800e-01 4.128339e+02 
3.788200e-01 4.109167e+02 
3.800300e-01 4.090608e+02 
3.812100e-01 4.072707e+02 
3.824200e-01 4.054531e+02 
3.836100e-01 4.036794e+02 
3.848600e-01 4.018308e+02 
3.860400e-01 4.000993e+02 
3.872400e-01 3.983519e+02 
3.884600e-01 3.965965e+02 
3.896500e-01 3.949002e+02 
3.908700e-01 3.931744e+02 
3.920600e-01 3.915038e+02 
3.933100e-01 3.897624e+02 
3.945300e-01 3.880759e+02 
3.957200e-01 3.864512e+02 
3.969300e-01 3.848136e+02 
3.981700e-01 3.831483e+02 
3.993500e-01 3.815753e+02 
4.094840e-01 3.685490e+02 
4.272360e-01 3.477268e+02 
4.454600e-01 3.285619e+02 
4.630560e-01 3.118568e+02 
4.804610e-01 2.968294e+02 
4.980690e-01 2.829422e+02 
5.159230e-01 2.700414e+02 
5.317440e-01 2.594971e+02 
5.489640e-01 2.488678e+02 
5.671990e-01 2.384850e+02 
5.838690e-01 2.297010e+02 
6.018840e-01 2.208953e+02 
6.202330e-01 2.125960e+02 
6.379250e-01 2.051641e+02 
6.545410e-01 1.986657e+02 
6.714560e-01 1.924681e+02 
6.892080e-01 1.863899e+02 
7.066010e-01 1.808220e+02 
7.240540e-01 1.755746e+02 
7.420450e-01 1.705064e+02 
7.593780e-01 1.659144e+02 
7.764720e-01 1.616380e+02 
7.942840e-01 1.574298e+02 
8.116170e-01 1.535605e+02 
8.288310e-01 1.499174e+02 
8.462240e-01 1.464226e+02 
8.631980e-01 1.431744e+02 
8.810700e-01 1.399168e+02 
8.989410e-01 1.368118e+02 
9.166330e-01 1.338784e+02 
9.345640e-01 1.310390e+02 
9.515980e-01 1.284523e+02 
9.688720e-01 1.259322e+02 
9.865640e-01 1.234532e+02 
1.031870e+00 1.175224e+02 
1.063490e+00 1.136982e+02 
1.097920e+00 1.097983e+02 
1.134370e+00 1.059268e+02 
1.167730e+00 1.025972e+02 
1.203830e+00 9.918921e+01 
1.240470e+00 9.593071e+01 
1.275790e+00 9.295295e+01 
1.309140e+00 9.028823e+01 
1.342970e+00 8.769797e+01 
1.378420e+00 8.511848e+01 
1.413200e+00 8.270133e+01 
1.448110e+00 8.038139e+01 
1.484090e+00 7.809798e+01 
1.518820e+00 7.598672e+01 
1.552880e+00 7.399827e+01 
1.588630e+00 7.199542e+01 
1.623230e+00 7.013600e+01 
1.657720e+00 6.835295e+01 
1.692450e+00 6.662802e+01 
1.726400e+00 6.499984e+01 
1.762200e+00 6.334461e+01 
1.797880e+00 6.175770e+01 
1.833270e+00 6.024139e+01 
1.869070e+00 5.876093e+01 
1.903200e+00 5.739940e+01 
1.937740e+00 5.606803e+01 
1.973190e+00 5.474702e+01 
2.007440e+00 5.351393e+01 
2.042160e+00 5.230384e+01 
2.077900e+00 5.109787e+01 
2.112390e+00 4.997327e+01 
2.146220e+00 4.890180e+01 
2.181600e+00 4.781658e+01 
2.216930e+00 4.676661e+01 
2.250760e+00 4.579196e+01 
2.286500e+00 4.479349e+01 
2.321770e+00 4.383814e+01 
2.355950e+00 4.294011e+01 
2.391280e+00 4.203617e+01 
2.426240e+00 4.116832e+01 
2.460670e+00 4.033900e+01 
2.495640e+00 3.952148e+01 
2.531080e+00 3.871399e+01 
2.566220e+00 3.793578e+01 
2.600830e+00 3.719115e+01 
2.635080e+00 3.647504e+01 
2.670340e+00 3.575597e+01 
2.705970e+00 3.504960e+01 
2.740040e+00 3.439262e+01 
2.774520e+00 3.374379e+01 
2.809730e+00 3.309822e+01 
2.844390e+00 3.248007e+01 
2.879960e+00 3.186219e+01 
2.914860e+00 3.127083e+01 
2.949410e+00 3.070080e+01 
2.984440e+00 3.013668e+01 
3.019760e+00 2.958200e+01 
3.054730e+00 2.904714e+01 
3.089030e+00 2.853424e+01 
3.124060e+00 2.802378e+01 
3.159560e+00 2.751912e+01 
3.194710e+00 2.703127e+01 
3.229010e+00 2.656737e+01 
3.263320e+00 2.611274e+01 
3.297930e+00 2.566543e+01 
3.332830e+00 2.522451e+01 
3.368040e+00 2.479024e+01 
3.403300e+00 2.436594e+01 
3.438450e+00 2.395219e+01 
3.473060e+00 2.355484e+01 
3.508440e+00 2.315672e+01 
3.543110e+00 2.277622e+01 
3.577470e+00 2.240708e+01 
3.613040e+00 2.203388e+01 
3.648120e+00 2.167339e+01 
3.682910e+00 2.132412e+01 
3.718050e+00 2.097894e+01 
3.753320e+00 2.064030e+01 
3.787980e+00 2.031461e+01 
3.822290e+00 1.999923e+01 
3.857020e+00 1.968660e+01 
3.891920e+00 1.937924e+01 
3.926650e+00 1.907950e+01 
3.961970e+00 1.878144e+01 
3.997360e+00 1.848908e+01 
4.031670e+00 1.821184e+01 
4.066330e+00 1.793711e+01 
4.101420e+00 1.766511e+01 
4.136200e+00 1.740055e+01 
4.170810e+00 1.714301e+01 
4.206250e+00 1.688441e+01 
4.241580e+00 1.663214e+01 
4.276300e+00 1.638914e+01 
4.310970e+00 1.615139e+01 
4.346120e+00 1.591523e+01 
4.380600e+00 1.568806e+01 
4.414730e+00 1.546779e+01 
4.450350e+00 1.524223e+01 
4.485320e+00 1.502538e+01 
4.519810e+00 1.481554e+01 
4.555430e+00 1.460310e+01 
4.590870e+00 1.439594e+01 
4.625480e+00 1.419744e+01 
4.659910e+00 1.400387e+01 
4.695230e+00 1.380905e+01 
4.729960e+00 1.362124e+01 
4.764450e+00 1.343821e+01 
4.799530e+00 1.325543e+01 
4.834910e+00 1.307467e+01 
4.869700e+00 1.290024e+01 
4.904370e+00 1.272968e+01 
4.939450e+00 1.256034e+01 
4.973940e+00 1.239691e+01 
5.008430e+00 1.223648e+01 
5.043810e+00 1.207486e+01 
5.078840e+00 1.191774e+01 
5.113500e+00 1.176512e+01 
5.148890e+00 1.161213e+01 
5.184210e+00 1.146224e+01 
5.219060e+00 1.131701e+01 
5.253660e+00 1.117541e+01 
5.288570e+00 1.103506e+01 
5.323420e+00 1.089743e+01 
5.358440e+00 1.076155e+01 
5.393590e+00 1.062755e+01 
5.428310e+00 1.049756e+01 
5.462800e+00 1.037068e+01 
5.497640e+00 1.024468e+01 
5.532670e+00 1.012024e+01 
5.567280e+00 9.999401e+00 
5.602000e+00 9.880200e+00 
5.637270e+00 9.761214e+00 
5.672410e+00 9.644671e+00 
5.707020e+00 9.531783e+00 
5.742040e+00 9.419589e+00 
5.777430e+00 9.308111e+00 
5.812210e+00 9.200344e+00 
5.846820e+00 9.094888e+00 
5.881610e+00 8.990593e+00 
5.916510e+00 8.887638e+00 
5.951600e+00 8.785889e+00 
5.986560e+00 8.686176e+00 
6.021830e+00 8.587171e+00 
6.056490e+00 8.491524e+00 
6.091160e+00 8.397429e+00 
6.125830e+00 8.304780e+00 
6.161090e+00 8.212058e+00 
6.195760e+00 8.122394e+00 
6.230420e+00 8.034112e+00 
6.265690e+00 7.945647e+00 
6.300950e+00 7.858731e+00 
6.335620e+00 7.774553e+00 
6.370880e+00 7.690222e+00 
6.405550e+00 7.608663e+00 
6.440220e+00 7.528352e+00 
6.475480e+00 7.447876e+00 
6.510150e+00 7.369962e+00 
6.544810e+00 7.293321e+00 
6.580080e+00 7.216462e+00 
6.614750e+00 7.142000e+00 
6.649410e+00 7.068789e+00 
6.684080e+00 6.996627e+00 
6.719340e+00 6.924279e+00 
6.754010e+00 6.854208e+00 
6.788680e+00 6.785256e+00 
6.823940e+00 6.716112e+00 
6.859800e+00 6.646787e+00 
6.894470e+00 6.580820e+00 
6.929140e+00 6.515798e+00 
6.963800e+00 6.451680e+00 
6.999070e+00 6.387335e+00 
7.033730e+00 6.325129e+00 
7.068400e+00 6.263740e+00 
7.103660e+00 6.202146e+00 
7.138330e+00 6.142456e+00 
7.173600e+00 6.082667e+00 
7.208260e+00 6.024693e+00 
7.243530e+00 5.966478e+00 
7.277600e+00 5.911058e+00 
7.312860e+00 5.854523e+00 
7.348120e+00 5.798729e+00 
7.382790e+00 5.744582e+00 
7.417460e+00 5.691265e+00 
7.452720e+00 5.637809e+00 
7.487390e+00 5.585920e+00 
7.522650e+00 5.533820e+00 
7.557320e+00 5.483347e+00 
7.591990e+00 5.433545e+00 
7.627250e+00 5.383532e+00 
7.662510e+00 5.334151e+00 
7.697180e+00 5.286325e+00 
7.731850e+00 5.239135e+00 
7.766510e+00 5.192536e+00 
7.801180e+00 5.146493e+00 
7.836440e+00 5.100331e+00 
7.871110e+00 5.055551e+00 
7.906380e+00 5.010550e+00 
7.941040e+00 4.966862e+00 
7.976310e+00 4.923000e+00 
8.011570e+00 4.879751e+00 
8.046240e+00 4.837733e+00 
8.080900e+00 4.796223e+00 
8.115570e+00 4.755221e+00 
8.150830e+00 4.714135e+00 
8.185500e+00 4.674211e+00 
8.220770e+00 4.634071e+00 
8.255430e+00 4.595084e+00 
8.290100e+00 4.556661e+00 
8.324770e+00 4.518693e+00 
8.359430e+00 4.481169e+00 
8.394700e+00 4.443421e+00 
8.429960e+00 4.406188e+00 
8.464630e+00 4.370064e+00 
8.499890e+00 4.333741e+00 
8.534560e+00 4.298429e+00 
8.569200e+00 4.263539e+00 
