# Parameters:
# omega_b = 0.023343, omega_m = 0.136260, n_s = 0.905118, h = 64.212598, w = -1.000000, sigma_8 = 0.791339
# z = 1.300000
#
# k[1/Mpc] # P(k):
8.694000e-04 6.861347e+03 
2.077466e-03 1.389197e+04 
3.285532e-03 1.907098e+04 
4.493598e-03 2.287758e+04 
5.701664e-03 2.556113e+04 
6.909730e-03 2.734317e+04 
8.117797e-03 2.844625e+04 
9.325863e-03 2.898320e+04 
1.053393e-02 2.905968e+04 
1.174199e-02 2.876813e+04 
1.295006e-02 2.816869e+04 
1.415813e-02 2.733974e+04 
1.536619e-02 2.634764e+04 
1.657426e-02 2.523878e+04 
1.778233e-02 2.405918e+04 
1.899039e-02 2.287576e+04 
2.019846e-02 2.170755e+04 
2.140652e-02 2.056837e+04 
2.261459e-02 1.947321e+04 
2.382266e-02 1.844150e+04 
2.503072e-02 1.748455e+04 
2.623879e-02 1.660521e+04 
2.744685e-02 1.580376e+04 
2.865492e-02 1.508022e+04 
2.986299e-02 1.443007e+04 
3.100100e-02 1.388213e+04 
3.220400e-02 1.336508e+04 
3.288100e-02 1.310129e+04 
3.424300e-02 1.262159e+04 
3.555100e-02 1.221586e+04 
3.686000e-02 1.185624e+04 
3.795000e-02 1.158507e+04 
3.929100e-02 1.128102e+04 
4.039800e-02 1.104708e+04 
4.164000e-02 1.079725e+04 
4.294400e-02 1.054044e+04 
4.415000e-02 1.030664e+04 
4.542900e-02 1.005271e+04 
4.660900e-02 9.816258e+03 
4.782300e-02 9.559248e+03 
4.892900e-02 9.320167e+03 
5.031200e-02 9.010844e+03 
5.155900e-02 8.721687e+03 
5.238100e-02 8.527790e+03 
5.378200e-02 8.194184e+03 
5.513400e-02 7.870199e+03 
5.627600e-02 7.598634e+03 
5.735300e-02 7.347692e+03 
5.870100e-02 7.044122e+03 
5.988700e-02 6.789947e+03 
6.113500e-02 6.536883e+03 
6.225900e-02 6.322818e+03 
6.340100e-02 6.119074e+03 
6.480200e-02 5.886755e+03 
6.601100e-02 5.702519e+03 
6.725500e-02 5.527523e+03 
6.829100e-02 5.393761e+03 
6.958600e-02 5.239125e+03 
7.071100e-02 5.117083e+03 
7.192300e-02 4.997086e+03 
7.307400e-02 4.893357e+03 
7.412300e-02 4.806684e+03 
7.550400e-02 4.703580e+03 
7.663100e-02 4.626318e+03 
7.791200e-02 4.546074e+03 
7.912700e-02 4.475045e+03 
8.027600e-02 4.410802e+03 
8.138400e-02 4.350597e+03 
8.272200e-02 4.278999e+03 
8.406100e-02 4.207288e+03 
8.534100e-02 4.136686e+03 
8.653800e-02 4.068030e+03 
8.759800e-02 4.005654e+03 
8.900300e-02 3.919993e+03 
9.009000e-02 3.850870e+03 
9.113300e-02 3.781871e+03 
9.239600e-02 3.697030e+03 
9.358000e-02 3.615538e+03 
9.496100e-02 3.518139e+03 
9.608400e-02 3.439025e+03 
9.727500e-02 3.355852e+03 
9.852600e-02 3.268334e+03 
9.973800e-02 3.185891e+03 
1.009000e-01 3.109010e+03 
1.020900e-01 3.033345e+03 
1.034000e-01 2.953759e+03 
1.046000e-01 2.884300e+03 
1.057200e-01 2.824099e+03 
1.069100e-01 2.763129e+03 
1.082500e-01 2.700109e+03 
1.093900e-01 2.650581e+03 
1.105400e-01 2.603397e+03 
1.116900e-01 2.560990e+03 
1.129600e-01 2.516607e+03 
1.142000e-01 2.477429e+03 
1.153300e-01 2.443660e+03 
1.166400e-01 2.407107e+03 
1.177800e-01 2.377099e+03 
1.190000e-01 2.346228e+03 
1.201200e-01 2.318801e+03 
1.213400e-01 2.289672e+03 
1.227100e-01 2.257020e+03 
1.238900e-01 2.229272e+03 
1.250700e-01 2.201016e+03 
1.263200e-01 2.171188e+03 
1.275500e-01 2.141198e+03 
1.287500e-01 2.111839e+03 
1.299900e-01 2.080969e+03 
1.311300e-01 2.052488e+03 
1.323500e-01 2.021575e+03 
1.335900e-01 1.990247e+03 
1.347100e-01 1.961735e+03 
1.359800e-01 1.929735e+03 
1.372100e-01 1.898670e+03 
1.384300e-01 1.868369e+03 
1.395700e-01 1.840195e+03 
1.407700e-01 1.811170e+03 
1.420300e-01 1.781155e+03 
1.432800e-01 1.752074e+03 
1.444500e-01 1.725612e+03 
1.456300e-01 1.699497e+03 
1.468900e-01 1.672672e+03 
1.480500e-01 1.648642e+03 
1.491700e-01 1.626236e+03 
1.503800e-01 1.602940e+03 
1.516400e-01 1.579370e+03 
1.528200e-01 1.558506e+03 
1.540200e-01 1.537711e+03 
1.551900e-01 1.518543e+03 
1.564300e-01 1.498798e+03 
1.576600e-01 1.479934e+03 
1.588700e-01 1.462134e+03 
1.600900e-01 1.444556e+03 
1.612700e-01 1.428323e+03 
1.625400e-01 1.411183e+03 
1.637600e-01 1.395131e+03 
1.649500e-01 1.379820e+03 
1.662200e-01 1.363763e+03 
1.674000e-01 1.349011e+03 
1.685000e-01 1.335492e+03 
1.697500e-01 1.320226e+03 
1.710300e-01 1.304714e+03 
1.722200e-01 1.290553e+03 
1.734400e-01 1.275852e+03 
1.746400e-01 1.261629e+03 
1.758700e-01 1.247169e+03 
1.770900e-01 1.232799e+03 
1.782700e-01 1.219140e+03 
1.794600e-01 1.205409e+03 
1.807000e-01 1.191223e+03 
1.819100e-01 1.177621e+03 
1.830100e-01 1.165323e+03 
1.842200e-01 1.151993e+03 
1.855000e-01 1.138138e+03 
1.867000e-01 1.125375e+03 
1.879200e-01 1.112617e+03 
1.890900e-01 1.100603e+03 
1.902800e-01 1.088682e+03 
1.915200e-01 1.076464e+03 
1.926900e-01 1.065175e+03 
1.939000e-01 1.053852e+03 
1.951700e-01 1.042162e+03 
1.963100e-01 1.031895e+03 
1.975100e-01 1.021415e+03 
1.987800e-01 1.010500e+03 
2.000100e-01 1.000162e+03 
2.012500e-01 9.900524e+02 
2.023400e-01 9.812963e+02 
2.036100e-01 9.712762e+02 
2.048900e-01 9.614576e+02 
2.060400e-01 9.527684e+02 
2.072200e-01 9.439865e+02 
2.084200e-01 9.352640e+02 
2.096900e-01 9.261707e+02 
2.109200e-01 9.174962e+02 
2.121100e-01 9.092310e+02 
2.132700e-01 9.012871e+02 
2.145200e-01 8.928488e+02 
2.157200e-01 8.848401e+02 
2.168800e-01 8.771941e+02 
2.180700e-01 8.694577e+02 
2.193400e-01 8.612902e+02 
2.206000e-01 8.532521e+02 
2.217500e-01 8.460175e+02 
2.229500e-01 8.385697e+02 
2.241400e-01 8.311922e+02 
2.253500e-01 8.237906e+02 
2.264900e-01 8.169099e+02 
2.277100e-01 8.095967e+02 
2.289900e-01 8.019790e+02 
2.301500e-01 7.951696e+02 
2.313600e-01 7.881595e+02 
2.325600e-01 7.812176e+02 
2.337700e-01 7.743110e+02 
2.350000e-01 7.673845e+02 
2.362000e-01 7.606897e+02 
2.374100e-01 7.539960e+02 
2.386500e-01 7.472276e+02 
2.399100e-01 7.404430e+02 
2.410400e-01 7.344153e+02 
2.422500e-01 7.280391e+02 
2.435000e-01 7.215387e+02 
2.447300e-01 7.152289e+02 
2.458700e-01 7.094638e+02 
2.470600e-01 7.035196e+02 
2.483300e-01 6.972575e+02 
2.495600e-01 6.912882e+02 
2.507600e-01 6.855603e+02 
2.519600e-01 6.799032e+02 
2.532200e-01 6.740382e+02 
2.543700e-01 6.687893e+02 
2.555500e-01 6.634929e+02 
2.568000e-01 6.579510e+02 
2.580100e-01 6.526527e+02 
2.592400e-01 6.473870e+02 
2.604100e-01 6.424617e+02 
2.616100e-01 6.374690e+02 
2.628400e-01 6.324125e+02 
2.640600e-01 6.275124e+02 
2.652200e-01 6.229288e+02 
2.664300e-01 6.182021e+02 
2.676500e-01 6.134920e+02 
2.688400e-01 6.089907e+02 
2.700700e-01 6.044166e+02 
2.712400e-01 6.001148e+02 
2.724800e-01 5.956072e+02 
2.736700e-01 5.913579e+02 
2.748800e-01 5.871135e+02 
2.761000e-01 5.828820e+02 
2.773200e-01 5.786979e+02 
2.785400e-01 5.745721e+02 
2.797000e-01 5.707158e+02 
2.808900e-01 5.668018e+02 
2.821400e-01 5.627357e+02 
2.833900e-01 5.587161e+02 
2.845500e-01 5.550447e+02 
2.857800e-01 5.511931e+02 
2.870300e-01 5.473219e+02 
2.882100e-01 5.437066e+02 
2.893900e-01 5.401375e+02 
2.906300e-01 5.364313e+02 
2.918900e-01 5.327062e+02 
2.930500e-01 5.293128e+02 
2.942500e-01 5.258393e+02 
2.954200e-01 5.224910e+02 
2.966500e-01 5.190072e+02 
2.978900e-01 5.155321e+02 
2.990400e-01 5.123419e+02 
3.002700e-01 5.089651e+02 
3.015100e-01 5.055969e+02 
3.026800e-01 5.024509e+02 
3.038500e-01 4.993357e+02 
3.050300e-01 4.962246e+02 
3.062600e-01 4.930146e+02 
3.075000e-01 4.898115e+02 
3.087000e-01 4.867429e+02 
3.099100e-01 4.836792e+02 
3.111200e-01 4.806473e+02 
3.123100e-01 4.776970e+02 
3.135300e-01 4.747019e+02 
3.147300e-01 4.717847e+02 
3.159900e-01 4.687519e+02 
3.171800e-01 4.659183e+02 
3.183700e-01 4.631133e+02 
3.196300e-01 4.601722e+02 
3.208400e-01 4.573755e+02 
3.220300e-01 4.546510e+02 
3.232000e-01 4.520016e+02 
3.244300e-01 4.492442e+02 
3.256700e-01 4.464912e+02 
3.269200e-01 4.437428e+02 
3.280800e-01 4.412160e+02 
3.292500e-01 4.386977e+02 
3.304800e-01 4.360770e+02 
3.317100e-01 4.334809e+02 
3.328900e-01 4.310132e+02 
3.340700e-01 4.285677e+02 
3.353600e-01 4.259279e+02 
3.365300e-01 4.235593e+02 
3.377100e-01 4.211914e+02 
3.389200e-01 4.187851e+02 
3.401600e-01 4.163417e+02 
3.413700e-01 4.139878e+02 
3.425300e-01 4.117570e+02 
3.437700e-01 4.093935e+02 
3.449800e-01 4.071079e+02 
3.461800e-01 4.048612e+02 
3.473600e-01 4.026754e+02 
3.485800e-01 4.004458e+02 
3.498100e-01 3.982178e+02 
3.510200e-01 3.960453e+02 
3.522000e-01 3.939448e+02 
3.533900e-01 3.918445e+02 
3.546400e-01 3.896721e+02 
3.558400e-01 3.876055e+02 
3.570600e-01 3.855224e+02 
3.582700e-01 3.834741e+02 
3.595000e-01 3.814098e+02 
3.607100e-01 3.794049e+02 
3.618900e-01 3.774727e+02 
3.631200e-01 3.754755e+02 
3.643200e-01 3.735434e+02 
3.655500e-01 3.715795e+02 
3.667300e-01 3.697111e+02 
3.679500e-01 3.678118e+02 
3.691900e-01 3.658975e+02 
3.703600e-01 3.641060e+02 
3.715700e-01 3.622682e+02 
3.727700e-01 3.604605e+02 
3.739900e-01 3.586430e+02 
3.752000e-01 3.568649e+02 
3.763900e-01 3.551301e+02 
3.775800e-01 3.534091e+02 
3.788200e-01 3.516303e+02 
3.800300e-01 3.499085e+02 
3.812100e-01 3.482504e+02 
3.824200e-01 3.465686e+02 
3.836100e-01 3.449277e+02 
3.848600e-01 3.432176e+02 
3.860400e-01 3.416161e+02 
3.872400e-01 3.400000e+02 
3.884600e-01 3.383795e+02 
3.896500e-01 3.368147e+02 
3.908700e-01 3.352228e+02 
3.920600e-01 3.336821e+02 
3.933100e-01 3.320762e+02 
3.945300e-01 3.305211e+02 
3.957200e-01 3.290260e+02 
3.969300e-01 3.275202e+02 
3.981700e-01 3.259889e+02 
3.993500e-01 3.245428e+02 
4.094840e-01 3.125886e+02 
4.272360e-01 2.935863e+02 
4.454600e-01 2.761914e+02 
4.630560e-01 2.610998e+02 
4.804610e-01 2.475758e+02 
4.980690e-01 2.351183e+02 
5.159230e-01 2.235808e+02 
5.317440e-01 2.141745e+02 
5.489640e-01 2.047169e+02 
5.671990e-01 1.955028e+02 
5.838690e-01 1.877262e+02 
6.018840e-01 1.799491e+02 
6.202330e-01 1.726390e+02 
6.379250e-01 1.661065e+02 
6.545410e-01 1.604084e+02 
6.714560e-01 1.549844e+02 
6.892080e-01 1.496749e+02 
7.066010e-01 1.448206e+02 
7.240540e-01 1.402544e+02 
7.420450e-01 1.358516e+02 
7.593780e-01 1.318694e+02 
7.764720e-01 1.281665e+02 
7.942840e-01 1.245283e+02 
8.116170e-01 1.211880e+02 
8.288310e-01 1.180485e+02 
8.462240e-01 1.150404e+02 
8.631980e-01 1.122493e+02 
8.810700e-01 1.094540e+02 
8.989410e-01 1.067942e+02 
9.166330e-01 1.042849e+02 
9.345640e-01 1.018597e+02 
9.515980e-01 9.965434e+01 
9.688720e-01 9.750952e+01 
9.865640e-01 9.540323e+01 
1.031870e+00 9.038032e+01 
1.063490e+00 8.715537e+01 
1.097920e+00 8.387711e+01 
1.134370e+00 8.063656e+01 
1.167730e+00 7.786004e+01 
1.203830e+00 7.503156e+01 
1.240470e+00 7.233737e+01 
1.275790e+00 6.988687e+01 
1.309140e+00 6.770096e+01 
1.342970e+00 6.558744e+01 
1.378420e+00 6.348933e+01 
1.413200e+00 6.153167e+01 
1.448110e+00 5.966026e+01 
1.484090e+00 5.782491e+01 
1.518820e+00 5.613480e+01 
1.552880e+00 5.454925e+01 
1.588630e+00 5.295781e+01 
1.623230e+00 5.148543e+01 
1.657720e+00 5.007806e+01 
1.692450e+00 4.872097e+01 
1.726400e+00 4.744477e+01 
1.762200e+00 4.615157e+01 
1.797880e+00 4.491553e+01 
1.833270e+00 4.373778e+01 
1.869070e+00 4.259178e+01 
1.903200e+00 4.154069e+01 
1.937740e+00 4.051551e+01 
1.973190e+00 3.950115e+01 
2.007440e+00 3.855667e+01 
2.042160e+00 3.763236e+01 
2.077900e+00 3.671355e+01 
2.112390e+00 3.585850e+01 
2.146220e+00 3.504610e+01 
2.181600e+00 3.422508e+01 
2.216930e+00 3.343263e+01 
2.250760e+00 3.269848e+01 
2.286500e+00 3.194790e+01 
2.321770e+00 3.123126e+01 
2.355950e+00 3.055882e+01 
2.391280e+00 2.988376e+01 
2.426240e+00 2.923673e+01 
2.460670e+00 2.861940e+01 
2.495640e+00 2.801179e+01 
2.531080e+00 2.741312e+01 
2.566220e+00 2.683710e+01 
2.600830e+00 2.628676e+01 
2.635080e+00 2.575824e+01 
2.670340e+00 2.522863e+01 
2.705970e+00 2.470911e+01 
2.740040e+00 2.422655e+01 
2.774520e+00 2.375079e+01 
2.809730e+00 2.327817e+01 
2.844390e+00 2.282612e+01 
2.879960e+00 2.237485e+01 
2.914860e+00 2.194367e+01 
2.949410e+00 2.152847e+01 
2.984440e+00 2.111818e+01 
3.019760e+00 2.071530e+01 
3.054730e+00 2.032719e+01 
3.089030e+00 1.995558e+01 
3.124060e+00 1.958606e+01 
3.159560e+00 1.922114e+01 
3.194710e+00 1.886886e+01 
3.229010e+00 1.853408e+01 
3.263320e+00 1.820645e+01 
3.297930e+00 1.788434e+01 
3.332830e+00 1.756726e+01 
3.368040e+00 1.725521e+01 
3.403300e+00 1.695052e+01 
3.438450e+00 1.665380e+01 
3.473060e+00 1.636899e+01 
3.508440e+00 1.608401e+01 
3.543110e+00 1.581176e+01 
3.577470e+00 1.554792e+01 
3.613040e+00 1.528134e+01 
3.648120e+00 1.502412e+01 
3.682910e+00 1.477505e+01 
3.718050e+00 1.452909e+01 
3.753320e+00 1.428795e+01 
3.787980e+00 1.405623e+01 
3.822290e+00 1.383197e+01 
3.857020e+00 1.360982e+01 
3.891920e+00 1.339154e+01 
3.926650e+00 1.317885e+01 
3.961970e+00 1.296744e+01 
3.997360e+00 1.276022e+01 
4.031670e+00 1.256378e+01 
4.066330e+00 1.236934e+01 
4.101420e+00 1.217689e+01 
4.136200e+00 1.198981e+01 
4.170810e+00 1.180775e+01 
4.206250e+00 1.162510e+01 
4.241580e+00 1.144698e+01 
4.276300e+00 1.127550e+01 
4.310970e+00 1.110781e+01 
4.346120e+00 1.094132e+01 
4.380600e+00 1.078127e+01 
4.414730e+00 1.062612e+01 
4.450350e+00 1.046734e+01 
4.485320e+00 1.031473e+01 
4.519810e+00 1.016714e+01 
4.555430e+00 1.001776e+01 
4.590870e+00 9.872168e+00 
4.625480e+00 9.732762e+00 
4.659910e+00 9.596834e+00 
4.695230e+00 9.460099e+00 
4.729960e+00 9.328309e+00 
4.764450e+00 9.199926e+00 
4.799530e+00 9.071793e+00 
4.834910e+00 8.945099e+00 
4.869700e+00 8.822903e+00 
4.904370e+00 8.703447e+00 
4.939450e+00 8.584882e+00 
4.973940e+00 8.470517e+00 
5.008430e+00 8.358279e+00 
5.043810e+00 8.245254e+00 
5.078840e+00 8.135419e+00 
5.113500e+00 8.028748e+00 
5.148890e+00 7.921876e+00 
5.184210e+00 7.817187e+00 
5.219060e+00 7.715791e+00 
5.253660e+00 7.616977e+00 
5.288570e+00 7.519055e+00 
5.323420e+00 7.423063e+00 
5.358440e+00 7.328337e+00 
5.393590e+00 7.234940e+00 
5.428310e+00 7.144372e+00 
5.462800e+00 7.055991e+00 
5.497640e+00 6.968246e+00 
5.532670e+00 6.881623e+00 
5.567280e+00 6.797525e+00 
5.602000e+00 6.714583e+00 
5.637270e+00 6.631844e+00 
5.672410e+00 6.550828e+00 
5.707020e+00 6.472365e+00 
5.742040e+00 6.394423e+00 
5.777430e+00 6.316997e+00 
5.812210e+00 6.242161e+00 
5.846820e+00 6.168973e+00 
5.881610e+00 6.096611e+00 
5.916510e+00 6.025190e+00 
5.951600e+00 5.954638e+00 
5.986560e+00 5.885520e+00 
6.021830e+00 5.816903e+00 
6.056490e+00 5.750640e+00 
6.091160e+00 5.685478e+00 
6.125830e+00 5.621327e+00 
6.161090e+00 5.557149e+00 
6.195760e+00 5.495125e+00 
6.230420e+00 5.434065e+00 
6.265690e+00 5.372890e+00 
6.300950e+00 5.312835e+00 
6.335620e+00 5.254679e+00 
6.370880e+00 5.196426e+00 
6.405550e+00 5.140123e+00 
6.440220e+00 5.084699e+00 
6.475480e+00 5.029170e+00 
6.510150e+00 4.975425e+00 
6.544810e+00 4.922591e+00 
6.580080e+00 4.869613e+00 
6.614750e+00 4.818294e+00 
6.649410e+00 4.767882e+00 
6.684080e+00 4.718206e+00 
6.719340e+00 4.668409e+00 
6.754010e+00 4.620196e+00 
6.788680e+00 4.572785e+00 
6.823940e+00 4.525248e+00 
6.859800e+00 4.477592e+00 
6.894470e+00 4.432285e+00 
6.929140e+00 4.387644e+00 
6.963800e+00 4.343629e+00 
6.999070e+00 4.299466e+00 
7.033730e+00 4.256812e+00 
7.068400e+00 4.214722e+00 
7.103660e+00 4.172497e+00 
7.138330e+00 4.131596e+00 
7.173600e+00 4.090661e+00 
7.208260e+00 4.050973e+00 
7.243530e+00 4.011124e+00 
7.277600e+00 3.973218e+00 
7.312860e+00 3.934574e+00 
7.348120e+00 3.896443e+00 
7.382790e+00 3.859439e+00 
7.417460e+00 3.823030e+00 
7.452720e+00 3.786541e+00 
7.487390e+00 3.751126e+00 
7.522650e+00 3.715570e+00 
7.557320e+00 3.681163e+00 
7.591990e+00 3.647229e+00 
7.627250e+00 3.613155e+00 
7.662510e+00 3.579515e+00 
7.697180e+00 3.546964e+00 
7.731850e+00 3.514861e+00 
7.766510e+00 3.483161e+00 
7.801180e+00 3.451842e+00 
7.836440e+00 3.420474e+00 
7.871110e+00 3.390066e+00 
7.906380e+00 3.359509e+00 
7.941040e+00 3.329846e+00 
7.976310e+00 3.300087e+00 
8.011570e+00 3.270768e+00 
8.046240e+00 3.242286e+00 
8.080900e+00 3.214150e+00 
8.115570e+00 3.186368e+00 
8.150830e+00 3.158564e+00 
8.185500e+00 3.131547e+00 
8.220770e+00 3.104385e+00 
8.255430e+00 3.078006e+00 
8.290100e+00 3.052047e+00 
8.324770e+00 3.026400e+00 
8.359430e+00 3.001055e+00 
8.394700e+00 2.975560e+00 
8.429960e+00 2.950435e+00 
8.464630e+00 2.926080e+00 
8.499890e+00 2.901592e+00 
8.534560e+00 2.877786e+00 
8.569200e+00 2.854267e+00 
