# Parameters:
# omega_b = 0.021720, omega_m = 0.153898, n_s = 1.016929, h = 59.960630, w = -1.000000, sigma_8 = 0.729921
# z = 1.300000
#
# k[1/Mpc] # P(k):
8.694000e-04 2.323319e+03 
2.077466e-03 5.242410e+03 
3.285532e-03 7.673848e+03 
4.493598e-03 9.654672e+03 
5.701664e-03 1.122644e+04 
6.909730e-03 1.243222e+04 
8.117797e-03 1.333502e+04 
9.325863e-03 1.396764e+04 
1.053393e-02 1.436831e+04 
1.174199e-02 1.457546e+04 
1.295006e-02 1.461203e+04 
1.415813e-02 1.451088e+04 
1.536619e-02 1.430187e+04 
1.657426e-02 1.400560e+04 
1.778233e-02 1.364582e+04 
1.899039e-02 1.325320e+04 
2.019846e-02 1.283126e+04 
2.140652e-02 1.238914e+04 
2.261459e-02 1.193829e+04 
2.382266e-02 1.149262e+04 
2.503072e-02 1.106206e+04 
2.623879e-02 1.065148e+04 
2.744685e-02 1.026274e+04 
2.865492e-02 9.900383e+03 
2.986299e-02 9.565144e+03 
3.100100e-02 9.274356e+03 
3.220400e-02 8.993083e+03 
3.288100e-02 8.846555e+03 
3.424300e-02 8.575425e+03 
3.555100e-02 8.341644e+03 
3.686000e-02 8.131248e+03 
3.795000e-02 7.971134e+03 
3.929100e-02 7.790929e+03 
4.039800e-02 7.652771e+03 
4.164000e-02 7.506111e+03 
4.294400e-02 7.357664e+03 
4.415000e-02 7.224192e+03 
4.542900e-02 7.081684e+03 
4.660900e-02 6.950219e+03 
4.782300e-02 6.808653e+03 
4.892900e-02 6.677100e+03 
5.031200e-02 6.506601e+03 
5.155900e-02 6.345886e+03 
5.238100e-02 6.237099e+03 
5.378200e-02 6.047649e+03 
5.513400e-02 5.859975e+03 
5.627600e-02 5.699524e+03 
5.735300e-02 5.548382e+03 
5.870100e-02 5.361246e+03 
5.988700e-02 5.200422e+03 
6.113500e-02 5.035674e+03 
6.225900e-02 4.891858e+03 
6.340100e-02 4.750615e+03 
6.480200e-02 4.584643e+03 
6.601100e-02 4.448411e+03 
6.725500e-02 4.315652e+03 
6.829100e-02 4.211837e+03 
6.958600e-02 4.090242e+03 
7.071100e-02 3.992912e+03 
7.192300e-02 3.896388e+03 
7.307400e-02 3.812510e+03 
7.412300e-02 3.742327e+03 
7.550400e-02 3.659155e+03 
7.663100e-02 3.597373e+03 
7.791200e-02 3.534591e+03 
7.912700e-02 3.480844e+03 
8.027600e-02 3.433887e+03 
8.138400e-02 3.391388e+03 
8.272200e-02 3.342975e+03 
8.406100e-02 3.296600e+03 
8.534100e-02 3.253020e+03 
8.653800e-02 3.211843e+03 
8.759800e-02 3.174909e+03 
8.900300e-02 3.124603e+03 
9.009000e-02 3.083985e+03 
9.113300e-02 3.042998e+03 
9.239600e-02 2.992019e+03 
9.358000e-02 2.942116e+03 
9.496100e-02 2.880660e+03 
9.608400e-02 2.829489e+03 
9.727500e-02 2.774641e+03 
9.852600e-02 2.714207e+03 
9.973800e-02 2.655884e+03 
1.009000e-01 2.600339e+03 
1.020900e-01 2.542855e+03 
1.034000e-01 2.481027e+03 
1.046000e-01 2.425652e+03 
1.057200e-01 2.375426e+03 
1.069100e-01 2.323776e+03 
1.082500e-01 2.268238e+03 
1.093900e-01 2.223439e+03 
1.105400e-01 2.180081e+03 
1.116900e-01 2.139910e+03 
1.129600e-01 2.097587e+03 
1.142000e-01 2.059728e+03 
1.153300e-01 2.027255e+03 
1.166400e-01 1.992336e+03 
1.177800e-01 1.964529e+03 
1.190000e-01 1.936337e+03 
1.201200e-01 1.913003e+03 
1.213400e-01 1.888532e+03 
1.227100e-01 1.863948e+03 
1.238900e-01 1.843610e+03 
1.250700e-01 1.824651e+03 
1.263200e-01 1.805163e+03 
1.275500e-01 1.786714e+03 
1.287500e-01 1.768945e+03 
1.299900e-01 1.750710e+03 
1.311300e-01 1.733771e+03 
1.323500e-01 1.715212e+03 
1.335900e-01 1.695915e+03 
1.347100e-01 1.677722e+03 
1.359800e-01 1.656697e+03 
1.372100e-01 1.635106e+03 
1.384300e-01 1.613461e+03 
1.395700e-01 1.591995e+03 
1.407700e-01 1.569685e+03 
1.420300e-01 1.544808e+03 
1.432800e-01 1.520696e+03 
1.444500e-01 1.497260e+03 
1.456300e-01 1.474136e+03 
1.468900e-01 1.449660e+03 
1.480500e-01 1.427526e+03 
1.491700e-01 1.406744e+03 
1.503800e-01 1.384950e+03 
1.516400e-01 1.362946e+03 
1.528200e-01 1.343624e+03 
1.540200e-01 1.324376e+03 
1.551900e-01 1.307091e+03 
1.564300e-01 1.289405e+03 
1.576600e-01 1.272856e+03 
1.588700e-01 1.257662e+03 
1.600900e-01 1.242697e+03 
1.612700e-01 1.229628e+03 
1.625400e-01 1.215825e+03 
1.637600e-01 1.203272e+03 
1.649500e-01 1.191515e+03 
1.662200e-01 1.179235e+03 
1.674000e-01 1.168251e+03 
1.685000e-01 1.158182e+03 
1.697500e-01 1.146833e+03 
1.710300e-01 1.135320e+03 
1.722200e-01 1.124806e+03 
1.734400e-01 1.113715e+03 
1.746400e-01 1.102972e+03 
1.758700e-01 1.091937e+03 
1.770900e-01 1.080749e+03 
1.782700e-01 1.070109e+03 
1.794600e-01 1.059195e+03 
1.807000e-01 1.047772e+03 
1.819100e-01 1.036814e+03 
1.830100e-01 1.026633e+03 
1.842200e-01 1.015548e+03 
1.855000e-01 1.004011e+03 
1.867000e-01 9.931223e+02 
1.879200e-01 9.822353e+02 
1.890900e-01 9.719530e+02 
1.902800e-01 9.616024e+02 
1.915200e-01 9.509934e+02 
1.926900e-01 9.411687e+02 
1.939000e-01 9.312461e+02 
1.951700e-01 9.210017e+02 
1.963100e-01 9.120019e+02 
1.975100e-01 9.028077e+02 
1.987800e-01 8.932320e+02 
2.000100e-01 8.841779e+02 
2.012500e-01 8.753592e+02 
2.023400e-01 8.677208e+02 
2.036100e-01 8.589976e+02 
2.048900e-01 8.505204e+02 
2.060400e-01 8.430176e+02 
2.072200e-01 8.354413e+02 
2.084200e-01 8.280046e+02 
2.096900e-01 8.202505e+02 
2.109200e-01 8.128526e+02 
2.121100e-01 8.058853e+02 
2.132700e-01 7.991920e+02 
2.145200e-01 7.920809e+02 
2.157200e-01 7.853775e+02 
2.168800e-01 7.789979e+02 
2.180700e-01 7.725417e+02 
2.193400e-01 7.657421e+02 
2.206000e-01 7.590817e+02 
2.217500e-01 7.530856e+02 
2.229500e-01 7.469113e+02 
2.241400e-01 7.408243e+02 
2.253500e-01 7.347166e+02 
2.264900e-01 7.290371e+02 
2.277100e-01 7.230098e+02 
2.289900e-01 7.167414e+02 
2.301500e-01 7.111364e+02 
2.313600e-01 7.053647e+02 
2.325600e-01 6.996610e+02 
2.337700e-01 6.939845e+02 
2.350000e-01 6.882897e+02 
2.362000e-01 6.827885e+02 
2.374100e-01 6.772919e+02 
2.386500e-01 6.717320e+02 
2.399100e-01 6.661569e+02 
2.410400e-01 6.612030e+02 
2.422500e-01 6.559611e+02 
2.435000e-01 6.506152e+02 
2.447300e-01 6.454228e+02 
2.458700e-01 6.406716e+02 
2.470600e-01 6.357712e+02 
2.483300e-01 6.306069e+02 
2.495600e-01 6.256732e+02 
2.507600e-01 6.209251e+02 
2.519600e-01 6.162342e+02 
2.532200e-01 6.113693e+02 
2.543700e-01 6.069960e+02 
2.555500e-01 6.025696e+02 
2.568000e-01 5.979367e+02 
2.580100e-01 5.935060e+02 
2.592400e-01 5.890734e+02 
2.604100e-01 5.849139e+02 
2.616100e-01 5.806965e+02 
2.628400e-01 5.764241e+02 
2.640600e-01 5.722534e+02 
2.652200e-01 5.683397e+02 
2.664300e-01 5.643030e+02 
2.676500e-01 5.602795e+02 
2.688400e-01 5.564108e+02 
2.700700e-01 5.524644e+02 
2.712400e-01 5.487523e+02 
2.724800e-01 5.448619e+02 
2.736700e-01 5.411788e+02 
2.748800e-01 5.374838e+02 
2.761000e-01 5.337995e+02 
2.773200e-01 5.301560e+02 
2.785400e-01 5.265557e+02 
2.797000e-01 5.231756e+02 
2.808900e-01 5.197445e+02 
2.821400e-01 5.161796e+02 
2.833900e-01 5.126544e+02 
2.845500e-01 5.094212e+02 
2.857800e-01 5.060288e+02 
2.870300e-01 5.026188e+02 
2.882100e-01 4.994338e+02 
2.893900e-01 4.962830e+02 
2.906300e-01 4.930074e+02 
2.918900e-01 4.897149e+02 
2.930500e-01 4.867151e+02 
2.942500e-01 4.836426e+02 
2.954200e-01 4.806751e+02 
2.966500e-01 4.775873e+02 
2.978900e-01 4.745068e+02 
2.990400e-01 4.716786e+02 
3.002700e-01 4.686807e+02 
3.015100e-01 4.656882e+02 
3.026800e-01 4.628928e+02 
3.038500e-01 4.601246e+02 
3.050300e-01 4.573597e+02 
3.062600e-01 4.545015e+02 
3.075000e-01 4.516493e+02 
3.087000e-01 4.489165e+02 
3.099100e-01 4.461879e+02 
3.111200e-01 4.434858e+02 
3.123100e-01 4.408535e+02 
3.135300e-01 4.381810e+02 
3.147300e-01 4.355777e+02 
3.159900e-01 4.328711e+02 
3.171800e-01 4.303389e+02 
3.183700e-01 4.278300e+02 
3.196300e-01 4.251992e+02 
3.208400e-01 4.226973e+02 
3.220300e-01 4.202599e+02 
3.232000e-01 4.178875e+02 
3.244300e-01 4.154174e+02 
3.256700e-01 4.129510e+02 
3.269200e-01 4.104886e+02 
3.280800e-01 4.082247e+02 
3.292500e-01 4.059662e+02 
3.304800e-01 4.036152e+02 
3.317100e-01 4.012861e+02 
3.328900e-01 3.990720e+02 
3.340700e-01 3.968777e+02 
3.353600e-01 3.945075e+02 
3.365300e-01 3.923801e+02 
3.377100e-01 3.902532e+02 
3.389200e-01 3.880917e+02 
3.401600e-01 3.858966e+02 
3.413700e-01 3.837818e+02 
3.425300e-01 3.817775e+02 
3.437700e-01 3.796537e+02 
3.449800e-01 3.775998e+02 
3.461800e-01 3.755808e+02 
3.473600e-01 3.736164e+02 
3.485800e-01 3.716127e+02 
3.498100e-01 3.696103e+02 
3.510200e-01 3.676577e+02 
3.522000e-01 3.657697e+02 
3.533900e-01 3.638817e+02 
3.546400e-01 3.619304e+02 
3.558400e-01 3.600741e+02 
3.570600e-01 3.582029e+02 
3.582700e-01 3.563628e+02 
3.595000e-01 3.545082e+02 
3.607100e-01 3.527077e+02 
3.618900e-01 3.509731e+02 
3.631200e-01 3.491799e+02 
3.643200e-01 3.474451e+02 
3.655500e-01 3.456817e+02 
3.667300e-01 3.440039e+02 
3.679500e-01 3.423004e+02 
3.691900e-01 3.405834e+02 
3.703600e-01 3.389764e+02 
3.715700e-01 3.373278e+02 
3.727700e-01 3.357061e+02 
3.739900e-01 3.340764e+02 
3.752000e-01 3.324837e+02 
3.763900e-01 3.309298e+02 
3.775800e-01 3.293880e+02 
3.788200e-01 3.277944e+02 
3.800300e-01 3.262517e+02 
3.812100e-01 3.247672e+02 
3.824200e-01 3.232622e+02 
3.836100e-01 3.217936e+02 
3.848600e-01 3.202630e+02 
3.860400e-01 3.188296e+02 
3.872400e-01 3.173829e+02 
3.884600e-01 3.159339e+02 
3.896500e-01 3.145352e+02 
3.908700e-01 3.131122e+02 
3.920600e-01 3.117348e+02 
3.933100e-01 3.102991e+02 
3.945300e-01 3.089087e+02 
3.957200e-01 3.075734e+02 
3.969300e-01 3.062287e+02 
3.981700e-01 3.048613e+02 
3.993500e-01 3.035698e+02 
4.094840e-01 2.928949e+02 
4.272360e-01 2.759345e+02 
4.454600e-01 2.603849e+02 
4.630560e-01 2.468537e+02 
4.804610e-01 2.346781e+02 
4.980690e-01 2.234061e+02 
5.159230e-01 2.129127e+02 
5.317440e-01 2.043161e+02 
5.489640e-01 1.956338e+02 
5.671990e-01 1.871351e+02 
5.838690e-01 1.799354e+02 
6.018840e-01 1.727117e+02 
6.202330e-01 1.659020e+02 
6.379250e-01 1.598040e+02 
6.545410e-01 1.544756e+02 
6.714560e-01 1.493983e+02 
6.892080e-01 1.444230e+02 
7.066010e-01 1.398724e+02 
7.240540e-01 1.355899e+02 
7.420450e-01 1.314619e+02 
7.593780e-01 1.277302e+02 
7.764720e-01 1.242603e+02 
7.942840e-01 1.208534e+02 
8.116170e-01 1.177276e+02 
8.288310e-01 1.147929e+02 
8.462240e-01 1.119823e+02 
8.631980e-01 1.093773e+02 
8.810700e-01 1.067704e+02 
8.989410e-01 1.042927e+02 
9.166330e-01 1.019570e+02 
9.345640e-01 9.969982e+01 
9.515980e-01 9.765022e+01 
9.688720e-01 9.565848e+01 
9.865640e-01 9.370397e+01 
1.031870e+00 8.904587e+01 
1.063490e+00 8.605682e+01 
1.097920e+00 8.302012e+01 
1.134370e+00 8.001772e+01 
1.167730e+00 7.744530e+01 
1.203830e+00 7.482318e+01 
1.240470e+00 7.232365e+01 
1.275790e+00 7.004689e+01 
1.309140e+00 6.801438e+01 
1.342970e+00 6.604578e+01 
1.378420e+00 6.408909e+01 
1.413200e+00 6.226013e+01 
1.448110e+00 6.050750e+01 
1.484090e+00 5.878690e+01 
1.518820e+00 5.719853e+01 
1.552880e+00 5.570472e+01 
1.588630e+00 5.420199e+01 
1.623230e+00 5.280911e+01 
1.657720e+00 5.147580e+01 
1.692450e+00 5.018623e+01 
1.726400e+00 4.897034e+01 
1.762200e+00 4.773586e+01 
1.797880e+00 4.655333e+01 
1.833270e+00 4.542417e+01 
1.869070e+00 4.432274e+01 
1.903200e+00 4.331029e+01 
1.937740e+00 4.232047e+01 
1.973190e+00 4.133893e+01 
2.007440e+00 4.042274e+01 
2.042160e+00 3.952424e+01 
2.077900e+00 3.862941e+01 
2.112390e+00 3.779442e+01 
2.146220e+00 3.699956e+01 
2.181600e+00 3.619443e+01 
2.216930e+00 3.541564e+01 
2.250760e+00 3.469268e+01 
2.286500e+00 3.395207e+01 
2.321770e+00 3.324348e+01 
2.355950e+00 3.257699e+01 
2.391280e+00 3.190667e+01 
2.426240e+00 3.126281e+01 
2.460670e+00 3.064734e+01 
2.495640e+00 3.004053e+01 
2.531080e+00 2.944126e+01 
2.566220e+00 2.886370e+01 
2.600830e+00 2.831085e+01 
2.635080e+00 2.777889e+01 
2.670340e+00 2.724430e+01 
2.705970e+00 2.671927e+01 
2.740040e+00 2.623095e+01 
2.774520e+00 2.574859e+01 
2.809730e+00 2.526842e+01 
2.844390e+00 2.480840e+01 
2.879960e+00 2.434814e+01 
2.914860e+00 2.390773e+01 
2.949410e+00 2.348311e+01 
2.984440e+00 2.306253e+01 
3.019760e+00 2.264907e+01 
3.054730e+00 2.225037e+01 
3.089030e+00 2.186744e+01 
3.124060e+00 2.148626e+01 
3.159560e+00 2.110935e+01 
3.194710e+00 2.074473e+01 
3.229010e+00 2.039786e+01 
3.263320e+00 2.005765e+01 
3.297930e+00 1.972287e+01 
3.332830e+00 1.939281e+01 
3.368040e+00 1.906745e+01 
3.403300e+00 1.874935e+01 
3.438450e+00 1.843894e+01 
3.473060e+00 1.814074e+01 
3.508440e+00 1.784188e+01 
3.543110e+00 1.755611e+01 
3.577470e+00 1.727842e+01 
3.613040e+00 1.699767e+01 
3.648120e+00 1.672654e+01 
3.682910e+00 1.646366e+01 
3.718050e+00 1.620353e+01 
3.753320e+00 1.594825e+01 
3.787980e+00 1.570265e+01 
3.822290e+00 1.546469e+01 
3.857020e+00 1.522865e+01 
3.891920e+00 1.499647e+01 
3.926650e+00 1.476988e+01 
3.961970e+00 1.454445e+01 
3.997360e+00 1.432309e+01 
4.031670e+00 1.411312e+01 
4.066330e+00 1.390499e+01 
4.101420e+00 1.369889e+01 
4.136200e+00 1.349817e+01 
4.170810e+00 1.330274e+01 
4.206250e+00 1.310641e+01 
4.241580e+00 1.291483e+01 
4.276300e+00 1.273010e+01 
4.310970e+00 1.254924e+01 
4.346120e+00 1.236952e+01 
4.380600e+00 1.219656e+01 
4.414730e+00 1.202883e+01 
4.450350e+00 1.185686e+01 
4.485320e+00 1.169152e+01 
4.519810e+00 1.153137e+01 
4.555430e+00 1.136916e+01 
4.590870e+00 1.121094e+01 
4.625480e+00 1.105927e+01 
4.659910e+00 1.091133e+01 
4.695230e+00 1.076224e+01 
4.729960e+00 1.061847e+01 
4.764450e+00 1.047828e+01 
4.799530e+00 1.033819e+01 
4.834910e+00 1.019962e+01 
4.869700e+00 1.006581e+01 
4.904370e+00 9.934930e+00 
4.939450e+00 9.804940e+00 
4.973940e+00 9.679393e+00 
5.008430e+00 9.556143e+00 
5.043810e+00 9.431898e+00 
5.078840e+00 9.311068e+00 
5.113500e+00 9.193684e+00 
5.148890e+00 9.075857e+00 
5.184210e+00 8.960396e+00 
5.219060e+00 8.848501e+00 
5.253660e+00 8.739331e+00 
5.288570e+00 8.631117e+00 
5.323420e+00 8.524954e+00 
5.358440e+00 8.420103e+00 
5.393590e+00 8.316696e+00 
5.428310e+00 8.216293e+00 
5.462800e+00 8.118238e+00 
5.497640e+00 8.020863e+00 
5.532670e+00 7.924606e+00 
5.567280e+00 7.831098e+00 
5.602000e+00 7.738852e+00 
5.637270e+00 7.646726e+00 
5.672410e+00 7.556475e+00 
5.707020e+00 7.469047e+00 
5.742040e+00 7.382077e+00 
5.777430e+00 7.295641e+00 
5.812210e+00 7.212076e+00 
5.846820e+00 7.130267e+00 
5.881610e+00 7.049345e+00 
5.916510e+00 6.969457e+00 
5.951600e+00 6.890450e+00 
5.986560e+00 6.812999e+00 
6.021830e+00 6.736091e+00 
6.056490e+00 6.661752e+00 
6.091160e+00 6.588584e+00 
6.125830e+00 6.516536e+00 
6.161090e+00 6.444419e+00 
6.195760e+00 6.374659e+00 
6.230420e+00 6.305969e+00 
6.265690e+00 6.237131e+00 
6.300950e+00 6.169438e+00 
6.335620e+00 6.103874e+00 
6.370880e+00 6.038186e+00 
6.405550e+00 5.974643e+00 
6.440220e+00 5.912065e+00 
6.475480e+00 5.849354e+00 
6.510150e+00 5.788623e+00 
6.544810e+00 5.728849e+00 
6.580080e+00 5.668901e+00 
6.614750e+00 5.610821e+00 
6.649410e+00 5.553700e+00 
6.684080e+00 5.497393e+00 
6.719340e+00 5.440938e+00 
6.754010e+00 5.386246e+00 
6.788680e+00 5.332398e+00 
6.823940e+00 5.278397e+00 
6.859800e+00 5.224253e+00 
6.894470e+00 5.172720e+00 
6.929140e+00 5.121921e+00 
6.963800e+00 5.071826e+00 
6.999070e+00 5.021551e+00 
7.033730e+00 4.972937e+00 
7.068400e+00 4.924959e+00 
7.103660e+00 4.876819e+00 
7.138330e+00 4.830163e+00 
7.173600e+00 4.783424e+00 
7.208260e+00 4.738101e+00 
7.243530e+00 4.692588e+00 
7.277600e+00 4.649253e+00 
7.312860e+00 4.605037e+00 
7.348120e+00 4.561401e+00 
7.382790e+00 4.519050e+00 
7.417460e+00 4.477331e+00 
7.452720e+00 4.435494e+00 
7.487390e+00 4.394882e+00 
7.522650e+00 4.354103e+00 
7.557320e+00 4.314606e+00 
7.591990e+00 4.275635e+00 
7.627250e+00 4.236498e+00 
7.662510e+00 4.197854e+00 
7.697180e+00 4.160421e+00 
7.731850e+00 4.123484e+00 
7.766510e+00 4.087007e+00 
7.801180e+00 4.050964e+00 
7.836440e+00 4.014835e+00 
7.871110e+00 3.979792e+00 
7.906380e+00 3.944575e+00 
7.941040e+00 3.910383e+00 
7.976310e+00 3.876052e+00 
8.011570e+00 3.842195e+00 
8.046240e+00 3.809302e+00 
8.080900e+00 3.776805e+00 
8.115570e+00 3.744706e+00 
8.150830e+00 3.712551e+00 
8.185500e+00 3.681304e+00 
8.220770e+00 3.649887e+00 
8.255430e+00 3.619371e+00 
8.290100e+00 3.589291e+00 
8.324770e+00 3.559564e+00 
8.359430e+00 3.530184e+00 
8.394700e+00 3.500629e+00 
8.429960e+00 3.471479e+00 
8.464630e+00 3.443202e+00 
8.499890e+00 3.414768e+00 
8.534560e+00 3.387124e+00 
8.569200e+00 3.359810e+00 
