# Parameters:
# omega_b = 0.022634, omega_m = 0.123583, n_s = 0.996457, h = 69.881890, w = -1.000000, sigma_8 = 0.770866
# z = 1.300000
#
# k[1/Mpc] # P(k):
8.694000e-04 5.547931e+03 
2.077466e-03 1.201551e+04 
3.285532e-03 1.700823e+04 
4.493598e-03 2.075378e+04 
5.701664e-03 2.344035e+04 
6.909730e-03 2.525055e+04 
8.117797e-03 2.638529e+04 
9.325863e-03 2.694910e+04 
1.053393e-02 2.704550e+04 
1.174199e-02 2.676867e+04 
1.295006e-02 2.617975e+04 
1.415813e-02 2.535930e+04 
1.536619e-02 2.437636e+04 
1.657426e-02 2.327961e+04 
1.778233e-02 2.211719e+04 
1.899039e-02 2.095416e+04 
2.019846e-02 1.981050e+04 
2.140652e-02 1.870394e+04 
2.261459e-02 1.765169e+04 
2.382266e-02 1.667253e+04 
2.503072e-02 1.577635e+04 
2.623879e-02 1.496476e+04 
2.744685e-02 1.423847e+04 
2.865492e-02 1.359393e+04 
2.986299e-02 1.302503e+04 
3.100100e-02 1.255535e+04 
3.220400e-02 1.212072e+04 
3.288100e-02 1.190296e+04 
3.424300e-02 1.151285e+04 
3.555100e-02 1.118799e+04 
3.686000e-02 1.090309e+04 
3.795000e-02 1.068872e+04 
3.929100e-02 1.044629e+04 
4.039800e-02 1.025611e+04 
4.164000e-02 1.004810e+04 
4.294400e-02 9.824779e+03 
4.415000e-02 9.615136e+03 
4.542900e-02 9.377994e+03 
4.660900e-02 9.151759e+03 
4.782300e-02 8.898774e+03 
4.892900e-02 8.660343e+03 
5.031200e-02 8.348525e+03 
5.155900e-02 8.055435e+03 
5.238100e-02 7.858876e+03 
5.378200e-02 7.521392e+03 
5.513400e-02 7.195780e+03 
5.627600e-02 6.925248e+03 
5.735300e-02 6.677487e+03 
5.870100e-02 6.380983e+03 
5.988700e-02 6.135594e+03 
6.113500e-02 5.894220e+03 
6.225900e-02 5.692957e+03 
6.340100e-02 5.504264e+03 
6.480200e-02 5.292486e+03 
6.601100e-02 5.128626e+03 
6.725500e-02 4.976610e+03 
6.829100e-02 4.863687e+03 
6.958600e-02 4.735951e+03 
7.071100e-02 4.638065e+03 
7.192300e-02 4.544197e+03 
7.307400e-02 4.464945e+03 
7.412300e-02 4.399945e+03 
7.550400e-02 4.323933e+03 
7.663100e-02 4.267342e+03 
7.791200e-02 4.208249e+03 
7.912700e-02 4.154613e+03 
8.027600e-02 4.104521e+03 
8.138400e-02 4.055908e+03 
8.272200e-02 3.995443e+03 
8.406100e-02 3.931890e+03 
8.534100e-02 3.865980e+03 
8.653800e-02 3.799434e+03 
8.759800e-02 3.737707e+03 
8.900300e-02 3.651265e+03 
9.009000e-02 3.580482e+03 
9.113300e-02 3.509333e+03 
9.239600e-02 3.421656e+03 
9.358000e-02 3.337437e+03 
9.496100e-02 3.237287e+03 
9.608400e-02 3.156478e+03 
9.727500e-02 3.072021e+03 
9.852600e-02 2.984609e+03 
9.973800e-02 2.903148e+03 
1.009000e-01 2.827911e+03 
1.020900e-01 2.755814e+03 
1.034000e-01 2.681027e+03 
1.046000e-01 2.616844e+03 
1.057200e-01 2.563145e+03 
1.069100e-01 2.509477e+03 
1.082500e-01 2.456125e+03 
1.093900e-01 2.415490e+03 
1.105400e-01 2.377555e+03 
1.116900e-01 2.345122e+03 
1.129600e-01 2.311688e+03 
1.142000e-01 2.283340e+03 
1.153300e-01 2.259098e+03 
1.166400e-01 2.233178e+03 
1.177800e-01 2.211590e+03 
1.190000e-01 2.189240e+03 
1.201200e-01 2.168143e+03 
1.213400e-01 2.145518e+03 
1.227100e-01 2.117644e+03 
1.238900e-01 2.093398e+03 
1.250700e-01 2.066909e+03 
1.263200e-01 2.038308e+03 
1.275500e-01 2.008165e+03 
1.287500e-01 1.978135e+03 
1.299900e-01 1.945763e+03 
1.311300e-01 1.915708e+03 
1.323500e-01 1.882808e+03 
1.335900e-01 1.849590e+03 
1.347100e-01 1.819504e+03 
1.359800e-01 1.786038e+03 
1.372100e-01 1.754100e+03 
1.384300e-01 1.723291e+03 
1.395700e-01 1.695408e+03 
1.407700e-01 1.666813e+03 
1.420300e-01 1.638402e+03 
1.432800e-01 1.610883e+03 
1.444500e-01 1.586951e+03 
1.456300e-01 1.563331e+03 
1.468900e-01 1.539740e+03 
1.480500e-01 1.518804e+03 
1.491700e-01 1.499529e+03 
1.503800e-01 1.479804e+03 
1.516400e-01 1.459889e+03 
1.528200e-01 1.442482e+03 
1.540200e-01 1.425124e+03 
1.551900e-01 1.409123e+03 
1.564300e-01 1.392635e+03 
1.576600e-01 1.376781e+03 
1.588700e-01 1.361699e+03 
1.600900e-01 1.346780e+03 
1.612700e-01 1.332647e+03 
1.625400e-01 1.317719e+03 
1.637600e-01 1.303462e+03 
1.649500e-01 1.289699e+03 
1.662200e-01 1.275199e+03 
1.674000e-01 1.261515e+03 
1.685000e-01 1.248975e+03 
1.697500e-01 1.234639e+03 
1.710300e-01 1.219901e+03 
1.722200e-01 1.206448e+03 
1.734400e-01 1.192266e+03 
1.746400e-01 1.178539e+03 
1.758700e-01 1.164559e+03 
1.770900e-01 1.150618e+03 
1.782700e-01 1.137370e+03 
1.794600e-01 1.124076e+03 
1.807000e-01 1.110359e+03 
1.819100e-01 1.097210e+03 
1.830100e-01 1.085425e+03 
1.842200e-01 1.072670e+03 
1.855000e-01 1.059423e+03 
1.867000e-01 1.047393e+03 
1.879200e-01 1.035368e+03 
1.890900e-01 1.024075e+03 
1.902800e-01 1.013027e+03 
1.915200e-01 1.001704e+03 
1.926900e-01 9.912801e+02 
1.939000e-01 9.809512e+02 
1.951700e-01 9.702868e+02 
1.963100e-01 9.609513e+02 
1.975100e-01 9.515044e+02 
1.987800e-01 9.416642e+02 
2.000100e-01 9.323603e+02 
2.012500e-01 9.233002e+02 
2.023400e-01 9.154520e+02 
2.036100e-01 9.064679e+02 
2.048900e-01 8.976576e+02 
2.060400e-01 8.898595e+02 
2.072200e-01 8.819730e+02 
2.084200e-01 8.740887e+02 
2.096900e-01 8.658681e+02 
2.109200e-01 8.580252e+02 
2.121100e-01 8.504738e+02 
2.132700e-01 8.432114e+02 
2.145200e-01 8.354964e+02 
2.157200e-01 8.281166e+02 
2.168800e-01 8.210442e+02 
2.180700e-01 8.138880e+02 
2.193400e-01 8.063067e+02 
2.206000e-01 7.987974e+02 
2.217500e-01 7.920385e+02 
2.229500e-01 7.850805e+02 
2.241400e-01 7.781406e+02 
2.253500e-01 7.711770e+02 
2.264900e-01 7.647035e+02 
2.277100e-01 7.578130e+02 
2.289900e-01 7.506244e+02 
2.301500e-01 7.441988e+02 
2.313600e-01 7.375841e+02 
2.325600e-01 7.310338e+02 
2.337700e-01 7.245170e+02 
2.350000e-01 7.179816e+02 
2.362000e-01 7.116721e+02 
2.374100e-01 7.053718e+02 
2.386500e-01 6.990015e+02 
2.399100e-01 6.926160e+02 
2.410400e-01 6.869621e+02 
2.422500e-01 6.809839e+02 
2.435000e-01 6.748892e+02 
2.447300e-01 6.689778e+02 
2.458700e-01 6.635946e+02 
2.470600e-01 6.580442e+02 
2.483300e-01 6.521969e+02 
2.495600e-01 6.466312e+02 
2.507600e-01 6.413018e+02 
2.519600e-01 6.360382e+02 
2.532200e-01 6.305809e+02 
2.543700e-01 6.257047e+02 
2.555500e-01 6.207897e+02 
2.568000e-01 6.156467e+02 
2.580100e-01 6.107296e+02 
2.592400e-01 6.058474e+02 
2.604100e-01 6.012827e+02 
2.616100e-01 5.966555e+02 
2.628400e-01 5.919690e+02 
2.640600e-01 5.874281e+02 
2.652200e-01 5.831807e+02 
2.664300e-01 5.788007e+02 
2.676500e-01 5.744357e+02 
2.688400e-01 5.702625e+02 
2.700700e-01 5.660204e+02 
2.712400e-01 5.620308e+02 
2.724800e-01 5.578501e+02 
2.736700e-01 5.539063e+02 
2.748800e-01 5.499643e+02 
2.761000e-01 5.460342e+02 
2.773200e-01 5.421481e+02 
2.785400e-01 5.383142e+02 
2.797000e-01 5.347269e+02 
2.808900e-01 5.310860e+02 
2.821400e-01 5.273035e+02 
2.833900e-01 5.235639e+02 
2.845500e-01 5.201440e+02 
2.857800e-01 5.165563e+02 
2.870300e-01 5.129502e+02 
2.882100e-01 5.095824e+02 
2.893900e-01 5.062558e+02 
2.906300e-01 5.028004e+02 
2.918900e-01 4.993273e+02 
2.930500e-01 4.961634e+02 
2.942500e-01 4.929246e+02 
2.954200e-01 4.898019e+02 
2.966500e-01 4.865528e+02 
2.978900e-01 4.833117e+02 
2.990400e-01 4.803363e+02 
3.002700e-01 4.771875e+02 
3.015100e-01 4.740469e+02 
3.026800e-01 4.711135e+02 
3.038500e-01 4.682087e+02 
3.050300e-01 4.653078e+02 
3.062600e-01 4.623171e+02 
3.075000e-01 4.593327e+02 
3.087000e-01 4.564735e+02 
3.099100e-01 4.536190e+02 
3.111200e-01 4.507951e+02 
3.123100e-01 4.480492e+02 
3.135300e-01 4.452615e+02 
3.147300e-01 4.425463e+02 
3.159900e-01 4.397234e+02 
3.171800e-01 4.370878e+02 
3.183700e-01 4.344799e+02 
3.196300e-01 4.317454e+02 
3.208400e-01 4.291451e+02 
3.220300e-01 4.266119e+02 
3.232000e-01 4.241505e+02 
3.244300e-01 4.215897e+02 
3.256700e-01 4.190328e+02 
3.269200e-01 4.164802e+02 
3.280800e-01 4.141334e+02 
3.292500e-01 4.117960e+02 
3.304800e-01 4.093641e+02 
3.317100e-01 4.069549e+02 
3.328900e-01 4.046648e+02 
3.340700e-01 4.023952e+02 
3.353600e-01 3.999462e+02 
3.365300e-01 3.977490e+02 
3.377100e-01 3.955524e+02 
3.389200e-01 3.933201e+02 
3.401600e-01 3.910533e+02 
3.413700e-01 3.888696e+02 
3.425300e-01 3.868002e+02 
3.437700e-01 3.846075e+02 
3.449800e-01 3.824871e+02 
3.461800e-01 3.804027e+02 
3.473600e-01 3.783745e+02 
3.485800e-01 3.763049e+02 
3.498100e-01 3.742367e+02 
3.510200e-01 3.722200e+02 
3.522000e-01 3.702701e+02 
3.533900e-01 3.683203e+02 
3.546400e-01 3.663017e+02 
3.558400e-01 3.643813e+02 
3.570600e-01 3.624455e+02 
3.582700e-01 3.605420e+02 
3.595000e-01 3.586236e+02 
3.607100e-01 3.567588e+02 
3.618900e-01 3.549604e+02 
3.631200e-01 3.531015e+02 
3.643200e-01 3.513031e+02 
3.655500e-01 3.494751e+02 
3.667300e-01 3.477359e+02 
3.679500e-01 3.459646e+02 
3.691900e-01 3.441793e+02 
3.703600e-01 3.425086e+02 
3.715700e-01 3.407946e+02 
3.727700e-01 3.391086e+02 
3.739900e-01 3.374122e+02 
3.752000e-01 3.357503e+02 
3.763900e-01 3.341289e+02 
3.775800e-01 3.325204e+02 
3.788200e-01 3.308577e+02 
3.800300e-01 3.292484e+02 
3.812100e-01 3.276963e+02 
3.824200e-01 3.261205e+02 
3.836100e-01 3.245829e+02 
3.848600e-01 3.229806e+02 
3.860400e-01 3.214800e+02 
3.872400e-01 3.199657e+02 
3.884600e-01 3.184446e+02 
3.896500e-01 3.169748e+02 
3.908700e-01 3.154796e+02 
3.920600e-01 3.140324e+02 
3.933100e-01 3.125241e+02 
3.945300e-01 3.110634e+02 
3.957200e-01 3.096560e+02 
3.969300e-01 3.082375e+02 
3.981700e-01 3.067950e+02 
3.993500e-01 3.054327e+02 
4.094840e-01 2.941602e+02 
4.272360e-01 2.761665e+02 
4.454600e-01 2.596539e+02 
4.630560e-01 2.453141e+02 
4.804610e-01 2.324700e+02 
4.980690e-01 2.206554e+02 
5.159230e-01 2.097348e+02 
5.317440e-01 2.008474e+02 
5.489640e-01 1.919295e+02 
5.671990e-01 1.832568e+02 
5.838690e-01 1.759451e+02 
6.018840e-01 1.686399e+02 
6.202330e-01 1.617789e+02 
6.379250e-01 1.556490e+02 
6.545410e-01 1.503033e+02 
6.714560e-01 1.452147e+02 
6.892080e-01 1.402328e+02 
7.066010e-01 1.356773e+02 
7.240540e-01 1.313916e+02 
7.420450e-01 1.272587e+02 
7.593780e-01 1.235208e+02 
7.764720e-01 1.200449e+02 
7.942840e-01 1.166303e+02 
8.116170e-01 1.134959e+02 
8.288310e-01 1.105512e+02 
8.462240e-01 1.077306e+02 
8.631980e-01 1.051151e+02 
8.810700e-01 1.024973e+02 
8.989410e-01 1.000084e+02 
9.166330e-01 9.766208e+01 
9.345640e-01 9.539586e+01 
9.515980e-01 9.333745e+01 
9.688720e-01 9.133754e+01 
9.865640e-01 8.937578e+01 
1.031870e+00 8.470499e+01 
1.063490e+00 8.171309e+01 
1.097920e+00 7.867783e+01 
1.134370e+00 7.568289e+01 
1.167730e+00 7.312179e+01 
1.203830e+00 7.051786e+01 
1.240470e+00 6.804092e+01 
1.275790e+00 6.579177e+01 
1.309140e+00 6.378754e+01 
1.342970e+00 6.185245e+01 
1.378420e+00 5.993280e+01 
1.413200e+00 5.814337e+01 
1.448110e+00 5.643366e+01 
1.484090e+00 5.475795e+01 
1.518820e+00 5.321535e+01 
1.552880e+00 5.176859e+01 
1.588630e+00 5.031651e+01 
1.623230e+00 4.897317e+01 
1.657720e+00 4.768931e+01 
1.692450e+00 4.645092e+01 
1.726400e+00 4.528604e+01 
1.762200e+00 4.410536e+01 
1.797880e+00 4.297651e+01 
1.833270e+00 4.190048e+01 
1.869070e+00 4.085284e+01 
1.903200e+00 3.989143e+01 
1.937740e+00 3.895320e+01 
1.973190e+00 3.802424e+01 
2.007440e+00 3.715862e+01 
2.042160e+00 3.631089e+01 
2.077900e+00 3.546764e+01 
2.112390e+00 3.468223e+01 
2.146220e+00 3.393540e+01 
2.181600e+00 3.318002e+01 
2.216930e+00 3.245024e+01 
2.250760e+00 3.177358e+01 
2.286500e+00 3.108115e+01 
2.321770e+00 3.041942e+01 
2.355950e+00 2.979788e+01 
2.391280e+00 2.917330e+01 
2.426240e+00 2.857404e+01 
2.460670e+00 2.800173e+01 
2.495640e+00 2.743792e+01 
2.531080e+00 2.688175e+01 
2.566220e+00 2.634610e+01 
2.600830e+00 2.583382e+01 
2.635080e+00 2.534135e+01 
2.670340e+00 2.484714e+01 
2.705970e+00 2.436192e+01 
2.740040e+00 2.391081e+01 
2.774520e+00 2.346556e+01 
2.809730e+00 2.302272e+01 
2.844390e+00 2.259873e+01 
2.879960e+00 2.217494e+01 
2.914860e+00 2.176955e+01 
2.949410e+00 2.137884e+01 
2.984440e+00 2.099224e+01 
3.019760e+00 2.061226e+01 
3.054730e+00 2.024592e+01 
3.089030e+00 1.989451e+01 
3.124060e+00 1.954479e+01 
3.159560e+00 1.919907e+01 
3.194710e+00 1.886488e+01 
3.229010e+00 1.854704e+01 
3.263320e+00 1.823549e+01 
3.297930e+00 1.792896e+01 
3.332830e+00 1.762688e+01 
3.368040e+00 1.732922e+01 
3.403300e+00 1.703829e+01 
3.438450e+00 1.675457e+01 
3.473060e+00 1.648206e+01 
3.508440e+00 1.620897e+01 
3.543110e+00 1.594790e+01 
3.577470e+00 1.569444e+01 
3.613040e+00 1.543818e+01 
3.648120e+00 1.519066e+01 
3.682910e+00 1.495075e+01 
3.718050e+00 1.471349e+01 
3.753320e+00 1.448068e+01 
3.787980e+00 1.425672e+01 
3.822290e+00 1.403975e+01 
3.857020e+00 1.382457e+01 
3.891920e+00 1.361295e+01 
3.926650e+00 1.340649e+01 
3.961970e+00 1.320110e+01 
3.997360e+00 1.299949e+01 
4.031670e+00 1.280826e+01 
4.066330e+00 1.261870e+01 
4.101420e+00 1.243100e+01 
4.136200e+00 1.224824e+01 
4.170810e+00 1.207030e+01 
4.206250e+00 1.189152e+01 
4.241580e+00 1.171708e+01 
4.276300e+00 1.154892e+01 
4.310970e+00 1.138432e+01 
4.346120e+00 1.122077e+01 
4.380600e+00 1.106336e+01 
4.414730e+00 1.091070e+01 
4.450350e+00 1.075420e+01 
4.485320e+00 1.060373e+01 
4.519810e+00 1.045801e+01 
4.555430e+00 1.031041e+01 
4.590870e+00 1.016645e+01 
4.625480e+00 1.002843e+01 
4.659910e+00 9.893823e+00 
4.695230e+00 9.758184e+00 
4.729960e+00 9.627383e+00 
4.764450e+00 9.499854e+00 
4.799530e+00 9.372420e+00 
4.834910e+00 9.246377e+00 
4.869700e+00 9.124633e+00 
4.904370e+00 9.005561e+00 
4.939450e+00 8.887298e+00 
4.973940e+00 8.773073e+00 
5.008430e+00 8.660941e+00 
5.043810e+00 8.547894e+00 
5.078840e+00 8.437951e+00 
5.113500e+00 8.331145e+00 
5.148890e+00 8.223953e+00 
5.184210e+00 8.118916e+00 
5.219060e+00 8.017121e+00 
5.253660e+00 7.917792e+00 
5.288570e+00 7.819335e+00 
5.323420e+00 7.722734e+00 
5.358440e+00 7.627314e+00 
5.393590e+00 7.533211e+00 
5.428310e+00 7.441847e+00 
5.462800e+00 7.352622e+00 
5.497640e+00 7.264019e+00 
5.532670e+00 7.176435e+00 
5.567280e+00 7.091355e+00 
5.602000e+00 7.007426e+00 
5.637270e+00 6.923595e+00 
5.672410e+00 6.841470e+00 
5.707020e+00 6.761917e+00 
5.742040e+00 6.682780e+00 
5.777430e+00 6.604131e+00 
5.812210e+00 6.528097e+00 
5.846820e+00 6.453648e+00 
5.881610e+00 6.380006e+00 
5.916510e+00 6.307307e+00 
5.951600e+00 6.235408e+00 
5.986560e+00 6.164925e+00 
6.021830e+00 6.094940e+00 
6.056490e+00 6.027295e+00 
6.091160e+00 5.960720e+00 
6.125830e+00 5.895167e+00 
6.161090e+00 5.829548e+00 
6.195760e+00 5.766067e+00 
6.230420e+00 5.703562e+00 
6.265690e+00 5.640925e+00 
6.300950e+00 5.579340e+00 
6.335620e+00 5.519695e+00 
6.370880e+00 5.459939e+00 
6.405550e+00 5.402126e+00 
6.440220e+00 5.345188e+00 
6.475480e+00 5.288132e+00 
6.510150e+00 5.232879e+00 
6.544810e+00 5.178502e+00 
6.580080e+00 5.123969e+00 
6.614750e+00 5.071137e+00 
6.649410e+00 5.019179e+00 
6.684080e+00 4.967962e+00 
6.719340e+00 4.916612e+00 
6.754010e+00 4.866871e+00 
6.788680e+00 4.817904e+00 
6.823940e+00 4.768801e+00 
6.859800e+00 4.719570e+00 
6.894470e+00 4.672716e+00 
6.929140e+00 4.626532e+00 
6.963800e+00 4.580989e+00 
6.999070e+00 4.535286e+00 
7.033730e+00 4.491089e+00 
7.068400e+00 4.447473e+00 
7.103660e+00 4.403711e+00 
7.138330e+00 4.361301e+00 
7.173600e+00 4.318817e+00 
7.208260e+00 4.277622e+00 
7.243530e+00 4.236257e+00 
7.277600e+00 4.196879e+00 
7.312860e+00 4.156708e+00 
7.348120e+00 4.117065e+00 
7.382790e+00 4.078591e+00 
7.417460e+00 4.040701e+00 
7.452720e+00 4.002708e+00 
7.487390e+00 3.965829e+00 
7.522650e+00 3.928800e+00 
7.557320e+00 3.892937e+00 
7.591990e+00 3.857554e+00 
7.627250e+00 3.822022e+00 
7.662510e+00 3.786939e+00 
7.697180e+00 3.752962e+00 
7.731850e+00 3.719438e+00 
7.766510e+00 3.686334e+00 
7.801180e+00 3.653625e+00 
7.836440e+00 3.620841e+00 
7.871110e+00 3.589044e+00 
7.906380e+00 3.557091e+00 
7.941040e+00 3.526069e+00 
7.976310e+00 3.494929e+00 
8.011570e+00 3.464228e+00 
8.046240e+00 3.434402e+00 
8.080900e+00 3.404936e+00 
8.115570e+00 3.375833e+00 
8.150830e+00 3.346682e+00 
8.185500e+00 3.318355e+00 
8.220770e+00 3.289875e+00 
8.255430e+00 3.262213e+00 
8.290100e+00 3.234961e+00 
8.324770e+00 3.208033e+00 
8.359430e+00 3.181420e+00 
8.394700e+00 3.154648e+00 
8.429960e+00 3.128251e+00 
8.464630e+00 3.102648e+00 
8.499890e+00 3.076905e+00 
8.534560e+00 3.051877e+00 
8.569200e+00 3.027149e+00 
