# Parameters:
# omega_b = 0.023091, omega_m = 0.139291, n_s = 0.909843, h = 63.267717, w = -1.000000, sigma_8 = 0.739370
# z = 1.300000
#
# k[1/Mpc] # P(k):
8.694000e-04 5.459735e+03 
2.077466e-03 1.112340e+04 
3.285532e-03 1.534369e+04 
4.493598e-03 1.847903e+04 
5.701664e-03 2.072357e+04 
6.909730e-03 2.224530e+04 
8.117797e-03 2.321652e+04 
9.325863e-03 2.372545e+04 
1.053393e-02 2.385657e+04 
1.174199e-02 2.368484e+04 
1.295006e-02 2.325826e+04 
1.415813e-02 2.263956e+04 
1.536619e-02 2.188233e+04 
1.657426e-02 2.102397e+04 
1.778233e-02 2.010301e+04 
1.899039e-02 1.917347e+04 
2.019846e-02 1.824766e+04 
2.140652e-02 1.733667e+04 
2.261459e-02 1.645424e+04 
2.382266e-02 1.561765e+04 
2.503072e-02 1.483725e+04 
2.623879e-02 1.411623e+04 
2.744685e-02 1.345523e+04 
2.865492e-02 1.285542e+04 
2.986299e-02 1.231384e+04 
3.100100e-02 1.185516e+04 
3.220400e-02 1.142045e+04 
3.288100e-02 1.119784e+04 
3.424300e-02 1.079179e+04 
3.555100e-02 1.044724e+04 
3.686000e-02 1.014114e+04 
3.795000e-02 9.910070e+03 
3.929100e-02 9.651130e+03 
4.039800e-02 9.452312e+03 
4.164000e-02 9.240566e+03 
4.294400e-02 9.024050e+03 
4.415000e-02 8.827682e+03 
4.542900e-02 8.615510e+03 
4.660900e-02 8.418508e+03 
4.782300e-02 8.205004e+03 
4.892900e-02 8.006543e+03 
5.031200e-02 7.749801e+03 
5.155900e-02 7.509512e+03 
5.238100e-02 7.348125e+03 
5.378200e-02 7.069887e+03 
5.513400e-02 6.798755e+03 
5.627600e-02 6.570738e+03 
5.735300e-02 6.359388e+03 
5.870100e-02 6.102797e+03 
5.988700e-02 5.887103e+03 
6.113500e-02 5.671405e+03 
6.225900e-02 5.488013e+03 
6.340100e-02 5.312532e+03 
6.480200e-02 5.111378e+03 
6.601100e-02 4.950843e+03 
6.725500e-02 4.797597e+03 
6.829100e-02 4.679947e+03 
6.958600e-02 4.543593e+03 
7.071100e-02 4.435687e+03 
7.192300e-02 4.329428e+03 
7.307400e-02 4.237499e+03 
7.412300e-02 4.160678e+03 
7.550400e-02 4.069382e+03 
7.663100e-02 4.001102e+03 
7.791200e-02 3.930505e+03 
7.912700e-02 3.868436e+03 
8.027600e-02 3.812683e+03 
8.138400e-02 3.760788e+03 
8.272200e-02 3.699581e+03 
8.406100e-02 3.638796e+03 
8.534100e-02 3.579484e+03 
8.653800e-02 3.522137e+03 
8.759800e-02 3.470182e+03 
8.900300e-02 3.398984e+03 
9.009000e-02 3.341573e+03 
9.113300e-02 3.284198e+03 
9.239600e-02 3.213538e+03 
9.358000e-02 3.145471e+03 
9.496100e-02 3.063711e+03 
9.608400e-02 2.997006e+03 
9.727500e-02 2.926632e+03 
9.852600e-02 2.851918e+03 
9.973800e-02 2.781199e+03 
1.009000e-01 2.714975e+03 
1.020900e-01 2.649102e+03 
1.034000e-01 2.579492e+03 
1.046000e-01 2.518403e+03 
1.057200e-01 2.464923e+03 
1.069100e-01 2.410583e+03 
1.082500e-01 2.353917e+03 
1.093900e-01 2.309130e+03 
1.105400e-01 2.266316e+03 
1.116900e-01 2.227589e+03 
1.129600e-01 2.187013e+03 
1.142000e-01 2.151129e+03 
1.153300e-01 2.120266e+03 
1.166400e-01 2.086959e+03 
1.177800e-01 2.059868e+03 
1.190000e-01 2.032119e+03 
1.201200e-01 2.007931e+03 
1.213400e-01 1.982326e+03 
1.227100e-01 1.954356e+03 
1.238900e-01 1.930722e+03 
1.250700e-01 1.907085e+03 
1.263200e-01 1.882250e+03 
1.275500e-01 1.857538e+03 
1.287500e-01 1.833392e+03 
1.299900e-01 1.808076e+03 
1.311300e-01 1.784662e+03 
1.323500e-01 1.759161e+03 
1.335900e-01 1.733164e+03 
1.347100e-01 1.709309e+03 
1.359800e-01 1.682363e+03 
1.372100e-01 1.655870e+03 
1.384300e-01 1.629873e+03 
1.395700e-01 1.605344e+03 
1.407700e-01 1.580028e+03 
1.420300e-01 1.553383e+03 
1.432800e-01 1.527572e+03 
1.444500e-01 1.503719e+03 
1.456300e-01 1.480186e+03 
1.468900e-01 1.455859e+03 
1.480500e-01 1.434027e+03 
1.491700e-01 1.413657e+03 
1.503800e-01 1.392458e+03 
1.516400e-01 1.371036e+03 
1.528200e-01 1.352164e+03 
1.540200e-01 1.333361e+03 
1.551900e-01 1.316193e+03 
1.564300e-01 1.298554e+03 
1.576600e-01 1.281815e+03 
1.588700e-01 1.266158e+03 
1.600900e-01 1.250709e+03 
1.612700e-01 1.236669e+03 
1.625400e-01 1.221844e+03 
1.637600e-01 1.208065e+03 
1.649500e-01 1.194982e+03 
1.662200e-01 1.181274e+03 
1.674000e-01 1.168748e+03 
1.685000e-01 1.157269e+03 
1.697500e-01 1.144299e+03 
1.710300e-01 1.131113e+03 
1.722200e-01 1.119076e+03 
1.734400e-01 1.106503e+03 
1.746400e-01 1.094334e+03 
1.758700e-01 1.081925e+03 
1.770900e-01 1.069519e+03 
1.782700e-01 1.057727e+03 
1.794600e-01 1.045805e+03 
1.807000e-01 1.033443e+03 
1.819100e-01 1.021590e+03 
1.830100e-01 1.010798e+03 
1.842200e-01 9.990869e+02 
1.855000e-01 9.869129e+02 
1.867000e-01 9.756323e+02 
1.879200e-01 9.643571e+02 
1.890900e-01 9.537343e+02 
1.902800e-01 9.431636e+02 
1.915200e-01 9.323315e+02 
1.926900e-01 9.223206e+02 
1.939000e-01 9.122719e+02 
1.951700e-01 9.018992e+02 
1.963100e-01 8.927934e+02 
1.975100e-01 8.835061e+02 
1.987800e-01 8.738349e+02 
2.000100e-01 8.646832e+02 
2.012500e-01 8.557506e+02 
2.023400e-01 8.480146e+02 
2.036100e-01 8.391691e+02 
2.048900e-01 8.305267e+02 
2.060400e-01 8.228792e+02 
2.072200e-01 8.151527e+02 
2.084200e-01 8.075061e+02 
2.096900e-01 7.995349e+02 
2.109200e-01 7.919313e+02 
2.121100e-01 7.847109e+02 
2.132700e-01 7.777727e+02 
2.145200e-01 7.704031e+02 
2.157200e-01 7.634219e+02 
2.168800e-01 7.567631e+02 
2.180700e-01 7.500258e+02 
2.193400e-01 7.429194e+02 
2.206000e-01 7.359371e+02 
2.217500e-01 7.296529e+02 
2.229500e-01 7.231838e+02 
2.241400e-01 7.167878e+02 
2.253500e-01 7.103713e+02 
2.264900e-01 7.044065e+02 
2.277100e-01 6.980734e+02 
2.289900e-01 6.914837e+02 
2.301500e-01 6.855933e+02 
2.313600e-01 6.795295e+02 
2.325600e-01 6.735364e+02 
2.337700e-01 6.675738e+02 
2.350000e-01 6.615941e+02 
2.362000e-01 6.558194e+02 
2.374100e-01 6.500513e+02 
2.386500e-01 6.442189e+02 
2.399100e-01 6.383726e+02 
2.410400e-01 6.331850e+02 
2.422500e-01 6.276982e+02 
2.435000e-01 6.221045e+02 
2.447300e-01 6.166754e+02 
2.458700e-01 6.117169e+02 
2.470600e-01 6.066043e+02 
2.483300e-01 6.012183e+02 
2.495600e-01 5.960824e+02 
2.507600e-01 5.911523e+02 
2.519600e-01 5.862830e+02 
2.532200e-01 5.812347e+02 
2.543700e-01 5.767114e+02 
2.555500e-01 5.721437e+02 
2.568000e-01 5.673643e+02 
2.580100e-01 5.627949e+02 
2.592400e-01 5.582443e+02 
2.604100e-01 5.539837e+02 
2.616100e-01 5.496648e+02 
2.628400e-01 5.452909e+02 
2.640600e-01 5.410415e+02 
2.652200e-01 5.370624e+02 
2.664300e-01 5.329593e+02 
2.676500e-01 5.288706e+02 
2.688400e-01 5.249544e+02 
2.700700e-01 5.209693e+02 
2.712400e-01 5.172216e+02 
2.724800e-01 5.132948e+02 
2.736700e-01 5.095870e+02 
2.748800e-01 5.058774e+02 
2.761000e-01 5.021793e+02 
2.773200e-01 4.985227e+02 
2.785400e-01 4.949143e+02 
2.797000e-01 4.915355e+02 
2.808900e-01 4.881063e+02 
2.821400e-01 4.845440e+02 
2.833900e-01 4.810224e+02 
2.845500e-01 4.777997e+02 
2.857800e-01 4.744189e+02 
2.870300e-01 4.710212e+02 
2.882100e-01 4.678482e+02 
2.893900e-01 4.647129e+02 
2.906300e-01 4.614556e+02 
2.918900e-01 4.581821e+02 
2.930500e-01 4.552001e+02 
2.942500e-01 4.521472e+02 
2.954200e-01 4.492022e+02 
2.966500e-01 4.461381e+02 
2.978900e-01 4.430819e+02 
2.990400e-01 4.402764e+02 
3.002700e-01 4.373056e+02 
3.015100e-01 4.343416e+02 
3.026800e-01 4.315735e+02 
3.038500e-01 4.288326e+02 
3.050300e-01 4.260954e+02 
3.062600e-01 4.232697e+02 
3.075000e-01 4.204503e+02 
3.087000e-01 4.177495e+02 
3.099100e-01 4.150532e+02 
3.111200e-01 4.123846e+02 
3.123100e-01 4.097875e+02 
3.135300e-01 4.071511e+02 
3.147300e-01 4.045835e+02 
3.159900e-01 4.019143e+02 
3.171800e-01 3.994201e+02 
3.183700e-01 3.969511e+02 
3.196300e-01 3.943624e+02 
3.208400e-01 3.919009e+02 
3.220300e-01 3.895032e+02 
3.232000e-01 3.871717e+02 
3.244300e-01 3.847454e+02 
3.256700e-01 3.823230e+02 
3.269200e-01 3.799050e+02 
3.280800e-01 3.776821e+02 
3.292500e-01 3.754669e+02 
3.304800e-01 3.731616e+02 
3.317100e-01 3.708783e+02 
3.328900e-01 3.687080e+02 
3.340700e-01 3.665574e+02 
3.353600e-01 3.642366e+02 
3.365300e-01 3.621545e+02 
3.377100e-01 3.600732e+02 
3.389200e-01 3.579583e+02 
3.401600e-01 3.558108e+02 
3.413700e-01 3.537428e+02 
3.425300e-01 3.517836e+02 
3.437700e-01 3.497079e+02 
3.449800e-01 3.477007e+02 
3.461800e-01 3.457279e+02 
3.473600e-01 3.438089e+02 
3.485800e-01 3.418524e+02 
3.498100e-01 3.398974e+02 
3.510200e-01 3.379912e+02 
3.522000e-01 3.361484e+02 
3.533900e-01 3.343058e+02 
3.546400e-01 3.324015e+02 
3.558400e-01 3.305902e+02 
3.570600e-01 3.287646e+02 
3.582700e-01 3.269696e+02 
3.595000e-01 3.251606e+02 
3.607100e-01 3.234046e+02 
3.618900e-01 3.217128e+02 
3.631200e-01 3.199642e+02 
3.643200e-01 3.182727e+02 
3.655500e-01 3.165535e+02 
3.667300e-01 3.149180e+02 
3.679500e-01 3.132570e+02 
3.691900e-01 3.115830e+02 
3.703600e-01 3.100165e+02 
3.715700e-01 3.084097e+02 
3.727700e-01 3.068291e+02 
3.739900e-01 3.052406e+02 
3.752000e-01 3.036875e+02 
3.763900e-01 3.021724e+02 
3.775800e-01 3.006694e+02 
3.788200e-01 2.991159e+02 
3.800300e-01 2.976123e+02 
3.812100e-01 2.961651e+02 
3.824200e-01 2.946979e+02 
3.836100e-01 2.932663e+02 
3.848600e-01 2.917745e+02 
3.860400e-01 2.903775e+02 
3.872400e-01 2.889678e+02 
3.884600e-01 2.875553e+02 
3.896500e-01 2.861917e+02 
3.908700e-01 2.848046e+02 
3.920600e-01 2.834621e+02 
3.933100e-01 2.820630e+02 
3.945300e-01 2.807081e+02 
3.957200e-01 2.794064e+02 
3.969300e-01 2.780955e+02 
3.981700e-01 2.767625e+02 
3.993500e-01 2.755037e+02 
4.094840e-01 2.651050e+02 
4.272360e-01 2.486012e+02 
4.454600e-01 2.335146e+02 
4.630560e-01 2.204385e+02 
4.804610e-01 2.087288e+02 
4.980690e-01 1.979462e+02 
5.159230e-01 1.879646e+02 
5.317440e-01 1.798285e+02 
5.489640e-01 1.716521e+02 
5.671990e-01 1.636889e+02 
5.838690e-01 1.569701e+02 
6.018840e-01 1.502540e+02 
6.202330e-01 1.439458e+02 
6.379250e-01 1.383114e+02 
6.545410e-01 1.334007e+02 
6.714560e-01 1.287297e+02 
6.892080e-01 1.241604e+02 
7.066010e-01 1.199869e+02 
7.240540e-01 1.160649e+02 
7.420450e-01 1.122876e+02 
7.593780e-01 1.088759e+02 
7.764720e-01 1.057066e+02 
7.942840e-01 1.025971e+02 
8.116170e-01 9.974598e+01 
8.288310e-01 9.707108e+01 
8.462240e-01 9.451110e+01 
8.631980e-01 9.214023e+01 
8.810700e-01 8.976940e+01 
8.989410e-01 8.751794e+01 
9.166330e-01 8.539723e+01 
9.345640e-01 8.335023e+01 
9.515980e-01 8.149312e+01 
9.688720e-01 7.969038e+01 
9.865640e-01 7.792335e+01 
1.031870e+00 7.372205e+01 
1.063490e+00 7.103515e+01 
1.097920e+00 6.831231e+01 
1.134370e+00 6.562960e+01 
1.167730e+00 6.333823e+01 
1.203830e+00 6.101195e+01 
1.240470e+00 5.880169e+01 
1.275790e+00 5.679711e+01 
1.309140e+00 5.501257e+01 
1.342970e+00 5.329227e+01 
1.378420e+00 5.158728e+01 
1.413200e+00 4.999983e+01 
1.448110e+00 4.848457e+01 
1.484090e+00 4.700138e+01 
1.518820e+00 4.563748e+01 
1.552880e+00 4.435962e+01 
1.588630e+00 4.307837e+01 
1.623230e+00 4.189443e+01 
1.657720e+00 4.076421e+01 
1.692450e+00 3.967478e+01 
1.726400e+00 3.865118e+01 
1.762200e+00 3.761490e+01 
1.797880e+00 3.662505e+01 
1.833270e+00 3.568234e+01 
1.869070e+00 3.476561e+01 
1.903200e+00 3.392507e+01 
1.937740e+00 3.310537e+01 
1.973190e+00 3.229460e+01 
2.007440e+00 3.153967e+01 
2.042160e+00 3.080111e+01 
2.077900e+00 3.006719e+01 
2.112390e+00 2.938391e+01 
2.146220e+00 2.873496e+01 
2.181600e+00 2.807903e+01 
2.216930e+00 2.744593e+01 
2.250760e+00 2.685930e+01 
2.286500e+00 2.625945e+01 
2.321770e+00 2.568666e+01 
2.355950e+00 2.514891e+01 
2.391280e+00 2.460921e+01 
2.426240e+00 2.409168e+01 
2.460670e+00 2.359769e+01 
2.495640e+00 2.311135e+01 
2.531080e+00 2.263208e+01 
2.566220e+00 2.217083e+01 
2.600830e+00 2.172994e+01 
2.635080e+00 2.130630e+01 
2.670340e+00 2.088145e+01 
2.705970e+00 2.046464e+01 
2.740040e+00 2.007738e+01 
2.774520e+00 1.969543e+01 
2.809730e+00 1.931579e+01 
2.844390e+00 1.895245e+01 
2.879960e+00 1.858942e+01 
2.914860e+00 1.824248e+01 
2.949410e+00 1.790827e+01 
2.984440e+00 1.757773e+01 
3.019760e+00 1.725310e+01 
3.054730e+00 1.694030e+01 
3.089030e+00 1.664037e+01 
3.124060e+00 1.634201e+01 
3.159560e+00 1.604726e+01 
3.194710e+00 1.576247e+01 
3.229010e+00 1.549172e+01 
3.263320e+00 1.522648e+01 
3.297930e+00 1.496563e+01 
3.332830e+00 1.470874e+01 
3.368040e+00 1.445570e+01 
3.403300e+00 1.420845e+01 
3.438450e+00 1.396748e+01 
3.473060e+00 1.373608e+01 
3.508440e+00 1.350439e+01 
3.543110e+00 1.328294e+01 
3.577470e+00 1.306801e+01 
3.613040e+00 1.285079e+01 
3.648120e+00 1.264115e+01 
3.682910e+00 1.243800e+01 
3.718050e+00 1.223716e+01 
3.753320e+00 1.204016e+01 
3.787980e+00 1.185074e+01 
3.822290e+00 1.166730e+01 
3.857020e+00 1.148544e+01 
3.891920e+00 1.130665e+01 
3.926650e+00 1.113229e+01 
3.961970e+00 1.095887e+01 
3.997360e+00 1.078870e+01 
4.031670e+00 1.062734e+01 
4.066330e+00 1.046750e+01 
4.101420e+00 1.030925e+01 
4.136200e+00 1.015522e+01 
4.170810e+00 1.000529e+01 
4.206250e+00 9.854738e+00 
4.241580e+00 9.707872e+00 
4.276300e+00 9.566339e+00 
4.310970e+00 9.427830e+00 
4.346120e+00 9.290243e+00 
4.380600e+00 9.157891e+00 
4.414730e+00 9.029555e+00 
4.450350e+00 8.898044e+00 
4.485320e+00 8.771616e+00 
4.519810e+00 8.649220e+00 
4.555430e+00 8.525282e+00 
4.590870e+00 8.404427e+00 
4.625480e+00 8.288628e+00 
4.659910e+00 8.175694e+00 
4.695230e+00 8.061934e+00 
4.729960e+00 7.952246e+00 
4.764450e+00 7.845329e+00 
4.799530e+00 7.738529e+00 
4.834910e+00 7.632908e+00 
4.869700e+00 7.530937e+00 
4.904370e+00 7.431221e+00 
4.939450e+00 7.332204e+00 
4.973940e+00 7.236608e+00 
5.008430e+00 7.142774e+00 
5.043810e+00 7.048209e+00 
5.078840e+00 6.956265e+00 
5.113500e+00 6.866954e+00 
5.148890e+00 6.777352e+00 
5.184210e+00 6.689562e+00 
5.219060e+00 6.604500e+00 
5.253660e+00 6.521535e+00 
5.288570e+00 6.439308e+00 
5.323420e+00 6.358657e+00 
5.358440e+00 6.279021e+00 
5.393590e+00 6.200492e+00 
5.428310e+00 6.124270e+00 
5.462800e+00 6.049848e+00 
5.497640e+00 5.975951e+00 
5.532670e+00 5.902927e+00 
5.567280e+00 5.832002e+00 
5.602000e+00 5.762043e+00 
5.637270e+00 5.692203e+00 
5.672410e+00 5.623797e+00 
5.707020e+00 5.557540e+00 
5.742040e+00 5.491654e+00 
5.777430e+00 5.426183e+00 
5.812210e+00 5.362895e+00 
5.846820e+00 5.300958e+00 
5.881610e+00 5.239704e+00 
5.916510e+00 5.179241e+00 
5.951600e+00 5.119463e+00 
5.986560e+00 5.060874e+00 
6.021830e+00 5.002705e+00 
6.056490e+00 4.946496e+00 
6.091160e+00 4.891189e+00 
6.125830e+00 4.836736e+00 
6.161090e+00 4.782242e+00 
6.195760e+00 4.729549e+00 
6.230420e+00 4.677671e+00 
6.265690e+00 4.625687e+00 
6.300950e+00 4.574601e+00 
6.335620e+00 4.525128e+00 
6.370880e+00 4.475567e+00 
6.405550e+00 4.427640e+00 
6.440220e+00 4.380451e+00 
6.475480e+00 4.333168e+00 
6.510150e+00 4.287388e+00 
6.544810e+00 4.242351e+00 
6.580080e+00 4.197188e+00 
6.614750e+00 4.153436e+00 
6.649410e+00 4.110434e+00 
6.684080e+00 4.068051e+00 
6.719340e+00 4.025563e+00 
6.754010e+00 3.984413e+00 
6.788680e+00 3.943920e+00 
6.823940e+00 3.903316e+00 
6.859800e+00 3.862609e+00 
6.894470e+00 3.823890e+00 
6.929140e+00 3.785732e+00 
6.963800e+00 3.748107e+00 
6.999070e+00 3.710353e+00 
7.033730e+00 3.673867e+00 
7.068400e+00 3.637863e+00 
7.103660e+00 3.601741e+00 
7.138330e+00 3.566744e+00 
7.173600e+00 3.531704e+00 
7.208260e+00 3.497730e+00 
7.243530e+00 3.463616e+00 
7.277600e+00 3.431155e+00 
7.312860e+00 3.398052e+00 
7.348120e+00 3.365385e+00 
7.382790e+00 3.333684e+00 
7.417460e+00 3.302475e+00 
7.452720e+00 3.271189e+00 
7.487390e+00 3.240821e+00 
7.522650e+00 3.210331e+00 
7.557320e+00 3.180822e+00 
7.591990e+00 3.151716e+00 
7.627250e+00 3.122489e+00 
7.662510e+00 3.093631e+00 
7.697180e+00 3.065699e+00 
7.731850e+00 3.038145e+00 
7.766510e+00 3.010938e+00 
7.801180e+00 2.984055e+00 
7.836440e+00 2.957128e+00 
7.871110e+00 2.931022e+00 
7.906380e+00 2.904788e+00 
7.941040e+00 2.879320e+00 
7.976310e+00 2.853763e+00 
8.011570e+00 2.828577e+00 
8.046240e+00 2.804110e+00 
8.080900e+00 2.779938e+00 
8.115570e+00 2.756070e+00 
8.150830e+00 2.732180e+00 
8.185500e+00 2.708965e+00 
8.220770e+00 2.685625e+00 
8.255430e+00 2.662957e+00 
8.290100e+00 2.640640e+00 
8.324770e+00 2.618591e+00 
8.359430e+00 2.596799e+00 
8.394700e+00 2.574878e+00 
8.429960e+00 2.553273e+00 
8.464630e+00 2.532329e+00 
8.499890e+00 2.511270e+00 
8.534560e+00 2.490797e+00 
8.569200e+00 2.470570e+00 
