# Parameters:
# omega_b = 0.022980, omega_m = 0.137362, n_s = 0.975984, h = 57.125984, w = -1.000000, sigma_8 = 0.758268
# z = 1.300000
#
# k[1/Mpc] # P(k):
8.694000e-04 4.737935e+03 
2.077466e-03 1.019793e+04 
3.285532e-03 1.447610e+04 
4.493598e-03 1.777206e+04 
5.701664e-03 2.022208e+04 
6.909730e-03 2.195799e+04 
8.117797e-03 2.313209e+04 
9.325863e-03 2.382312e+04 
1.053393e-02 2.411181e+04 
1.174199e-02 2.407346e+04 
1.295006e-02 2.375533e+04 
1.415813e-02 2.322166e+04 
1.536619e-02 2.252977e+04 
1.657426e-02 2.172190e+04 
1.778233e-02 2.085175e+04 
1.899039e-02 1.998537e+04 
2.019846e-02 1.911279e+04 
2.140652e-02 1.823162e+04 
2.261459e-02 1.736417e+04 
2.382266e-02 1.653557e+04 
2.503072e-02 1.575920e+04 
2.623879e-02 1.503960e+04 
2.744685e-02 1.437838e+04 
2.865492e-02 1.377744e+04 
2.986299e-02 1.323433e+04 
3.100100e-02 1.277418e+04 
3.220400e-02 1.233795e+04 
3.288100e-02 1.211449e+04 
3.424300e-02 1.170659e+04 
3.555100e-02 1.135983e+04 
3.686000e-02 1.105088e+04 
3.795000e-02 1.081680e+04 
3.929100e-02 1.055287e+04 
4.039800e-02 1.034889e+04 
4.164000e-02 1.013023e+04 
4.294400e-02 9.904563e+03 
4.415000e-02 9.698761e+03 
4.542900e-02 9.474970e+03 
4.660900e-02 9.266480e+03 
4.782300e-02 9.039809e+03 
4.892900e-02 8.828884e+03 
5.031200e-02 8.555926e+03 
5.155900e-02 8.300467e+03 
5.238100e-02 8.129024e+03 
5.378200e-02 7.833877e+03 
5.513400e-02 7.547433e+03 
5.627600e-02 7.308066e+03 
5.735300e-02 7.088048e+03 
5.870100e-02 6.824191e+03 
5.988700e-02 6.605541e+03 
6.113500e-02 6.389612e+03 
6.225900e-02 6.207509e+03 
6.340100e-02 6.033226e+03 
6.480200e-02 5.831717e+03 
6.601100e-02 5.667675e+03 
6.725500e-02 5.507400e+03 
6.829100e-02 5.381168e+03 
6.958600e-02 5.232016e+03 
7.071100e-02 5.111494e+03 
7.192300e-02 4.991007e+03 
7.307400e-02 4.885484e+03 
7.412300e-02 4.796563e+03 
7.550400e-02 4.690147e+03 
7.663100e-02 4.610316e+03 
7.791200e-02 4.527794e+03 
7.912700e-02 4.455604e+03 
8.027600e-02 4.391205e+03 
8.138400e-02 4.331722e+03 
8.272200e-02 4.262270e+03 
8.406100e-02 4.194050e+03 
8.534100e-02 4.128261e+03 
8.653800e-02 4.065154e+03 
8.759800e-02 4.008208e+03 
8.900300e-02 3.930430e+03 
9.009000e-02 3.867831e+03 
9.113300e-02 3.805285e+03 
9.239600e-02 3.728226e+03 
9.358000e-02 3.653925e+03 
9.496100e-02 3.564535e+03 
9.608400e-02 3.491499e+03 
9.727500e-02 3.414348e+03 
9.852600e-02 3.332269e+03 
9.973800e-02 3.254446e+03 
1.009000e-01 3.181452e+03 
1.020900e-01 3.108598e+03 
1.034000e-01 3.031414e+03 
1.046000e-01 2.963481e+03 
1.057200e-01 2.903637e+03 
1.069100e-01 2.842650e+03 
1.082500e-01 2.778557e+03 
1.093900e-01 2.727528e+03 
1.105400e-01 2.678522e+03 
1.116900e-01 2.633646e+03 
1.129600e-01 2.586422e+03 
1.142000e-01 2.544143e+03 
1.153300e-01 2.507595e+03 
1.166400e-01 2.467858e+03 
1.177800e-01 2.435361e+03 
1.190000e-01 2.401990e+03 
1.201200e-01 2.372881e+03 
1.213400e-01 2.342063e+03 
1.227100e-01 2.308648e+03 
1.238900e-01 2.280503e+03 
1.250700e-01 2.252655e+03 
1.263200e-01 2.223547e+03 
1.275500e-01 2.194915e+03 
1.287500e-01 2.167126e+03 
1.299900e-01 2.138277e+03 
1.311300e-01 2.111752e+03 
1.323500e-01 2.083092e+03 
1.335900e-01 2.053992e+03 
1.347100e-01 2.027442e+03 
1.359800e-01 1.997504e+03 
1.372100e-01 1.968183e+03 
1.384300e-01 1.939413e+03 
1.395700e-01 1.912295e+03 
1.407700e-01 1.884287e+03 
1.420300e-01 1.854752e+03 
1.432800e-01 1.826123e+03 
1.444500e-01 1.799517e+03 
1.456300e-01 1.773254e+03 
1.468900e-01 1.745917e+03 
1.480500e-01 1.721319e+03 
1.491700e-01 1.698244e+03 
1.503800e-01 1.674074e+03 
1.516400e-01 1.649584e+03 
1.528200e-01 1.627753e+03 
1.540200e-01 1.605995e+03 
1.551900e-01 1.585893e+03 
1.564300e-01 1.565175e+03 
1.576600e-01 1.545403e+03 
1.588700e-01 1.526772e+03 
1.600900e-01 1.508380e+03 
1.612700e-01 1.491519e+03 
1.625400e-01 1.473714e+03 
1.637600e-01 1.457144e+03 
1.649500e-01 1.441399e+03 
1.662200e-01 1.424913e+03 
1.674000e-01 1.409917e+03 
1.685000e-01 1.396173e+03 
1.697500e-01 1.380726e+03 
1.710300e-01 1.365103e+03 
1.722200e-01 1.350839e+03 
1.734400e-01 1.336131e+03 
1.746400e-01 1.321903e+03 
1.758700e-01 1.307448e+03 
1.770900e-01 1.293108e+03 
1.782700e-01 1.279474e+03 
1.794600e-01 1.265763e+03 
1.807000e-01 1.251591e+03 
1.819100e-01 1.238000e+03 
1.830100e-01 1.225670e+03 
1.842200e-01 1.212295e+03 
1.855000e-01 1.198386e+03 
1.867000e-01 1.185502e+03 
1.879200e-01 1.172620e+03 
1.890900e-01 1.160474e+03 
1.902800e-01 1.148355e+03 
1.915200e-01 1.135932e+03 
1.926900e-01 1.124434e+03 
1.939000e-01 1.112846e+03 
1.951700e-01 1.100881e+03 
1.963100e-01 1.090357e+03 
1.975100e-01 1.079577e+03 
1.987800e-01 1.068348e+03 
2.000100e-01 1.057703e+03 
2.012500e-01 1.047275e+03 
2.023400e-01 1.038241e+03 
2.036100e-01 1.027902e+03 
2.048900e-01 1.017766e+03 
2.060400e-01 1.008796e+03 
2.072200e-01 9.997295e+02 
2.084200e-01 9.907336e+02 
2.096900e-01 9.813542e+02 
2.109200e-01 9.724059e+02 
2.121100e-01 9.638906e+02 
2.132700e-01 9.557062e+02 
2.145200e-01 9.470115e+02 
2.157200e-01 9.387607e+02 
2.168800e-01 9.308836e+02 
2.180700e-01 9.229125e+02 
2.193400e-01 9.144903e+02 
2.206000e-01 9.061891e+02 
2.217500e-01 8.987169e+02 
2.229500e-01 8.910237e+02 
2.241400e-01 8.833656e+02 
2.253500e-01 8.756807e+02 
2.264900e-01 8.685360e+02 
2.277100e-01 8.609131e+02 
2.289900e-01 8.529406e+02 
2.301500e-01 8.458135e+02 
2.313600e-01 8.384755e+02 
2.325600e-01 8.311385e+02 
2.337700e-01 8.238386e+02 
2.350000e-01 8.165175e+02 
2.362000e-01 8.094091e+02 
2.374100e-01 8.022642e+02 
2.386500e-01 7.950396e+02 
2.399100e-01 7.877979e+02 
2.410400e-01 7.813146e+02 
2.422500e-01 7.744506e+02 
2.435000e-01 7.674532e+02 
2.447300e-01 7.606541e+02 
2.458700e-01 7.544128e+02 
2.470600e-01 7.479782e+02 
2.483300e-01 7.411999e+02 
2.495600e-01 7.347331e+02 
2.507600e-01 7.285203e+02 
2.519600e-01 7.223848e+02 
2.532200e-01 7.160244e+02 
2.543700e-01 7.103388e+02 
2.555500e-01 7.046065e+02 
2.568000e-01 6.986089e+02 
2.580100e-01 6.928754e+02 
2.592400e-01 6.871972e+02 
2.604100e-01 6.818950e+02 
2.616100e-01 6.765206e+02 
2.628400e-01 6.710778e+02 
2.640600e-01 6.658316e+02 
2.652200e-01 6.609356e+02 
2.664300e-01 6.558870e+02 
2.676500e-01 6.508561e+02 
2.688400e-01 6.460734e+02 
2.700700e-01 6.412289e+02 
2.712400e-01 6.366729e+02 
2.724800e-01 6.318988e+02 
2.736700e-01 6.274159e+02 
2.748800e-01 6.229562e+02 
2.761000e-01 6.185100e+02 
2.773200e-01 6.141135e+02 
2.785400e-01 6.097870e+02 
2.797000e-01 6.057614e+02 
2.808900e-01 6.016754e+02 
2.821400e-01 5.974305e+02 
2.833900e-01 5.932347e+02 
2.845500e-01 5.894201e+02 
2.857800e-01 5.854182e+02 
2.870300e-01 5.813955e+02 
2.882100e-01 5.776386e+02 
2.893900e-01 5.739369e+02 
2.906300e-01 5.700968e+02 
2.918900e-01 5.662368e+02 
2.930500e-01 5.627202e+02 
2.942500e-01 5.591217e+02 
2.954200e-01 5.556567e+02 
2.966500e-01 5.520511e+02 
2.978900e-01 5.484542e+02 
2.990400e-01 5.451520e+02 
3.002700e-01 5.416575e+02 
3.015100e-01 5.381719e+02 
3.026800e-01 5.349161e+02 
3.038500e-01 5.316919e+02 
3.050300e-01 5.284717e+02 
3.062600e-01 5.251481e+02 
3.075000e-01 5.218313e+02 
3.087000e-01 5.186535e+02 
3.099100e-01 5.154807e+02 
3.111200e-01 5.123397e+02 
3.123100e-01 5.092818e+02 
3.135300e-01 5.061772e+02 
3.147300e-01 5.031530e+02 
3.159900e-01 5.000089e+02 
3.171800e-01 4.970692e+02 
3.183700e-01 4.941578e+02 
3.196300e-01 4.911049e+02 
3.208400e-01 4.882017e+02 
3.220300e-01 4.853733e+02 
3.232000e-01 4.826209e+02 
3.244300e-01 4.797555e+02 
3.256700e-01 4.768944e+02 
3.269200e-01 4.740380e+02 
3.280800e-01 4.714117e+02 
3.292500e-01 4.687926e+02 
3.304800e-01 4.660662e+02 
3.317100e-01 4.633652e+02 
3.328900e-01 4.607978e+02 
3.340700e-01 4.582532e+02 
3.353600e-01 4.555050e+02 
3.365300e-01 4.530384e+02 
3.377100e-01 4.505724e+02 
3.389200e-01 4.480663e+02 
3.401600e-01 4.455213e+02 
3.413700e-01 4.430690e+02 
3.425300e-01 4.407445e+02 
3.437700e-01 4.382815e+02 
3.449800e-01 4.358996e+02 
3.461800e-01 4.335580e+02 
3.473600e-01 4.312798e+02 
3.485800e-01 4.289556e+02 
3.498100e-01 4.266329e+02 
3.510200e-01 4.243679e+02 
3.522000e-01 4.221779e+02 
3.533900e-01 4.199880e+02 
3.546400e-01 4.177231e+02 
3.558400e-01 4.155685e+02 
3.570600e-01 4.133966e+02 
3.582700e-01 4.112609e+02 
3.595000e-01 4.091083e+02 
3.607100e-01 4.070180e+02 
3.618900e-01 4.050038e+02 
3.631200e-01 4.029216e+02 
3.643200e-01 4.009072e+02 
3.655500e-01 3.988596e+02 
3.667300e-01 3.969114e+02 
3.679500e-01 3.949321e+02 
3.691900e-01 3.929371e+02 
3.703600e-01 3.910700e+02 
3.715700e-01 3.891545e+02 
3.727700e-01 3.872702e+02 
3.739900e-01 3.853762e+02 
3.752000e-01 3.835242e+02 
3.763900e-01 3.817173e+02 
3.775800e-01 3.799246e+02 
3.788200e-01 3.780716e+02 
3.800300e-01 3.762779e+02 
3.812100e-01 3.745512e+02 
3.824200e-01 3.728004e+02 
3.836100e-01 3.710920e+02 
3.848600e-01 3.693116e+02 
3.860400e-01 3.676441e+02 
3.872400e-01 3.659613e+02 
3.884600e-01 3.642749e+02 
3.896500e-01 3.626468e+02 
3.908700e-01 3.609904e+02 
3.920600e-01 3.593871e+02 
3.933100e-01 3.577160e+02 
3.945300e-01 3.560976e+02 
3.957200e-01 3.545429e+02 
3.969300e-01 3.529774e+02 
3.981700e-01 3.513852e+02 
3.993500e-01 3.498815e+02 
4.094840e-01 3.374511e+02 
4.272360e-01 3.177027e+02 
4.454600e-01 2.996111e+02 
4.630560e-01 2.838889e+02 
4.804610e-01 2.697659e+02 
4.980690e-01 2.567187e+02 
5.159230e-01 2.445963e+02 
5.317440e-01 2.346849e+02 
5.489640e-01 2.246901e+02 
5.671990e-01 2.149248e+02 
5.838690e-01 2.066647e+02 
6.018840e-01 1.983872e+02 
6.202330e-01 1.905915e+02 
6.379250e-01 1.836162e+02 
6.545410e-01 1.775236e+02 
6.714560e-01 1.717192e+02 
6.892080e-01 1.660329e+02 
7.066010e-01 1.608304e+02 
7.240540e-01 1.559334e+02 
7.420450e-01 1.512094e+02 
7.593780e-01 1.469345e+02 
7.764720e-01 1.429574e+02 
7.942840e-01 1.390478e+02 
8.116170e-01 1.354566e+02 
8.288310e-01 1.320791e+02 
8.462240e-01 1.288413e+02 
8.631980e-01 1.258349e+02 
8.810700e-01 1.228219e+02 
8.989410e-01 1.199527e+02 
9.166330e-01 1.172436e+02 
9.345640e-01 1.146231e+02 
9.515980e-01 1.122378e+02 
9.688720e-01 1.099156e+02 
9.865640e-01 1.076327e+02 
1.031870e+00 1.021782e+02 
1.063490e+00 9.866672e+01 
1.097920e+00 9.508964e+01 
1.134370e+00 9.154480e+01 
1.167730e+00 8.850038e+01 
1.203830e+00 8.539020e+01 
1.240470e+00 8.242115e+01 
1.275790e+00 7.971304e+01 
1.309140e+00 7.729294e+01 
1.342970e+00 7.494615e+01 
1.378420e+00 7.261246e+01 
1.413200e+00 7.042993e+01 
1.448110e+00 6.833913e+01 
1.484090e+00 6.628501e+01 
1.518820e+00 6.438959e+01 
1.552880e+00 6.260793e+01 
1.588630e+00 6.081671e+01 
1.623230e+00 5.915688e+01 
1.657720e+00 5.756804e+01 
1.692450e+00 5.603367e+01 
1.726400e+00 5.458839e+01 
1.762200e+00 5.312191e+01 
1.797880e+00 5.171842e+01 
1.833270e+00 5.037959e+01 
1.869070e+00 4.907513e+01 
1.903200e+00 4.787746e+01 
1.937740e+00 4.670812e+01 
1.973190e+00 4.554994e+01 
2.007440e+00 4.447058e+01 
2.042160e+00 4.341324e+01 
2.077900e+00 4.236128e+01 
2.112390e+00 4.138158e+01 
2.146220e+00 4.044992e+01 
2.181600e+00 3.950770e+01 
2.216930e+00 3.859759e+01 
2.250760e+00 3.775393e+01 
2.286500e+00 3.689088e+01 
2.321770e+00 3.606634e+01 
2.355950e+00 3.529224e+01 
2.391280e+00 3.451456e+01 
2.426240e+00 3.376885e+01 
2.460670e+00 3.305709e+01 
2.495640e+00 3.235628e+01 
2.531080e+00 3.166533e+01 
2.566220e+00 3.100029e+01 
2.600830e+00 3.036468e+01 
2.635080e+00 2.975409e+01 
2.670340e+00 2.914193e+01 
2.705970e+00 2.854130e+01 
2.740040e+00 2.798327e+01 
2.774520e+00 2.743291e+01 
2.809730e+00 2.688603e+01 
2.844390e+00 2.636285e+01 
2.879960e+00 2.584048e+01 
2.914860e+00 2.534124e+01 
2.949410e+00 2.486043e+01 
2.984440e+00 2.438521e+01 
3.019760e+00 2.391848e+01 
3.054730e+00 2.346882e+01 
3.089030e+00 2.303821e+01 
3.124060e+00 2.260999e+01 
3.159560e+00 2.218707e+01 
3.194710e+00 2.177873e+01 
3.229010e+00 2.139068e+01 
3.263320e+00 2.101089e+01 
3.297930e+00 2.063749e+01 
3.332830e+00 2.026987e+01 
3.368040e+00 1.990809e+01 
3.403300e+00 1.955486e+01 
3.438450e+00 1.921085e+01 
3.473060e+00 1.888064e+01 
3.508440e+00 1.855025e+01 
3.543110e+00 1.823463e+01 
3.577470e+00 1.792878e+01 
3.613040e+00 1.761974e+01 
3.648120e+00 1.732158e+01 
3.682910e+00 1.703288e+01 
3.718050e+00 1.674780e+01 
3.753320e+00 1.646832e+01 
3.787980e+00 1.619978e+01 
3.822290e+00 1.593991e+01 
3.857020e+00 1.568253e+01 
3.891920e+00 1.542964e+01 
3.926650e+00 1.518324e+01 
3.961970e+00 1.493836e+01 
3.997360e+00 1.469836e+01 
4.031670e+00 1.447088e+01 
4.066330e+00 1.424573e+01 
4.101420e+00 1.402288e+01 
4.136200e+00 1.380633e+01 
4.170810e+00 1.359560e+01 
4.206250e+00 1.338422e+01 
4.241580e+00 1.317810e+01 
4.276300e+00 1.297971e+01 
4.310970e+00 1.278571e+01 
4.346120e+00 1.259313e+01 
4.380600e+00 1.240803e+01 
4.414730e+00 1.222860e+01 
4.450350e+00 1.204504e+01 
4.485320e+00 1.186862e+01 
4.519810e+00 1.169804e+01 
4.555430e+00 1.152542e+01 
4.590870e+00 1.135719e+01 
4.625480e+00 1.119613e+01 
4.659910e+00 1.103910e+01 
4.695230e+00 1.088120e+01 
4.729960e+00 1.072902e+01 
4.764450e+00 1.058079e+01 
4.799530e+00 1.043288e+01 
4.834910e+00 1.028663e+01 
4.869700e+00 1.014563e+01 
4.904370e+00 1.000780e+01 
4.939450e+00 9.871012e+00 
4.973940e+00 9.739103e+00 
5.008430e+00 9.609650e+00 
5.043810e+00 9.479321e+00 
5.078840e+00 9.352689e+00 
5.113500e+00 9.229708e+00 
5.148890e+00 9.106538e+00 
5.184210e+00 8.985889e+00 
5.219060e+00 8.869047e+00 
5.253660e+00 8.755210e+00 
5.288570e+00 8.642403e+00 
5.323420e+00 8.531839e+00 
5.358440e+00 8.422755e+00 
5.393590e+00 8.315203e+00 
5.428310e+00 8.210934e+00 
5.462800e+00 8.109198e+00 
5.497640e+00 8.008196e+00 
5.532670e+00 7.908513e+00 
5.567280e+00 7.811745e+00 
5.602000e+00 7.716308e+00 
5.637270e+00 7.621127e+00 
5.672410e+00 7.527933e+00 
5.707020e+00 7.437677e+00 
5.742040e+00 7.348047e+00 
5.777430e+00 7.259015e+00 
5.812210e+00 7.172962e+00 
5.846820e+00 7.088824e+00 
5.881610e+00 7.005640e+00 
5.916510e+00 6.923539e+00 
5.951600e+00 6.842456e+00 
5.986560e+00 6.763028e+00 
6.021830e+00 6.684177e+00 
6.056490e+00 6.608043e+00 
6.091160e+00 6.533182e+00 
6.125830e+00 6.459483e+00 
6.161090e+00 6.385758e+00 
6.195760e+00 6.314519e+00 
6.230420e+00 6.244388e+00 
6.265690e+00 6.174124e+00 
6.300950e+00 6.105160e+00 
6.335620e+00 6.038378e+00 
6.370880e+00 5.971483e+00 
6.405550e+00 5.906837e+00 
6.440220e+00 5.843205e+00 
6.475480e+00 5.779451e+00 
6.510150e+00 5.717751e+00 
6.544810e+00 5.657104e+00 
6.580080e+00 5.596292e+00 
6.614750e+00 5.537385e+00 
6.649410e+00 5.479523e+00 
6.684080e+00 5.422506e+00 
6.719340e+00 5.365349e+00 
6.754010e+00 5.310013e+00 
6.788680e+00 5.255603e+00 
6.823940e+00 5.201047e+00 
6.859800e+00 5.146355e+00 
6.894470e+00 5.094359e+00 
6.929140e+00 5.043129e+00 
6.963800e+00 4.992615e+00 
6.999070e+00 4.941933e+00 
7.033730e+00 4.892986e+00 
7.068400e+00 4.844686e+00 
7.103660e+00 4.796231e+00 
7.138330e+00 4.749294e+00 
7.173600e+00 4.702320e+00 
7.208260e+00 4.656775e+00 
7.243530e+00 4.611046e+00 
7.277600e+00 4.567544e+00 
7.312860e+00 4.523193e+00 
7.348120e+00 4.479429e+00 
7.382790e+00 4.436960e+00 
7.417460e+00 4.395174e+00 
7.452720e+00 4.353296e+00 
7.487390e+00 4.312649e+00 
7.522650e+00 4.271841e+00 
7.557320e+00 4.232347e+00 
7.591990e+00 4.193395e+00 
7.627250e+00 4.154282e+00 
7.662510e+00 4.115664e+00 
7.697180e+00 4.078297e+00 
7.731850e+00 4.041441e+00 
7.766510e+00 4.005049e+00 
7.801180e+00 3.969093e+00 
7.836440e+00 3.933076e+00 
7.871110e+00 3.898159e+00 
7.906380e+00 3.863071e+00 
7.941040e+00 3.829009e+00 
7.976310e+00 3.794832e+00 
8.011570e+00 3.761158e+00 
8.046240e+00 3.728445e+00 
8.080900e+00 3.696128e+00 
8.115570e+00 3.664217e+00 
8.150830e+00 3.632275e+00 
8.185500e+00 3.601237e+00 
8.220770e+00 3.570033e+00 
8.255430e+00 3.539728e+00 
8.290100e+00 3.509898e+00 
8.324770e+00 3.480426e+00 
8.359430e+00 3.451300e+00 
8.394700e+00 3.422002e+00 
8.429960e+00 3.393124e+00 
8.464630e+00 3.365126e+00 
8.499890e+00 3.336976e+00 
8.534560e+00 3.309609e+00 
8.569200e+00 3.282571e+00 
