# Parameters:
# omega_b = 0.023469, omega_m = 0.122756, n_s = 0.985433, h = 56.889764, w = -1.000000, sigma_8 = 0.725197
# z = 1.300000
#
# k[1/Mpc] # P(k):
8.694000e-04 6.270985e+03 
2.077466e-03 1.342461e+04 
3.285532e-03 1.890708e+04 
4.493598e-03 2.300163e+04 
5.701664e-03 2.591956e+04 
6.909730e-03 2.786608e+04 
8.117797e-03 2.906577e+04 
9.325863e-03 2.963469e+04 
1.053393e-02 2.968804e+04 
1.174199e-02 2.933089e+04 
1.295006e-02 2.863067e+04 
1.415813e-02 2.767657e+04 
1.536619e-02 2.654754e+04 
1.657426e-02 2.530328e+04 
1.778233e-02 2.402258e+04 
1.899039e-02 2.279683e+04 
2.019846e-02 2.159824e+04 
2.140652e-02 2.041093e+04 
2.261459e-02 1.926582e+04 
2.382266e-02 1.819499e+04 
2.503072e-02 1.721170e+04 
2.623879e-02 1.631808e+04 
2.744685e-02 1.551466e+04 
2.865492e-02 1.479849e+04 
2.986299e-02 1.416335e+04 
3.100100e-02 1.363597e+04 
3.220400e-02 1.314513e+04 
3.288100e-02 1.289780e+04 
3.424300e-02 1.245260e+04 
3.555100e-02 1.207995e+04 
3.686000e-02 1.175191e+04 
3.795000e-02 1.150485e+04 
3.929100e-02 1.122619e+04 
4.039800e-02 1.100908e+04 
4.164000e-02 1.077370e+04 
4.294400e-02 1.052509e+04 
4.415000e-02 1.029440e+04 
4.542900e-02 1.003755e+04 
4.660900e-02 9.794886e+03 
4.782300e-02 9.526624e+03 
4.892900e-02 9.275314e+03 
5.031200e-02 8.948424e+03 
5.155900e-02 8.642240e+03 
5.238100e-02 8.437274e+03 
5.378200e-02 8.086183e+03 
5.513400e-02 7.749126e+03 
5.627600e-02 7.471280e+03 
5.735300e-02 7.219814e+03 
5.870100e-02 6.924502e+03 
5.988700e-02 6.685862e+03 
6.113500e-02 6.456461e+03 
6.225900e-02 6.268348e+03 
6.340100e-02 6.092563e+03 
6.480200e-02 5.892958e+03 
6.601100e-02 5.733042e+03 
6.725500e-02 5.577881e+03 
6.829100e-02 5.456315e+03 
6.958600e-02 5.312835e+03 
7.071100e-02 5.197262e+03 
7.192300e-02 5.082029e+03 
7.307400e-02 4.981346e+03 
7.412300e-02 4.896619e+03 
7.550400e-02 4.795160e+03 
7.663100e-02 4.718761e+03 
7.791200e-02 4.638900e+03 
7.912700e-02 4.567678e+03 
8.027600e-02 4.502803e+03 
8.138400e-02 4.441585e+03 
8.272200e-02 4.368173e+03 
8.406100e-02 4.294003e+03 
8.534100e-02 4.220300e+03 
8.653800e-02 4.148158e+03 
8.759800e-02 4.082394e+03 
8.900300e-02 3.991817e+03 
9.009000e-02 3.918614e+03 
9.113300e-02 3.845575e+03 
9.239600e-02 3.755877e+03 
9.358000e-02 3.669932e+03 
9.496100e-02 3.567722e+03 
9.608400e-02 3.485087e+03 
9.727500e-02 3.398540e+03 
9.852600e-02 3.308408e+03 
9.973800e-02 3.223983e+03 
1.009000e-01 3.145646e+03 
1.020900e-01 3.069566e+03 
1.034000e-01 2.990013e+03 
1.046000e-01 2.921072e+03 
1.057200e-01 2.862103e+03 
1.069100e-01 2.802632e+03 
1.082500e-01 2.741888e+03 
1.093900e-01 2.694502e+03 
1.105400e-01 2.649568e+03 
1.116900e-01 2.609512e+03 
1.129600e-01 2.567646e+03 
1.142000e-01 2.530733e+03 
1.153300e-01 2.498789e+03 
1.166400e-01 2.464017e+03 
1.177800e-01 2.435043e+03 
1.190000e-01 2.405029e+03 
1.201200e-01 2.377607e+03 
1.213400e-01 2.348346e+03 
1.227100e-01 2.314383e+03 
1.238900e-01 2.285307e+03 
1.250700e-01 2.255033e+03 
1.263200e-01 2.222895e+03 
1.275500e-01 2.190195e+03 
1.287500e-01 2.158119e+03 
1.299900e-01 2.124296e+03 
1.311300e-01 2.093195e+03 
1.323500e-01 2.059584e+03 
1.335900e-01 2.025768e+03 
1.347100e-01 1.995302e+03 
1.359800e-01 1.961382e+03 
1.372100e-01 1.928973e+03 
1.384300e-01 1.897601e+03 
1.395700e-01 1.868987e+03 
1.407700e-01 1.839577e+03 
1.420300e-01 1.809875e+03 
1.432800e-01 1.781089e+03 
1.444500e-01 1.755451e+03 
1.456300e-01 1.730140e+03 
1.468900e-01 1.704362e+03 
1.480500e-01 1.681330e+03 
1.491700e-01 1.659866e+03 
1.503800e-01 1.637567e+03 
1.516400e-01 1.614960e+03 
1.528200e-01 1.594785e+03 
1.540200e-01 1.574670e+03 
1.551900e-01 1.555841e+03 
1.564300e-01 1.536371e+03 
1.576600e-01 1.517577e+03 
1.588700e-01 1.499609e+03 
1.600900e-01 1.481842e+03 
1.612700e-01 1.465052e+03 
1.625400e-01 1.447323e+03 
1.637600e-01 1.430542e+03 
1.649500e-01 1.414430e+03 
1.662200e-01 1.397514e+03 
1.674000e-01 1.381851e+03 
1.685000e-01 1.367501e+03 
1.697500e-01 1.351302e+03 
1.710300e-01 1.334851e+03 
1.722200e-01 1.319836e+03 
1.734400e-01 1.304369e+03 
1.746400e-01 1.289412e+03 
1.758700e-01 1.274266e+03 
1.770900e-01 1.259337e+03 
1.782700e-01 1.245149e+03 
1.794600e-01 1.230999e+03 
1.807000e-01 1.216455e+03 
1.819100e-01 1.202509e+03 
1.830100e-01 1.190033e+03 
1.842200e-01 1.176531e+03 
1.855000e-01 1.162501e+03 
1.867000e-01 1.149696e+03 
1.879200e-01 1.136894e+03 
1.890900e-01 1.124849e+03 
1.902800e-01 1.112959e+03 
1.915200e-01 1.100772e+03 
1.926900e-01 1.089516e+03 
1.939000e-01 1.078250e+03 
1.951700e-01 1.066617e+03 
1.963100e-01 1.056399e+03 
1.975100e-01 1.045963e+03 
1.987800e-01 1.035093e+03 
2.000100e-01 1.024788e+03 
2.012500e-01 1.014688e+03 
2.023400e-01 1.005940e+03 
2.036100e-01 9.959174e+02 
2.048900e-01 9.860565e+02 
2.060400e-01 9.773292e+02 
2.072200e-01 9.685038e+02 
2.084200e-01 9.596859e+02 
2.096900e-01 9.504926e+02 
2.109200e-01 9.417222e+02 
2.121100e-01 9.333064e+02 
2.132700e-01 9.252145e+02 
2.145200e-01 9.166188e+02 
2.157200e-01 9.084142e+02 
2.168800e-01 9.005598e+02 
2.180700e-01 8.926126e+02 
2.193400e-01 8.841944e+02 
2.206000e-01 8.758574e+02 
2.217500e-01 8.683539e+02 
2.229500e-01 8.606298e+02 
2.241400e-01 8.528932e+02 
2.253500e-01 8.451298e+02 
2.264900e-01 8.379134e+02 
2.277100e-01 8.301968e+02 
2.289900e-01 8.221075e+02 
2.301500e-01 8.148777e+02 
2.313600e-01 8.074353e+02 
2.325600e-01 7.999674e+02 
2.337700e-01 7.925393e+02 
2.350000e-01 7.850914e+02 
2.362000e-01 7.778529e+02 
2.374100e-01 7.705686e+02 
2.386500e-01 7.632053e+02 
2.399100e-01 7.558267e+02 
2.410400e-01 7.492166e+02 
2.422500e-01 7.422197e+02 
2.435000e-01 7.350889e+02 
2.447300e-01 7.281630e+02 
2.458700e-01 7.218093e+02 
2.470600e-01 7.152607e+02 
2.483300e-01 7.083646e+02 
2.495600e-01 7.017941e+02 
2.507600e-01 6.954926e+02 
2.519600e-01 6.892714e+02 
2.532200e-01 6.828241e+02 
2.543700e-01 6.770770e+02 
2.555500e-01 6.712941e+02 
2.568000e-01 6.652454e+02 
2.580100e-01 6.594644e+02 
2.592400e-01 6.537628e+02 
2.604100e-01 6.484498e+02 
2.616100e-01 6.430656e+02 
2.628400e-01 6.376141e+02 
2.640600e-01 6.323844e+02 
2.652200e-01 6.275143e+02 
2.664300e-01 6.224932e+02 
2.676500e-01 6.174906e+02 
2.688400e-01 6.127539e+02 
2.700700e-01 6.079683e+02 
2.712400e-01 6.034682e+02 
2.724800e-01 5.987535e+02 
2.736700e-01 5.943388e+02 
2.748800e-01 5.899598e+02 
2.761000e-01 5.855944e+02 
2.773200e-01 5.812784e+02 
2.785400e-01 5.770369e+02 
2.797000e-01 5.731022e+02 
2.808900e-01 5.691089e+02 
2.821400e-01 5.649606e+02 
2.833900e-01 5.608611e+02 
2.845500e-01 5.571442e+02 
2.857800e-01 5.532450e+02 
2.870300e-01 5.493259e+02 
2.882100e-01 5.456661e+02 
2.893900e-01 5.420646e+02 
2.906300e-01 5.383308e+02 
2.918900e-01 5.345781e+02 
2.930500e-01 5.311596e+02 
2.942500e-01 5.276626e+02 
2.954200e-01 5.242988e+02 
2.966500e-01 5.207988e+02 
2.978900e-01 5.173076e+02 
2.990400e-01 5.141026e+02 
3.002700e-01 5.107133e+02 
3.015100e-01 5.073341e+02 
3.026800e-01 5.041778e+02 
3.038500e-01 5.010524e+02 
3.050300e-01 4.979312e+02 
3.062600e-01 4.947126e+02 
3.075000e-01 4.915010e+02 
3.087000e-01 4.884242e+02 
3.099100e-01 4.853523e+02 
3.111200e-01 4.823125e+02 
3.123100e-01 4.793549e+02 
3.135300e-01 4.763524e+02 
3.147300e-01 4.734279e+02 
3.159900e-01 4.703876e+02 
3.171800e-01 4.675470e+02 
3.183700e-01 4.647351e+02 
3.196300e-01 4.617868e+02 
3.208400e-01 4.589832e+02 
3.220300e-01 4.562520e+02 
3.232000e-01 4.535960e+02 
3.244300e-01 4.508317e+02 
3.256700e-01 4.480718e+02 
3.269200e-01 4.453165e+02 
3.280800e-01 4.427835e+02 
3.292500e-01 4.402588e+02 
3.304800e-01 4.376313e+02 
3.317100e-01 4.350286e+02 
3.328900e-01 4.325546e+02 
3.340700e-01 4.301028e+02 
3.353600e-01 4.274563e+02 
3.365300e-01 4.250815e+02 
3.377100e-01 4.227075e+02 
3.389200e-01 4.202949e+02 
3.401600e-01 4.178451e+02 
3.413700e-01 4.154850e+02 
3.425300e-01 4.132484e+02 
3.437700e-01 4.108787e+02 
3.449800e-01 4.085871e+02 
3.461800e-01 4.063345e+02 
3.473600e-01 4.041429e+02 
3.485800e-01 4.019074e+02 
3.498100e-01 3.996736e+02 
3.510200e-01 3.974954e+02 
3.522000e-01 3.953894e+02 
3.533900e-01 3.932835e+02 
3.546400e-01 3.911054e+02 
3.558400e-01 3.890334e+02 
3.570600e-01 3.869449e+02 
3.582700e-01 3.848912e+02 
3.595000e-01 3.828215e+02 
3.607100e-01 3.808114e+02 
3.618900e-01 3.788742e+02 
3.631200e-01 3.768717e+02 
3.643200e-01 3.749346e+02 
3.655500e-01 3.729657e+02 
3.667300e-01 3.710924e+02 
3.679500e-01 3.691882e+02 
3.691900e-01 3.672690e+02 
3.703600e-01 3.654730e+02 
3.715700e-01 3.636306e+02 
3.727700e-01 3.618182e+02 
3.739900e-01 3.599961e+02 
3.752000e-01 3.582136e+02 
3.763900e-01 3.564745e+02 
3.775800e-01 3.547493e+02 
3.788200e-01 3.529660e+02 
3.800300e-01 3.512399e+02 
3.812100e-01 3.495777e+02 
3.824200e-01 3.478919e+02 
3.836100e-01 3.462469e+02 
3.848600e-01 3.445328e+02 
3.860400e-01 3.429273e+02 
3.872400e-01 3.413073e+02 
3.884600e-01 3.396829e+02 
3.896500e-01 3.381144e+02 
3.908700e-01 3.365188e+02 
3.920600e-01 3.349744e+02 
3.933100e-01 3.333647e+02 
3.945300e-01 3.318059e+02 
3.957200e-01 3.303074e+02 
3.969300e-01 3.287982e+02 
3.981700e-01 3.272634e+02 
3.993500e-01 3.258139e+02 
4.094840e-01 3.138325e+02 
4.272360e-01 2.947886e+02 
4.454600e-01 2.773557e+02 
4.630560e-01 2.622301e+02 
4.804610e-01 2.486741e+02 
4.980690e-01 2.361851e+02 
5.159230e-01 2.246164e+02 
5.317440e-01 2.151832e+02 
5.489640e-01 2.056969e+02 
5.671990e-01 1.964535e+02 
5.838690e-01 1.886511e+02 
6.018840e-01 1.808475e+02 
6.202330e-01 1.735117e+02 
6.379250e-01 1.669558e+02 
6.545410e-01 1.612369e+02 
6.714560e-01 1.557929e+02 
6.892080e-01 1.504637e+02 
7.066010e-01 1.455912e+02 
7.240540e-01 1.410078e+02 
7.420450e-01 1.365883e+02 
7.593780e-01 1.325909e+02 
7.764720e-01 1.288738e+02 
7.942840e-01 1.252216e+02 
8.116170e-01 1.218684e+02 
8.288310e-01 1.187166e+02 
8.462240e-01 1.156966e+02 
8.631980e-01 1.128944e+02 
8.810700e-01 1.100879e+02 
8.989410e-01 1.074173e+02 
9.166330e-01 1.048977e+02 
9.345640e-01 1.024625e+02 
9.515980e-01 1.002478e+02 
9.688720e-01 9.809389e+01 
9.865640e-01 9.597850e+01 
1.031870e+00 9.093339e+01 
1.063490e+00 8.769371e+01 
1.097920e+00 8.440008e+01 
1.134370e+00 8.114391e+01 
1.167730e+00 7.835367e+01 
1.203830e+00 7.551077e+01 
1.240470e+00 7.280255e+01 
1.275790e+00 7.033892e+01 
1.309140e+00 6.814110e+01 
1.342970e+00 6.601576e+01 
1.378420e+00 6.390573e+01 
1.413200e+00 6.193672e+01 
1.448110e+00 6.005428e+01 
1.484090e+00 5.820795e+01 
1.518820e+00 5.650756e+01 
1.552880e+00 5.491223e+01 
1.588630e+00 5.331086e+01 
1.623230e+00 5.182918e+01 
1.657720e+00 5.041282e+01 
1.692450e+00 4.904699e+01 
1.726400e+00 4.776247e+01 
1.762200e+00 4.646078e+01 
1.797880e+00 4.521655e+01 
1.833270e+00 4.403094e+01 
1.869070e+00 4.287723e+01 
1.903200e+00 4.181903e+01 
1.937740e+00 4.078687e+01 
1.973190e+00 3.976557e+01 
2.007440e+00 3.881460e+01 
2.042160e+00 3.788391e+01 
2.077900e+00 3.695871e+01 
2.112390e+00 3.609771e+01 
2.146220e+00 3.527963e+01 
2.181600e+00 3.445285e+01 
2.216930e+00 3.365482e+01 
2.250760e+00 3.291549e+01 
2.286500e+00 3.215960e+01 
2.321770e+00 3.143788e+01 
2.355950e+00 3.076067e+01 
2.391280e+00 3.008080e+01 
2.426240e+00 2.942916e+01 
2.460670e+00 2.880742e+01 
2.495640e+00 2.819547e+01 
2.531080e+00 2.759252e+01 
2.566220e+00 2.701238e+01 
2.600830e+00 2.645810e+01 
2.635080e+00 2.592580e+01 
2.670340e+00 2.539238e+01 
2.705970e+00 2.486915e+01 
2.740040e+00 2.438312e+01 
2.774520e+00 2.390395e+01 
2.809730e+00 2.342794e+01 
2.844390e+00 2.297266e+01 
2.879960e+00 2.251816e+01 
2.914860e+00 2.208389e+01 
2.949410e+00 2.166572e+01 
2.984440e+00 2.125249e+01 
3.019760e+00 2.084674e+01 
3.054730e+00 2.045586e+01 
3.089030e+00 2.008161e+01 
3.124060e+00 1.970945e+01 
3.159560e+00 1.934194e+01 
3.194710e+00 1.898716e+01 
3.229010e+00 1.865002e+01 
3.263320e+00 1.832006e+01 
3.297930e+00 1.799568e+01 
3.332830e+00 1.767637e+01 
3.368040e+00 1.736212e+01 
3.403300e+00 1.705528e+01 
3.438450e+00 1.675648e+01 
3.473060e+00 1.646968e+01 
3.508440e+00 1.618271e+01 
3.543110e+00 1.590856e+01 
3.577470e+00 1.564289e+01 
3.613040e+00 1.537446e+01 
3.648120e+00 1.511546e+01 
3.682910e+00 1.486467e+01 
3.718050e+00 1.461701e+01 
3.753320e+00 1.437421e+01 
3.787980e+00 1.414090e+01 
3.822290e+00 1.391510e+01 
3.857020e+00 1.369145e+01 
3.891920e+00 1.347168e+01 
3.926650e+00 1.325755e+01 
3.961970e+00 1.304470e+01 
3.997360e+00 1.283608e+01 
4.031670e+00 1.263832e+01 
4.066330e+00 1.244257e+01 
4.101420e+00 1.224882e+01 
4.136200e+00 1.206050e+01 
4.170810e+00 1.187722e+01 
4.206250e+00 1.169336e+01 
4.241580e+00 1.151406e+01 
4.276300e+00 1.134145e+01 
4.310970e+00 1.117265e+01 
4.346120e+00 1.100506e+01 
4.380600e+00 1.084397e+01 
4.414730e+00 1.068780e+01 
4.450350e+00 1.052799e+01 
4.485320e+00 1.037439e+01 
4.519810e+00 1.022583e+01 
4.555430e+00 1.007549e+01 
4.590870e+00 9.928962e+00 
4.625480e+00 9.788660e+00 
4.659910e+00 9.651859e+00 
4.695230e+00 9.514251e+00 
4.729960e+00 9.381622e+00 
4.764450e+00 9.252422e+00 
4.799530e+00 9.123478e+00 
4.834910e+00 8.995981e+00 
4.869700e+00 8.873016e+00 
4.904370e+00 8.752810e+00 
4.939450e+00 8.633501e+00 
4.973940e+00 8.518422e+00 
5.008430e+00 8.405484e+00 
5.043810e+00 8.291756e+00 
5.078840e+00 8.181241e+00 
5.113500e+00 8.073909e+00 
5.148890e+00 7.966379e+00 
5.184210e+00 7.861046e+00 
5.219060e+00 7.759028e+00 
5.253660e+00 7.659609e+00 
5.288570e+00 7.561090e+00 
5.323420e+00 7.464514e+00 
5.358440e+00 7.369212e+00 
5.393590e+00 7.275250e+00 
5.428310e+00 7.184134e+00 
5.462800e+00 7.095221e+00 
5.497640e+00 7.006948e+00 
5.532670e+00 6.919806e+00 
5.567280e+00 6.835205e+00 
5.602000e+00 6.751768e+00 
5.637270e+00 6.668537e+00 
5.672410e+00 6.587039e+00 
5.707020e+00 6.508111e+00 
5.742040e+00 6.429708e+00 
5.777430e+00 6.351825e+00 
5.812210e+00 6.276548e+00 
5.846820e+00 6.202930e+00 
5.881610e+00 6.130144e+00 
5.916510e+00 6.058305e+00 
5.951600e+00 5.987342e+00 
5.986560e+00 5.917821e+00 
6.021830e+00 5.848805e+00 
6.056490e+00 5.782158e+00 
6.091160e+00 5.716619e+00 
6.125830e+00 5.652097e+00 
6.161090e+00 5.587548e+00 
6.195760e+00 5.525167e+00 
6.230420e+00 5.463757e+00 
6.265690e+00 5.402230e+00 
6.300950e+00 5.341831e+00 
6.335620e+00 5.283343e+00 
6.370880e+00 5.224757e+00 
6.405550e+00 5.168133e+00 
6.440220e+00 5.112394e+00 
6.475480e+00 5.056549e+00 
6.510150e+00 5.002499e+00 
6.544810e+00 4.949366e+00 
6.580080e+00 4.896089e+00 
6.614750e+00 4.844480e+00 
6.649410e+00 4.793784e+00 
6.684080e+00 4.743828e+00 
6.719340e+00 4.693750e+00 
6.754010e+00 4.645266e+00 
6.788680e+00 4.597590e+00 
6.823940e+00 4.549786e+00 
6.859800e+00 4.501864e+00 
6.894470e+00 4.456303e+00 
6.929140e+00 4.411413e+00 
6.963800e+00 4.367153e+00 
6.999070e+00 4.322744e+00 
7.033730e+00 4.279852e+00 
7.068400e+00 4.237529e+00 
7.103660e+00 4.195069e+00 
7.138330e+00 4.153941e+00 
7.173600e+00 4.112780e+00 
7.208260e+00 4.072871e+00 
7.243530e+00 4.032802e+00 
7.277600e+00 3.994686e+00 
7.312860e+00 3.955829e+00 
7.348120e+00 3.917487e+00 
7.382790e+00 3.880279e+00 
7.417460e+00 3.843669e+00 
7.452720e+00 3.806980e+00 
7.487390e+00 3.771369e+00 
7.522650e+00 3.735617e+00 
7.557320e+00 3.701021e+00 
7.591990e+00 3.666902e+00 
7.627250e+00 3.632640e+00 
7.662510e+00 3.598815e+00 
7.697180e+00 3.566086e+00 
7.731850e+00 3.533806e+00 
7.766510e+00 3.501933e+00 
7.801180e+00 3.470443e+00 
7.836440e+00 3.438903e+00 
7.871110e+00 3.408328e+00 
7.906380e+00 3.377604e+00 
7.941040e+00 3.347779e+00 
7.976310e+00 3.317857e+00 
8.011570e+00 3.288378e+00 
8.046240e+00 3.259740e+00 
8.080900e+00 3.231450e+00 
8.115570e+00 3.203517e+00 
8.150830e+00 3.175560e+00 
8.185500e+00 3.148396e+00 
8.220770e+00 3.121086e+00 
8.255430e+00 3.094562e+00 
8.290100e+00 3.068462e+00 
8.324770e+00 3.042676e+00 
8.359430e+00 3.017192e+00 
8.394700e+00 2.991558e+00 
8.429960e+00 2.966296e+00 
8.464630e+00 2.941808e+00 
8.499890e+00 2.917187e+00 
8.534560e+00 2.893251e+00 
8.569200e+00 2.869603e+00 
