# Parameters:
# omega_b = 0.022618, omega_m = 0.123858, n_s = 0.856299, h = 84.291339, w = -1.000000, sigma_8 = 0.734646
# z = 1.300000
#
# k[1/Mpc] # P(k):
8.694000e-04 8.864696e+03 
2.077466e-03 1.690146e+04 
3.285532e-03 2.242916e+04 
4.493598e-03 2.618953e+04 
5.701664e-03 2.860532e+04 
6.909730e-03 2.999557e+04 
8.117797e-03 3.064784e+04 
9.325863e-03 3.070819e+04 
1.053393e-02 3.030754e+04 
1.174199e-02 2.955613e+04 
1.295006e-02 2.852518e+04 
1.415813e-02 2.730296e+04 
1.536619e-02 2.595973e+04 
1.657426e-02 2.453982e+04 
1.778233e-02 2.306887e+04 
1.899039e-02 2.159586e+04 
2.019846e-02 2.017899e+04 
2.140652e-02 1.885859e+04 
2.261459e-02 1.763688e+04 
2.382266e-02 1.651879e+04 
2.503072e-02 1.550780e+04 
2.623879e-02 1.460141e+04 
2.744685e-02 1.379728e+04 
2.865492e-02 1.308840e+04 
2.986299e-02 1.246589e+04 
3.100100e-02 1.195389e+04 
3.220400e-02 1.148126e+04 
3.288100e-02 1.124483e+04 
3.424300e-02 1.082171e+04 
3.555100e-02 1.046989e+04 
3.686000e-02 1.016182e+04 
3.795000e-02 9.930540e+03 
3.929100e-02 9.670109e+03 
4.039800e-02 9.466867e+03 
4.164000e-02 9.245988e+03 
4.294400e-02 9.011186e+03 
4.415000e-02 8.792294e+03 
4.542900e-02 8.547020e+03 
4.660900e-02 8.314557e+03 
4.782300e-02 8.056800e+03 
4.892900e-02 7.815194e+03 
5.031200e-02 7.501143e+03 
5.155900e-02 7.207963e+03 
5.238100e-02 7.012201e+03 
5.378200e-02 6.677323e+03 
5.513400e-02 6.354990e+03 
5.627600e-02 6.086853e+03 
5.735300e-02 5.840074e+03 
5.870100e-02 5.541975e+03 
5.988700e-02 5.292278e+03 
6.113500e-02 5.044034e+03 
6.225900e-02 4.835712e+03 
6.340100e-02 4.640716e+03 
6.480200e-02 4.424186e+03 
6.601100e-02 4.260590e+03 
6.725500e-02 4.113263e+03 
6.829100e-02 4.007671e+03 
6.958600e-02 3.891764e+03 
7.071100e-02 3.806088e+03 
7.192300e-02 3.726283e+03 
7.307400e-02 3.660634e+03 
7.412300e-02 3.607815e+03 
7.550400e-02 3.547075e+03 
7.663100e-02 3.502167e+03 
7.791200e-02 3.455124e+03 
7.912700e-02 3.411709e+03 
8.027600e-02 3.370343e+03 
8.138400e-02 3.329391e+03 
8.272200e-02 3.277274e+03 
8.406100e-02 3.221307e+03 
8.534100e-02 3.162115e+03 
8.653800e-02 3.101692e+03 
8.759800e-02 3.045394e+03 
8.900300e-02 2.966330e+03 
9.009000e-02 2.901569e+03 
9.113300e-02 2.836609e+03 
9.239600e-02 2.756782e+03 
9.358000e-02 2.680418e+03 
9.496100e-02 2.590140e+03 
9.608400e-02 2.517672e+03 
9.727500e-02 2.442267e+03 
9.852600e-02 2.364822e+03 
9.973800e-02 2.293023e+03 
1.009000e-01 2.227024e+03 
1.020900e-01 2.164350e+03 
1.034000e-01 2.099694e+03 
1.046000e-01 2.044552e+03 
1.057200e-01 1.998945e+03 
1.069100e-01 1.953604e+03 
1.082500e-01 1.909141e+03 
1.093900e-01 1.875696e+03 
1.105400e-01 1.844734e+03 
1.116900e-01 1.818866e+03 
1.129600e-01 1.792422e+03 
1.142000e-01 1.770555e+03 
1.153300e-01 1.752035e+03 
1.166400e-01 1.732522e+03 
1.177800e-01 1.716371e+03 
1.190000e-01 1.699701e+03 
1.201200e-01 1.683792e+03 
1.213400e-01 1.666703e+03 
1.227100e-01 1.645073e+03 
1.238900e-01 1.626111e+03 
1.250700e-01 1.604926e+03 
1.263200e-01 1.581854e+03 
1.275500e-01 1.557125e+03 
1.287500e-01 1.532283e+03 
1.299900e-01 1.505190e+03 
1.311300e-01 1.479881e+03 
1.323500e-01 1.451947e+03 
1.335900e-01 1.423631e+03 
1.347100e-01 1.397832e+03 
1.359800e-01 1.369085e+03 
1.372100e-01 1.341518e+03 
1.384300e-01 1.314926e+03 
1.395700e-01 1.290799e+03 
1.407700e-01 1.266089e+03 
1.420300e-01 1.241535e+03 
1.432800e-01 1.217789e+03 
1.444500e-01 1.197236e+03 
1.456300e-01 1.176975e+03 
1.468900e-01 1.156916e+03 
1.480500e-01 1.139180e+03 
1.491700e-01 1.122982e+03 
1.503800e-01 1.106575e+03 
1.516400e-01 1.090085e+03 
1.528200e-01 1.075964e+03 
1.540200e-01 1.061888e+03 
1.551900e-01 1.049194e+03 
1.564300e-01 1.036187e+03 
1.576600e-01 1.023810e+03 
1.588700e-01 1.012196e+03 
1.600900e-01 1.000717e+03 
1.612700e-01 9.900121e+02 
1.625400e-01 9.787060e+02 
1.637600e-01 9.679299e+02 
1.649500e-01 9.575398e+02 
1.662200e-01 9.465792e+02 
1.674000e-01 9.361555e+02 
1.685000e-01 9.266041e+02 
1.697500e-01 9.155957e+02 
1.710300e-01 9.041926e+02 
1.722200e-01 8.937861e+02 
1.734400e-01 8.826116e+02 
1.746400e-01 8.717909e+02 
1.758700e-01 8.607159e+02 
1.770900e-01 8.495563e+02 
1.782700e-01 8.389572e+02 
1.794600e-01 8.282486e+02 
1.807000e-01 8.171529e+02 
1.819100e-01 8.065239e+02 
1.830100e-01 7.969530e+02 
1.842200e-01 7.865928e+02 
1.855000e-01 7.758401e+02 
1.867000e-01 7.660736e+02 
1.879200e-01 7.563184e+02 
1.890900e-01 7.471691e+02 
1.902800e-01 7.382539e+02 
1.915200e-01 7.291228e+02 
1.926900e-01 7.207353e+02 
1.939000e-01 7.124740e+02 
1.951700e-01 7.039490e+02 
1.963100e-01 6.965070e+02 
1.975100e-01 6.890246e+02 
1.987800e-01 6.812343e+02 
2.000100e-01 6.738868e+02 
2.012500e-01 6.667700e+02 
2.023400e-01 6.606072e+02 
2.036100e-01 6.535621e+02 
2.048900e-01 6.466827e+02 
2.060400e-01 6.405959e+02 
2.072200e-01 6.344430e+02 
2.084200e-01 6.283081e+02 
2.096900e-01 6.219137e+02 
2.109200e-01 6.158149e+02 
2.121100e-01 6.099530e+02 
2.132700e-01 6.043176e+02 
2.145200e-01 5.983329e+02 
2.157200e-01 5.926167e+02 
2.168800e-01 5.871436e+02 
2.180700e-01 5.816074e+02 
2.193400e-01 5.757543e+02 
2.206000e-01 5.699769e+02 
2.217500e-01 5.647787e+02 
2.229500e-01 5.594290e+02 
2.241400e-01 5.541356e+02 
2.253500e-01 5.488267e+02 
2.264900e-01 5.438930e+02 
2.277100e-01 5.386732e+02 
2.289900e-01 5.332622e+02 
2.301500e-01 5.284268e+02 
2.313600e-01 5.234511e+02 
2.325600e-01 5.185955e+02 
2.337700e-01 5.137658e+02 
2.350000e-01 5.089233e+02 
2.362000e-01 5.042810e+02 
2.374100e-01 4.996837e+02 
2.386500e-01 4.950360e+02 
2.399100e-01 4.903779e+02 
2.410400e-01 4.863033e+02 
2.422500e-01 4.820015e+02 
2.435000e-01 4.776162e+02 
2.447300e-01 4.733701e+02 
2.458700e-01 4.695314e+02 
2.470600e-01 4.655737e+02 
2.483300e-01 4.614043e+02 
2.495600e-01 4.574405e+02 
2.507600e-01 4.536516e+02 
2.519600e-01 4.499096e+02 
2.532200e-01 4.460299e+02 
2.543700e-01 4.425552e+02 
2.555500e-01 4.390473e+02 
2.568000e-01 4.353769e+02 
2.580100e-01 4.318677e+02 
2.592400e-01 4.283613e+02 
2.604100e-01 4.250732e+02 
2.616100e-01 4.217403e+02 
2.628400e-01 4.183648e+02 
2.640600e-01 4.150643e+02 
2.652200e-01 4.119654e+02 
2.664300e-01 4.087700e+02 
2.676500e-01 4.055860e+02 
2.688400e-01 4.025156e+02 
2.700700e-01 3.993782e+02 
2.712400e-01 3.964280e+02 
2.724800e-01 3.933370e+02 
2.736700e-01 3.904032e+02 
2.748800e-01 3.874520e+02 
2.761000e-01 3.845103e+02 
2.773200e-01 3.816022e+02 
2.785400e-01 3.787244e+02 
2.797000e-01 3.760128e+02 
2.808900e-01 3.732613e+02 
2.821400e-01 3.704035e+02 
2.833900e-01 3.675780e+02 
2.845500e-01 3.649751e+02 
2.857800e-01 3.622451e+02 
2.870300e-01 3.595019e+02 
2.882100e-01 3.569407e+02 
2.893900e-01 3.544030e+02 
2.906300e-01 3.517632e+02 
2.918900e-01 3.491108e+02 
2.930500e-01 3.466951e+02 
2.942500e-01 3.442214e+02 
2.954200e-01 3.418322e+02 
2.966500e-01 3.393469e+02 
2.978900e-01 3.368686e+02 
2.990400e-01 3.345940e+02 
3.002700e-01 3.321859e+02 
3.015100e-01 3.297840e+02 
3.026800e-01 3.275412e+02 
3.038500e-01 3.253210e+02 
3.050300e-01 3.231043e+02 
3.062600e-01 3.208196e+02 
3.075000e-01 3.185404e+02 
3.087000e-01 3.163575e+02 
3.099100e-01 3.141787e+02 
3.111200e-01 3.120247e+02 
3.123100e-01 3.099318e+02 
3.135300e-01 3.078078e+02 
3.147300e-01 3.057396e+02 
3.159900e-01 3.035900e+02 
3.171800e-01 3.015854e+02 
3.183700e-01 2.996037e+02 
3.196300e-01 2.975264e+02 
3.208400e-01 2.955516e+02 
3.220300e-01 2.936283e+02 
3.232000e-01 2.917622e+02 
3.244300e-01 2.898219e+02 
3.256700e-01 2.878853e+02 
3.269200e-01 2.859524e+02 
3.280800e-01 2.841759e+02 
3.292500e-01 2.824090e+02 
3.304800e-01 2.805716e+02 
3.317100e-01 2.787520e+02 
3.328900e-01 2.770228e+02 
3.340700e-01 2.753095e+02 
3.353600e-01 2.734635e+02 
3.365300e-01 2.718086e+02 
3.377100e-01 2.701546e+02 
3.389200e-01 2.684741e+02 
3.401600e-01 2.667681e+02 
3.413700e-01 2.651264e+02 
3.425300e-01 2.635719e+02 
3.437700e-01 2.619253e+02 
3.449800e-01 2.603333e+02 
3.461800e-01 2.587688e+02 
3.473600e-01 2.572473e+02 
3.485800e-01 2.556962e+02 
3.498100e-01 2.541467e+02 
3.510200e-01 2.526360e+02 
3.522000e-01 2.511758e+02 
3.533900e-01 2.497160e+02 
3.546400e-01 2.482064e+02 
3.558400e-01 2.467706e+02 
3.570600e-01 2.453236e+02 
3.582700e-01 2.439012e+02 
3.595000e-01 2.424679e+02 
3.607100e-01 2.410754e+02 
3.618900e-01 2.397330e+02 
3.631200e-01 2.383458e+02 
3.643200e-01 2.370041e+02 
3.655500e-01 2.356406e+02 
3.667300e-01 2.343437e+02 
3.679500e-01 2.330236e+02 
3.691900e-01 2.316934e+02 
3.703600e-01 2.304488e+02 
3.715700e-01 2.291723e+02 
3.727700e-01 2.279169e+02 
3.739900e-01 2.266541e+02 
3.752000e-01 2.254170e+02 
3.763900e-01 2.242104e+02 
3.775800e-01 2.230137e+02 
3.788200e-01 2.217769e+02 
3.800300e-01 2.205801e+02 
3.812100e-01 2.194261e+02 
3.824200e-01 2.182547e+02 
3.836100e-01 2.171119e+02 
3.848600e-01 2.159214e+02 
3.860400e-01 2.148066e+02 
3.872400e-01 2.136819e+02 
3.884600e-01 2.125524e+02 
3.896500e-01 2.114612e+02 
3.908700e-01 2.103514e+02 
3.920600e-01 2.092775e+02 
3.933100e-01 2.081583e+02 
3.945300e-01 2.070749e+02 
3.957200e-01 2.060306e+02 
3.969300e-01 2.049782e+02 
3.981700e-01 2.039083e+02 
3.993500e-01 2.028981e+02 
4.094840e-01 1.945508e+02 
4.272360e-01 1.812595e+02 
4.454600e-01 1.691204e+02 
4.630560e-01 1.586381e+02 
4.804610e-01 1.493090e+02 
4.980690e-01 1.407846e+02 
5.159230e-01 1.329621e+02 
5.317440e-01 1.266353e+02 
5.489640e-01 1.203287e+02 
5.671990e-01 1.142340e+02 
5.838690e-01 1.091220e+02 
6.018840e-01 1.040399e+02 
6.202330e-01 9.929174e+01 
6.379250e-01 9.506492e+01 
6.545410e-01 9.139432e+01 
6.714560e-01 8.791130e+01 
6.892080e-01 8.451135e+01 
7.066010e-01 8.141236e+01 
7.240540e-01 7.850608e+01 
7.420450e-01 7.571197e+01 
7.593780e-01 7.319333e+01 
7.764720e-01 7.085793e+01 
7.942840e-01 6.857127e+01 
8.116170e-01 6.647896e+01 
8.288310e-01 6.452130e+01 
8.462240e-01 6.265170e+01 
8.631980e-01 6.092547e+01 
8.810700e-01 5.920396e+01 
8.989410e-01 5.757469e+01 
9.166330e-01 5.604473e+01 
9.345640e-01 5.457246e+01 
9.515980e-01 5.324220e+01 
9.688720e-01 5.195576e+01 
9.865640e-01 5.069987e+01 
1.031870e+00 4.773358e+01 
1.063490e+00 4.585389e+01 
1.097920e+00 4.396322e+01 
1.134370e+00 4.211551e+01 
1.167730e+00 4.054976e+01 
1.203830e+00 3.897436e+01 
1.240470e+00 3.748779e+01 
1.275790e+00 3.615102e+01 
1.309140e+00 3.496766e+01 
1.342970e+00 3.383677e+01 
1.378420e+00 3.272152e+01 
1.413200e+00 3.169013e+01 
1.448110e+00 3.071120e+01 
1.484090e+00 2.975800e+01 
1.518820e+00 2.888612e+01 
1.552880e+00 2.807343e+01 
1.588630e+00 2.726192e+01 
1.623230e+00 2.651514e+01 
1.657720e+00 2.580505e+01 
1.692450e+00 2.512276e+01 
1.726400e+00 2.448415e+01 
1.762200e+00 2.383974e+01 
1.797880e+00 2.322599e+01 
1.833270e+00 2.264294e+01 
1.869070e+00 2.207751e+01 
1.903200e+00 2.156014e+01 
1.937740e+00 2.105656e+01 
1.973190e+00 2.055939e+01 
2.007440e+00 2.009711e+01 
2.042160e+00 1.964567e+01 
2.077900e+00 1.919777e+01 
2.112390e+00 1.878109e+01 
2.146220e+00 1.838595e+01 
2.181600e+00 1.798693e+01 
2.216930e+00 1.760213e+01 
2.250760e+00 1.724577e+01 
2.286500e+00 1.688157e+01 
2.321770e+00 1.653400e+01 
2.355950e+00 1.620770e+01 
2.391280e+00 1.588057e+01 
2.426240e+00 1.556682e+01 
2.460670e+00 1.526728e+01 
2.495640e+00 1.497235e+01 
2.531080e+00 1.468184e+01 
2.566220e+00 1.440221e+01 
2.600830e+00 1.413482e+01 
2.635080e+00 1.387777e+01 
2.670340e+00 1.361983e+01 
2.705970e+00 1.336670e+01 
2.740040e+00 1.313143e+01 
2.774520e+00 1.289929e+01 
2.809730e+00 1.266839e+01 
2.844390e+00 1.244724e+01 
2.879960e+00 1.222601e+01 
2.914860e+00 1.201446e+01 
2.949410e+00 1.181054e+01 
2.984440e+00 1.160863e+01 
3.019760e+00 1.141024e+01 
3.054730e+00 1.121896e+01 
3.089030e+00 1.103516e+01 
3.124060e+00 1.085217e+01 
3.159560e+00 1.067123e+01 
3.194710e+00 1.049617e+01 
3.229010e+00 1.032958e+01 
3.263320e+00 1.016607e+01 
3.297930e+00 1.000515e+01 
3.332830e+00 9.846535e+00 
3.368040e+00 9.690010e+00 
3.403300e+00 9.536840e+00 
3.438450e+00 9.387329e+00 
3.473060e+00 9.243650e+00 
3.508440e+00 9.099504e+00 
3.543110e+00 8.961600e+00 
3.577470e+00 8.827394e+00 
3.613040e+00 8.691655e+00 
3.648120e+00 8.560507e+00 
3.682910e+00 8.433232e+00 
3.718050e+00 8.307115e+00 
3.753320e+00 8.183264e+00 
3.787980e+00 8.064005e+00 
3.822290e+00 7.948339e+00 
3.857020e+00 7.833438e+00 
3.891920e+00 7.720331e+00 
3.926650e+00 7.609827e+00 
3.961970e+00 7.499775e+00 
3.997360e+00 7.391505e+00 
4.031670e+00 7.288755e+00 
4.066330e+00 7.186781e+00 
4.101420e+00 7.085757e+00 
4.136200e+00 6.987111e+00 
4.170810e+00 6.891035e+00 
4.206250e+00 6.794334e+00 
4.241580e+00 6.699918e+00 
4.276300e+00 6.608720e+00 
4.310970e+00 6.519336e+00 
4.346120e+00 6.430428e+00 
4.380600e+00 6.344737e+00 
4.414730e+00 6.261600e+00 
4.450350e+00 6.176119e+00 
4.485320e+00 6.093902e+00 
4.519810e+00 6.014112e+00 
4.555430e+00 5.933208e+00 
4.590870e+00 5.854226e+00 
4.625480e+00 5.778402e+00 
4.659910e+00 5.704422e+00 
4.695230e+00 5.629647e+00 
4.729960e+00 5.557485e+00 
4.764450e+00 5.487045e+00 
4.799530e+00 5.416532e+00 
4.834910e+00 5.346767e+00 
4.869700e+00 5.279224e+00 
4.904370e+00 5.213122e+00 
4.939450e+00 5.147408e+00 
4.973940e+00 5.083812e+00 
5.008430e+00 5.021364e+00 
5.043810e+00 4.958297e+00 
5.078840e+00 4.896892e+00 
5.113500e+00 4.837223e+00 
5.148890e+00 4.777161e+00 
5.184210e+00 4.718285e+00 
5.219060e+00 4.661180e+00 
5.253660e+00 4.605353e+00 
5.288570e+00 4.550003e+00 
5.323420e+00 4.495629e+00 
5.358440e+00 4.441847e+00 
5.393590e+00 4.388795e+00 
5.428310e+00 4.337184e+00 
5.462800e+00 4.286722e+00 
5.497640e+00 4.236601e+00 
5.532670e+00 4.186950e+00 
5.567280e+00 4.138678e+00 
5.602000e+00 4.091050e+00 
5.637270e+00 4.043397e+00 
5.672410e+00 3.996689e+00 
5.707020e+00 3.951435e+00 
5.742040e+00 3.906316e+00 
5.777430e+00 3.861448e+00 
5.812210e+00 3.818065e+00 
5.846820e+00 3.775518e+00 
5.881610e+00 3.733411e+00 
5.916510e+00 3.691837e+00 
5.951600e+00 3.650647e+00 
5.986560e+00 3.610232e+00 
6.021830e+00 3.570097e+00 
6.056490e+00 3.531254e+00 
6.091160e+00 3.492982e+00 
6.125830e+00 3.455293e+00 
6.161090e+00 3.417543e+00 
6.195760e+00 3.380979e+00 
6.230420e+00 3.344974e+00 
6.265690e+00 3.308885e+00 
6.300950e+00 3.273330e+00 
6.335620e+00 3.238891e+00 
6.370880e+00 3.204386e+00 
6.405550e+00 3.170965e+00 
6.440220e+00 3.138033e+00 
6.475480e+00 3.105030e+00 
6.510150e+00 3.073048e+00 
6.544810e+00 3.041529e+00 
6.580080e+00 3.009917e+00 
6.614750e+00 2.979287e+00 
6.649410e+00 2.949135e+00 
6.684080e+00 2.919404e+00 
6.719340e+00 2.889595e+00 
6.754010e+00 2.860703e+00 
6.788680e+00 2.832225e+00 
6.823940e+00 2.803667e+00 
6.859800e+00 2.775032e+00 
6.894470e+00 2.747760e+00 
6.929140e+00 2.720869e+00 
6.963800e+00 2.694351e+00 
6.999070e+00 2.667735e+00 
7.033730e+00 2.641971e+00 
7.068400e+00 2.616544e+00 
7.103660e+00 2.591031e+00 
7.138330e+00 2.566298e+00 
7.173600e+00 2.541508e+00 
7.208260e+00 2.517469e+00 
7.243530e+00 2.493329e+00 
7.277600e+00 2.470341e+00 
7.312860e+00 2.446881e+00 
7.348120e+00 2.423729e+00 
7.382790e+00 2.401259e+00 
7.417460e+00 2.379111e+00 
7.452720e+00 2.356894e+00 
7.487390e+00 2.335327e+00 
7.522650e+00 2.313672e+00 
7.557320e+00 2.292699e+00 
7.591990e+00 2.272007e+00 
7.627250e+00 2.251226e+00 
7.662510e+00 2.230707e+00 
7.697180e+00 2.210828e+00 
7.731850e+00 2.191210e+00 
7.766510e+00 2.171837e+00 
7.801180e+00 2.152694e+00 
7.836440e+00 2.133511e+00 
7.871110e+00 2.114907e+00 
7.906380e+00 2.096210e+00 
7.941040e+00 2.078057e+00 
7.976310e+00 2.059833e+00 
8.011570e+00 2.041865e+00 
8.046240e+00 2.024407e+00 
8.080900e+00 2.007159e+00 
8.115570e+00 1.990125e+00 
8.150830e+00 1.973066e+00 
8.185500e+00 1.956488e+00 
8.220770e+00 1.939821e+00 
8.255430e+00 1.923631e+00 
8.290100e+00 1.907681e+00 
8.324770e+00 1.891920e+00 
8.359430e+00 1.876343e+00 
8.394700e+00 1.860672e+00 
8.429960e+00 1.845225e+00 
8.464630e+00 1.830248e+00 
8.499890e+00 1.815187e+00 
8.534560e+00 1.800544e+00 
8.569200e+00 1.786077e+00 
