# Parameters:
# omega_b = 0.023169, omega_m = 0.126890, n_s = 0.964961, h = 72.716535, w = -1.000000, sigma_8 = 0.756693
# z = 1.300000
#
# k[1/Mpc] # P(k):
8.694000e-04 5.646354e+03 
2.077466e-03 1.193775e+04 
3.285532e-03 1.670415e+04 
4.493598e-03 2.024741e+04 
5.701664e-03 2.275851e+04 
6.909730e-03 2.442923e+04 
8.117797e-03 2.546206e+04 
9.325863e-03 2.596015e+04 
1.053393e-02 2.602147e+04 
1.174199e-02 2.573279e+04 
1.295006e-02 2.515194e+04 
1.415813e-02 2.435501e+04 
1.536619e-02 2.340578e+04 
1.657426e-02 2.234817e+04 
1.778233e-02 2.121884e+04 
1.899039e-02 2.007601e+04 
2.019846e-02 1.895537e+04 
2.140652e-02 1.788116e+04 
2.261459e-02 1.686353e+04 
2.382266e-02 1.591614e+04 
2.503072e-02 1.504735e+04 
2.623879e-02 1.425847e+04 
2.744685e-02 1.354974e+04 
2.865492e-02 1.291845e+04 
2.986299e-02 1.235904e+04 
3.100100e-02 1.189507e+04 
3.220400e-02 1.146398e+04 
3.288100e-02 1.124730e+04 
3.424300e-02 1.085849e+04 
3.555100e-02 1.053473e+04 
3.686000e-02 1.025163e+04 
3.795000e-02 1.003983e+04 
3.929100e-02 9.802956e+03 
4.039800e-02 9.619494e+03 
4.164000e-02 9.421225e+03 
4.294400e-02 9.211859e+03 
4.415000e-02 9.017022e+03 
4.542900e-02 8.798480e+03 
4.660900e-02 8.590641e+03 
4.782300e-02 8.358476e+03 
4.892900e-02 8.139362e+03 
5.031200e-02 7.851912e+03 
5.155900e-02 7.580499e+03 
5.238100e-02 7.397728e+03 
5.378200e-02 7.082486e+03 
5.513400e-02 6.776114e+03 
5.627600e-02 6.519570e+03 
5.735300e-02 6.282796e+03 
5.870100e-02 5.996743e+03 
5.988700e-02 5.757698e+03 
6.113500e-02 5.520644e+03 
6.225900e-02 5.321800e+03 
6.340100e-02 5.135026e+03 
6.480200e-02 4.925859e+03 
6.601100e-02 4.764987e+03 
6.725500e-02 4.616959e+03 
6.829100e-02 4.507998e+03 
6.958600e-02 4.385648e+03 
7.071100e-02 4.292633e+03 
7.192300e-02 4.203965e+03 
7.307400e-02 4.129487e+03 
7.412300e-02 4.068635e+03 
7.550400e-02 3.997751e+03 
7.663100e-02 3.945111e+03 
7.791200e-02 3.890281e+03 
7.912700e-02 3.840583e+03 
8.027600e-02 3.794195e+03 
8.138400e-02 3.749189e+03 
8.272200e-02 3.693218e+03 
8.406100e-02 3.634396e+03 
8.534100e-02 3.573407e+03 
8.653800e-02 3.511849e+03 
8.759800e-02 3.454760e+03 
8.900300e-02 3.374821e+03 
9.009000e-02 3.309360e+03 
9.113300e-02 3.243530e+03 
9.239600e-02 3.162365e+03 
9.358000e-02 3.084324e+03 
9.496100e-02 2.991343e+03 
9.608400e-02 2.916188e+03 
9.727500e-02 2.837537e+03 
9.852600e-02 2.755801e+03 
9.973800e-02 2.679481e+03 
1.009000e-01 2.608871e+03 
1.020900e-01 2.540880e+03 
1.034000e-01 2.470229e+03 
1.046000e-01 2.409463e+03 
1.057200e-01 2.358427e+03 
1.069100e-01 2.307374e+03 
1.082500e-01 2.256483e+03 
1.093900e-01 2.217688e+03 
1.105400e-01 2.181450e+03 
1.116900e-01 2.150495e+03 
1.129600e-01 2.118616e+03 
1.142000e-01 2.091712e+03 
1.153300e-01 2.068801e+03 
1.166400e-01 2.044459e+03 
1.177800e-01 2.024383e+03 
1.190000e-01 2.003691e+03 
1.201200e-01 1.984401e+03 
1.213400e-01 1.963755e+03 
1.227100e-01 1.938561e+03 
1.238900e-01 1.916671e+03 
1.250700e-01 1.892821e+03 
1.263200e-01 1.867058e+03 
1.275500e-01 1.839884e+03 
1.287500e-01 1.812762e+03 
1.299900e-01 1.783445e+03 
1.311300e-01 1.756145e+03 
1.323500e-01 1.726142e+03 
1.335900e-01 1.695741e+03 
1.347100e-01 1.668072e+03 
1.359800e-01 1.637199e+03 
1.372100e-01 1.607551e+03 
1.384300e-01 1.578879e+03 
1.395700e-01 1.552753e+03 
1.407700e-01 1.525946e+03 
1.420300e-01 1.499100e+03 
1.432800e-01 1.473106e+03 
1.444500e-01 1.450353e+03 
1.456300e-01 1.427904e+03 
1.468900e-01 1.405448e+03 
1.480500e-01 1.385512e+03 
1.491700e-01 1.367179e+03 
1.503800e-01 1.348444e+03 
1.516400e-01 1.329556e+03 
1.528200e-01 1.313154e+03 
1.540200e-01 1.296800e+03 
1.551900e-01 1.281869e+03 
1.564300e-01 1.266521e+03 
1.576600e-01 1.251846e+03 
1.588700e-01 1.237988e+03 
1.600900e-01 1.224289e+03 
1.612700e-01 1.211455e+03 
1.625400e-01 1.197900e+03 
1.637600e-01 1.185005e+03 
1.649500e-01 1.172586e+03 
1.662200e-01 1.159502e+03 
1.674000e-01 1.147162e+03 
1.685000e-01 1.135852e+03 
1.697500e-01 1.122893e+03 
1.710300e-01 1.109543e+03 
1.722200e-01 1.097357e+03 
1.734400e-01 1.084418e+03 
1.746400e-01 1.071890e+03 
1.758700e-01 1.059098e+03 
1.770900e-01 1.046274e+03 
1.782700e-01 1.034089e+03 
1.794600e-01 1.021808e+03 
1.807000e-01 1.009102e+03 
1.819100e-01 9.969226e+02 
1.830100e-01 9.859550e+02 
1.842200e-01 9.740771e+02 
1.855000e-01 9.617407e+02 
1.867000e-01 9.504995e+02 
1.879200e-01 9.392653e+02 
1.890900e-01 9.287142e+02 
1.902800e-01 9.183805e+02 
1.915200e-01 9.077915e+02 
1.926900e-01 8.980455e+02 
1.939000e-01 8.883928e+02 
1.951700e-01 8.784282e+02 
1.963100e-01 8.697113e+02 
1.975100e-01 8.609041e+02 
1.987800e-01 8.517317e+02 
2.000100e-01 8.430675e+02 
2.012500e-01 8.346486e+02 
2.023400e-01 8.273565e+02 
2.036100e-01 8.190156e+02 
2.048900e-01 8.108590e+02 
2.060400e-01 8.036403e+02 
2.072200e-01 7.963423e+02 
2.084200e-01 7.890707e+02 
2.096900e-01 7.814896e+02 
2.109200e-01 7.742573e+02 
2.121100e-01 7.673182e+02 
2.132700e-01 7.606462e+02 
2.145200e-01 7.535590e+02 
2.157200e-01 7.467975e+02 
2.168800e-01 7.403261e+02 
2.180700e-01 7.337783e+02 
2.193400e-01 7.268535e+02 
2.206000e-01 7.200161e+02 
2.217500e-01 7.138623e+02 
2.229500e-01 7.075274e+02 
2.241400e-01 7.012454e+02 
2.253500e-01 6.949429e+02 
2.264900e-01 6.890841e+02 
2.277100e-01 6.828701e+02 
2.289900e-01 6.764113e+02 
2.301500e-01 6.706379e+02 
2.313600e-01 6.646950e+02 
2.325600e-01 6.588576e+02 
2.337700e-01 6.530498e+02 
2.350000e-01 6.472252e+02 
2.362000e-01 6.416224e+02 
2.374100e-01 6.360521e+02 
2.386500e-01 6.304194e+02 
2.399100e-01 6.247728e+02 
2.410400e-01 6.198031e+02 
2.422500e-01 6.145515e+02 
2.435000e-01 6.091971e+02 
2.447300e-01 6.040071e+02 
2.458700e-01 5.992965e+02 
2.470600e-01 5.944390e+02 
2.483300e-01 5.893210e+02 
2.495600e-01 5.844497e+02 
2.507600e-01 5.797862e+02 
2.519600e-01 5.751796e+02 
2.532200e-01 5.704030e+02 
2.543700e-01 5.661254e+02 
2.555500e-01 5.618072e+02 
2.568000e-01 5.572882e+02 
2.580100e-01 5.529671e+02 
2.592400e-01 5.486565e+02 
2.604100e-01 5.446171e+02 
2.616100e-01 5.405219e+02 
2.628400e-01 5.363740e+02 
2.640600e-01 5.323292e+02 
2.652200e-01 5.285355e+02 
2.664300e-01 5.246232e+02 
2.676500e-01 5.207241e+02 
2.688400e-01 5.169744e+02 
2.700700e-01 5.131492e+02 
2.712400e-01 5.095515e+02 
2.724800e-01 5.057815e+02 
2.736700e-01 5.022101e+02 
2.748800e-01 4.986249e+02 
2.761000e-01 4.950506e+02 
2.773200e-01 4.915162e+02 
2.785400e-01 4.880221e+02 
2.797000e-01 4.847375e+02 
2.808900e-01 4.814038e+02 
2.821400e-01 4.779406e+02 
2.833900e-01 4.745162e+02 
2.845500e-01 4.713699e+02 
2.857800e-01 4.680694e+02 
2.870300e-01 4.647520e+02 
2.882100e-01 4.616541e+02 
2.893900e-01 4.585878e+02 
2.906300e-01 4.553995e+02 
2.918900e-01 4.521951e+02 
2.930500e-01 4.492761e+02 
2.942500e-01 4.462869e+02 
2.954200e-01 4.434011e+02 
2.966500e-01 4.403985e+02 
2.978900e-01 4.374035e+02 
2.990400e-01 4.346542e+02 
3.002700e-01 4.317430e+02 
3.015100e-01 4.288386e+02 
3.026800e-01 4.261261e+02 
3.038500e-01 4.234401e+02 
3.050300e-01 4.207579e+02 
3.062600e-01 4.179915e+02 
3.075000e-01 4.152312e+02 
3.087000e-01 4.125869e+02 
3.099100e-01 4.099470e+02 
3.111200e-01 4.073356e+02 
3.123100e-01 4.047963e+02 
3.135300e-01 4.022185e+02 
3.147300e-01 3.997078e+02 
3.159900e-01 3.970978e+02 
3.171800e-01 3.946612e+02 
3.183700e-01 3.922505e+02 
3.196300e-01 3.897229e+02 
3.208400e-01 3.873195e+02 
3.220300e-01 3.849783e+02 
3.232000e-01 3.827040e+02 
3.244300e-01 3.803380e+02 
3.256700e-01 3.779758e+02 
3.269200e-01 3.756178e+02 
3.280800e-01 3.734500e+02 
3.292500e-01 3.712914e+02 
3.304800e-01 3.690456e+02 
3.317100e-01 3.668211e+02 
3.328900e-01 3.647067e+02 
3.340700e-01 3.626113e+02 
3.353600e-01 3.603509e+02 
3.365300e-01 3.583233e+02 
3.377100e-01 3.562964e+02 
3.389200e-01 3.542366e+02 
3.401600e-01 3.521451e+02 
3.413700e-01 3.501309e+02 
3.425300e-01 3.482225e+02 
3.437700e-01 3.462006e+02 
3.449800e-01 3.442453e+02 
3.461800e-01 3.423234e+02 
3.473600e-01 3.404536e+02 
3.485800e-01 3.385462e+02 
3.498100e-01 3.366402e+02 
3.510200e-01 3.347817e+02 
3.522000e-01 3.329849e+02 
3.533900e-01 3.311883e+02 
3.546400e-01 3.293291e+02 
3.558400e-01 3.275605e+02 
3.570600e-01 3.257778e+02 
3.582700e-01 3.240250e+02 
3.595000e-01 3.222585e+02 
3.607100e-01 3.205418e+02 
3.618900e-01 3.188865e+02 
3.631200e-01 3.171755e+02 
3.643200e-01 3.155204e+02 
3.655500e-01 3.138381e+02 
3.667300e-01 3.122377e+02 
3.679500e-01 3.106083e+02 
3.691900e-01 3.089662e+02 
3.703600e-01 3.074295e+02 
3.715700e-01 3.058531e+02 
3.727700e-01 3.043025e+02 
3.739900e-01 3.027426e+02 
3.752000e-01 3.012147e+02 
3.763900e-01 2.997242e+02 
3.775800e-01 2.982455e+02 
3.788200e-01 2.967172e+02 
3.800300e-01 2.952379e+02 
3.812100e-01 2.938116e+02 
3.824200e-01 2.923637e+02 
3.836100e-01 2.909510e+02 
3.848600e-01 2.894789e+02 
3.860400e-01 2.881003e+02 
3.872400e-01 2.867091e+02 
3.884600e-01 2.853122e+02 
3.896500e-01 2.839625e+02 
3.908700e-01 2.825895e+02 
3.920600e-01 2.812607e+02 
3.933100e-01 2.798757e+02 
3.945300e-01 2.785346e+02 
3.957200e-01 2.772426e+02 
3.969300e-01 2.759406e+02 
3.981700e-01 2.746165e+02 
3.993500e-01 2.733662e+02 
4.094840e-01 2.630243e+02 
4.272360e-01 2.465305e+02 
4.454600e-01 2.314118e+02 
4.630560e-01 2.182978e+02 
4.804610e-01 2.065656e+02 
4.980690e-01 1.957858e+02 
5.159230e-01 1.858341e+02 
5.317440e-01 1.777433e+02 
5.489640e-01 1.696340e+02 
5.671990e-01 1.617560e+02 
5.838690e-01 1.551200e+02 
6.018840e-01 1.484958e+02 
6.202330e-01 1.422807e+02 
6.379250e-01 1.367317e+02 
6.545410e-01 1.318968e+02 
6.714560e-01 1.272977e+02 
6.892080e-01 1.227978e+02 
7.066010e-01 1.186862e+02 
7.240540e-01 1.148211e+02 
7.420450e-01 1.110968e+02 
7.593780e-01 1.077315e+02 
7.764720e-01 1.046043e+02 
7.942840e-01 1.015351e+02 
8.116170e-01 9.872013e+01 
8.288310e-01 9.607867e+01 
8.462240e-01 9.355052e+01 
8.631980e-01 9.120910e+01 
8.810700e-01 8.886788e+01 
8.989410e-01 8.664485e+01 
9.166330e-01 8.455139e+01 
9.345640e-01 8.253131e+01 
9.515980e-01 8.069925e+01 
9.688720e-01 7.892154e+01 
9.865640e-01 7.718002e+01 
1.031870e+00 7.304246e+01 
1.063490e+00 7.039970e+01 
1.097920e+00 6.772474e+01 
1.134370e+00 6.509188e+01 
1.167730e+00 6.284576e+01 
1.203830e+00 6.056820e+01 
1.240470e+00 5.840611e+01 
1.275790e+00 5.644758e+01 
1.309140e+00 5.470521e+01 
1.342970e+00 5.302721e+01 
1.378420e+00 5.136497e+01 
1.413200e+00 4.981845e+01 
1.448110e+00 4.834305e+01 
1.484090e+00 4.689934e+01 
1.518820e+00 4.557223e+01 
1.552880e+00 4.432930e+01 
1.588630e+00 4.308320e+01 
1.623230e+00 4.193183e+01 
1.657720e+00 4.083276e+01 
1.692450e+00 3.977338e+01 
1.726400e+00 3.877795e+01 
1.762200e+00 3.777002e+01 
1.797880e+00 3.680710e+01 
1.833270e+00 3.588988e+01 
1.869070e+00 3.499759e+01 
1.903200e+00 3.417921e+01 
1.937740e+00 3.338094e+01 
1.973190e+00 3.259100e+01 
2.007440e+00 3.185516e+01 
2.042160e+00 3.113495e+01 
2.077900e+00 3.041891e+01 
2.112390e+00 2.975203e+01 
2.146220e+00 2.911825e+01 
2.181600e+00 2.847736e+01 
2.216930e+00 2.785838e+01 
2.250760e+00 2.728453e+01 
2.286500e+00 2.669741e+01 
2.321770e+00 2.613643e+01 
2.355950e+00 2.560948e+01 
2.391280e+00 2.508020e+01 
2.426240e+00 2.457233e+01 
2.460670e+00 2.408728e+01 
2.495640e+00 2.360944e+01 
2.531080e+00 2.313815e+01 
2.566220e+00 2.268428e+01 
2.600830e+00 2.225015e+01 
2.635080e+00 2.183275e+01 
2.670340e+00 2.141379e+01 
2.705970e+00 2.100247e+01 
2.740040e+00 2.062005e+01 
2.774520e+00 2.024258e+01 
2.809730e+00 1.986709e+01 
2.844390e+00 1.950751e+01 
2.879960e+00 1.914795e+01 
2.914860e+00 1.880401e+01 
2.949410e+00 1.847248e+01 
2.984440e+00 1.814432e+01 
3.019760e+00 1.782178e+01 
3.054730e+00 1.751080e+01 
3.089030e+00 1.721230e+01 
3.124060e+00 1.691518e+01 
3.159560e+00 1.662141e+01 
3.194710e+00 1.633733e+01 
3.229010e+00 1.606711e+01 
3.263320e+00 1.580209e+01 
3.297930e+00 1.554132e+01 
3.332830e+00 1.528429e+01 
3.368040e+00 1.503090e+01 
3.403300e+00 1.478314e+01 
3.438450e+00 1.454143e+01 
3.473060e+00 1.430923e+01 
3.508440e+00 1.407645e+01 
3.543110e+00 1.385386e+01 
3.577470e+00 1.363759e+01 
3.613040e+00 1.341890e+01 
3.648120e+00 1.320764e+01 
3.682910e+00 1.300280e+01 
3.718050e+00 1.280009e+01 
3.753320e+00 1.260113e+01 
3.787980e+00 1.240968e+01 
3.822290e+00 1.222414e+01 
3.857020e+00 1.204003e+01 
3.891920e+00 1.185892e+01 
3.926650e+00 1.168214e+01 
3.961970e+00 1.150622e+01 
3.997360e+00 1.133342e+01 
4.031670e+00 1.116950e+01 
4.066330e+00 1.100694e+01 
4.101420e+00 1.084596e+01 
4.136200e+00 1.068907e+01 
4.170810e+00 1.053631e+01 
4.206250e+00 1.038276e+01 
4.241580e+00 1.023289e+01 
4.276300e+00 1.008834e+01 
4.310970e+00 9.946796e+00 
4.346120e+00 9.806102e+00 
4.380600e+00 9.670637e+00 
4.414730e+00 9.539251e+00 
4.450350e+00 9.404440e+00 
4.485320e+00 9.274811e+00 
4.519810e+00 9.149193e+00 
4.555430e+00 9.021921e+00 
4.590870e+00 8.897748e+00 
4.625480e+00 8.778661e+00 
4.659910e+00 8.662495e+00 
4.695230e+00 8.545342e+00 
4.729960e+00 8.432340e+00 
4.764450e+00 8.322128e+00 
4.799530e+00 8.211940e+00 
4.834910e+00 8.102945e+00 
4.869700e+00 7.997600e+00 
4.904370e+00 7.894547e+00 
4.939450e+00 7.792167e+00 
4.973940e+00 7.693228e+00 
5.008430e+00 7.596093e+00 
5.043810e+00 7.498117e+00 
5.078840e+00 7.402801e+00 
5.113500e+00 7.310197e+00 
5.148890e+00 7.217179e+00 
5.184210e+00 7.126020e+00 
5.219060e+00 7.037655e+00 
5.253660e+00 6.951384e+00 
5.288570e+00 6.865865e+00 
5.323420e+00 6.781929e+00 
5.358440e+00 6.698988e+00 
5.393590e+00 6.617185e+00 
5.428310e+00 6.537718e+00 
5.462800e+00 6.460085e+00 
5.497640e+00 6.382987e+00 
5.532670e+00 6.306731e+00 
5.567280e+00 6.232635e+00 
5.602000e+00 6.159538e+00 
5.637270e+00 6.086491e+00 
5.672410e+00 6.014919e+00 
5.707020e+00 5.945584e+00 
5.742040e+00 5.876567e+00 
5.777430e+00 5.807964e+00 
5.812210e+00 5.741638e+00 
5.846820e+00 5.676666e+00 
5.881610e+00 5.612388e+00 
5.916510e+00 5.548931e+00 
5.951600e+00 5.486139e+00 
5.986560e+00 5.424568e+00 
6.021830e+00 5.363429e+00 
6.056490e+00 5.304312e+00 
6.091160e+00 5.246111e+00 
6.125830e+00 5.188800e+00 
6.161090e+00 5.131422e+00 
6.195760e+00 5.075894e+00 
6.230420e+00 5.021218e+00 
6.265690e+00 4.966422e+00 
6.300950e+00 4.912514e+00 
6.335620e+00 4.860302e+00 
6.370880e+00 4.807991e+00 
6.405550e+00 4.757365e+00 
6.440220e+00 4.707498e+00 
6.475480e+00 4.657526e+00 
6.510150e+00 4.609123e+00 
6.544810e+00 4.561467e+00 
6.580080e+00 4.513673e+00 
6.614750e+00 4.467368e+00 
6.649410e+00 4.421814e+00 
6.684080e+00 4.376907e+00 
6.719340e+00 4.331883e+00 
6.754010e+00 4.288260e+00 
6.788680e+00 4.245301e+00 
6.823940e+00 4.202220e+00 
6.859800e+00 4.159026e+00 
6.894470e+00 4.117908e+00 
6.929140e+00 4.077374e+00 
6.963800e+00 4.037401e+00 
6.999070e+00 3.997285e+00 
7.033730e+00 3.958481e+00 
7.068400e+00 3.920184e+00 
7.103660e+00 3.881760e+00 
7.138330e+00 3.844517e+00 
7.173600e+00 3.807204e+00 
7.208260e+00 3.771021e+00 
7.243530e+00 3.734688e+00 
7.277600e+00 3.700095e+00 
7.312860e+00 3.664801e+00 
7.348120e+00 3.629970e+00 
7.382790e+00 3.596165e+00 
7.417460e+00 3.562864e+00 
7.452720e+00 3.529468e+00 
7.487390e+00 3.497050e+00 
7.522650e+00 3.464500e+00 
7.557320e+00 3.432974e+00 
7.591990e+00 3.401869e+00 
7.627250e+00 3.370632e+00 
7.662510e+00 3.339789e+00 
7.697180e+00 3.309914e+00 
7.731850e+00 3.280435e+00 
7.766510e+00 3.251325e+00 
7.801180e+00 3.222561e+00 
7.836440e+00 3.193732e+00 
7.871110e+00 3.165771e+00 
7.906380e+00 3.137671e+00 
7.941040e+00 3.110391e+00 
7.976310e+00 3.083003e+00 
8.011570e+00 3.056000e+00 
8.046240e+00 3.029766e+00 
8.080900e+00 3.003847e+00 
8.115570e+00 2.978249e+00 
8.150830e+00 2.952608e+00 
8.185500e+00 2.927691e+00 
8.220770e+00 2.902639e+00 
8.255430e+00 2.878306e+00 
8.290100e+00 2.854332e+00 
8.324770e+00 2.830642e+00 
8.359430e+00 2.807228e+00 
8.394700e+00 2.783675e+00 
8.429960e+00 2.760451e+00 
8.464630e+00 2.737927e+00 
8.499890e+00 2.715279e+00 
8.534560e+00 2.693261e+00 
8.569200e+00 2.671506e+00 
