# Parameters:
# omega_b = 0.021736, omega_m = 0.131850, n_s = 0.930315, h = 71.535433, w = -1.000000, sigma_8 = 0.740945
# z = 1.300000
#
# k[1/Mpc] # P(k):
8.694000e-04 5.401158e+03 
2.077466e-03 1.111836e+04 
3.285532e-03 1.538435e+04 
4.493598e-03 1.852328e+04 
5.701664e-03 2.074935e+04 
6.909730e-03 2.223494e+04 
8.117797e-03 2.315602e+04 
9.325863e-03 2.360474e+04 
1.053393e-02 2.367067e+04 
1.174199e-02 2.343395e+04 
1.295006e-02 2.294521e+04 
1.415813e-02 2.226967e+04 
1.536619e-02 2.146226e+04 
1.657426e-02 2.055979e+04 
1.778233e-02 1.959420e+04 
1.899039e-02 1.861138e+04 
2.019846e-02 1.763703e+04 
2.140652e-02 1.669472e+04 
2.261459e-02 1.579592e+04 
2.382266e-02 1.495384e+04 
2.503072e-02 1.417699e+04 
2.623879e-02 1.346738e+04 
2.744685e-02 1.282550e+04 
2.865492e-02 1.224997e+04 
2.986299e-02 1.173644e+04 
3.100100e-02 1.130710e+04 
3.220400e-02 1.090485e+04 
3.288100e-02 1.070094e+04 
3.424300e-02 1.033175e+04 
3.555100e-02 1.002058e+04 
3.686000e-02 9.744925e+03 
3.795000e-02 9.536437e+03 
3.929100e-02 9.300721e+03 
4.039800e-02 9.117122e+03 
4.164000e-02 8.918459e+03 
4.294400e-02 8.709730e+03 
4.415000e-02 8.516945e+03 
4.542900e-02 8.303731e+03 
4.660900e-02 8.103137e+03 
4.782300e-02 7.882643e+03 
4.892900e-02 7.676544e+03 
5.031200e-02 7.409058e+03 
5.155900e-02 7.158891e+03 
5.238100e-02 6.991328e+03 
5.378200e-02 6.703467e+03 
5.513400e-02 6.424586e+03 
5.627600e-02 6.191267e+03 
5.735300e-02 5.975623e+03 
5.870100e-02 5.714150e+03 
5.988700e-02 5.494279e+03 
6.113500e-02 5.274412e+03 
6.225900e-02 5.088076e+03 
6.340100e-02 4.911093e+03 
6.480200e-02 4.710650e+03 
6.601100e-02 4.554411e+03 
6.725500e-02 4.409099e+03 
6.829100e-02 4.300977e+03 
6.958600e-02 4.178731e+03 
7.071100e-02 4.084922e+03 
7.192300e-02 3.994804e+03 
7.307400e-02 3.918547e+03 
7.412300e-02 3.855869e+03 
7.550400e-02 3.782469e+03 
7.663100e-02 3.727895e+03 
7.791200e-02 3.671295e+03 
7.912700e-02 3.620651e+03 
8.027600e-02 3.574097e+03 
8.138400e-02 3.529643e+03 
8.272200e-02 3.475434e+03 
8.406100e-02 3.419597e+03 
8.534100e-02 3.362891e+03 
8.653800e-02 3.306455e+03 
8.759800e-02 3.254503e+03 
8.900300e-02 3.182244e+03 
9.009000e-02 3.123346e+03 
9.113300e-02 3.064219e+03 
9.239600e-02 2.991327e+03 
9.358000e-02 2.921180e+03 
9.496100e-02 2.837359e+03 
9.608400e-02 2.769384e+03 
9.727500e-02 2.698044e+03 
9.852600e-02 2.623344e+03 
9.973800e-02 2.553255e+03 
1.009000e-01 2.488130e+03 
1.020900e-01 2.424670e+03 
1.034000e-01 2.358319e+03 
1.046000e-01 2.300819e+03 
1.057200e-01 2.251754e+03 
1.069100e-01 2.202378e+03 
1.082500e-01 2.152271e+03 
1.093900e-01 2.113513e+03 
1.105400e-01 2.076964e+03 
1.116900e-01 2.044992e+03 
1.129600e-01 2.011824e+03 
1.142000e-01 1.983277e+03 
1.153300e-01 1.958876e+03 
1.166400e-01 1.932799e+03 
1.177800e-01 1.911470e+03 
1.190000e-01 1.889569e+03 
1.201200e-01 1.869810e+03 
1.213400e-01 1.848773e+03 
1.227100e-01 1.824337e+03 
1.238900e-01 1.803349e+03 
1.250700e-01 1.781251e+03 
1.263200e-01 1.757623e+03 
1.275500e-01 1.733213e+03 
1.287500e-01 1.709007e+03 
1.299900e-01 1.683081e+03 
1.311300e-01 1.658951e+03 
1.323500e-01 1.632453e+03 
1.335900e-01 1.605490e+03 
1.347100e-01 1.580808e+03 
1.359800e-01 1.553103e+03 
1.372100e-01 1.526181e+03 
1.384300e-01 1.499974e+03 
1.395700e-01 1.475709e+03 
1.407700e-01 1.450750e+03 
1.420300e-01 1.425196e+03 
1.432800e-01 1.400453e+03 
1.444500e-01 1.378282e+03 
1.456300e-01 1.356413e+03 
1.468900e-01 1.334250e+03 
1.480500e-01 1.314489e+03 
1.491700e-01 1.296229e+03 
1.503800e-01 1.277453e+03 
1.516400e-01 1.258523e+03 
1.528200e-01 1.242052e+03 
1.540200e-01 1.225635e+03 
1.551900e-01 1.210726e+03 
1.564300e-01 1.195425e+03 
1.576600e-01 1.180885e+03 
1.588700e-01 1.167265e+03 
1.600900e-01 1.153814e+03 
1.612700e-01 1.141445e+03 
1.625400e-01 1.128382e+03 
1.637600e-01 1.116095e+03 
1.649500e-01 1.104344e+03 
1.662200e-01 1.091989e+03 
1.674000e-01 1.080479e+03 
1.685000e-01 1.069930e+03 
1.697500e-01 1.057890e+03 
1.710300e-01 1.045530e+03 
1.722200e-01 1.034246e+03 
1.734400e-01 1.022286e+03 
1.746400e-01 1.010704e+03 
1.758700e-01 9.988659e+02 
1.770900e-01 9.869724e+02 
1.782700e-01 9.756697e+02 
1.794600e-01 9.642378e+02 
1.807000e-01 9.523813e+02 
1.819100e-01 9.410162e+02 
1.830100e-01 9.307149e+02 
1.842200e-01 9.195471e+02 
1.855000e-01 9.079444e+02 
1.867000e-01 8.972908e+02 
1.879200e-01 8.866440e+02 
1.890900e-01 8.766334e+02 
1.902800e-01 8.667693e+02 
1.915200e-01 8.566623e+02 
1.926900e-01 8.473478e+02 
1.939000e-01 8.380815e+02 
1.951700e-01 8.285168e+02 
1.963100e-01 8.201422e+02 
1.975100e-01 8.116593e+02 
1.987800e-01 8.028255e+02 
2.000100e-01 7.944796e+02 
2.012500e-01 7.863651e+02 
2.023400e-01 7.793373e+02 
2.036100e-01 7.713024e+02 
2.048900e-01 7.634566e+02 
2.060400e-01 7.565135e+02 
2.072200e-01 7.494966e+02 
2.084200e-01 7.425300e+02 
2.096900e-01 7.352673e+02 
2.109200e-01 7.283393e+02 
2.121100e-01 7.217229e+02 
2.132700e-01 7.153631e+02 
2.145200e-01 7.086078e+02 
2.157200e-01 7.021830e+02 
2.168800e-01 6.960432e+02 
2.180700e-01 6.898312e+02 
2.193400e-01 6.832704e+02 
2.206000e-01 6.768088e+02 
2.217500e-01 6.709932e+02 
2.229500e-01 6.650067e+02 
2.241400e-01 6.590851e+02 
2.253500e-01 6.531447e+02 
2.264900e-01 6.476225e+02 
2.277100e-01 6.417694e+02 
2.289900e-01 6.356900e+02 
2.301500e-01 6.302559e+02 
2.313600e-01 6.246623e+02 
2.325600e-01 6.191694e+02 
2.337700e-01 6.137046e+02 
2.350000e-01 6.082238e+02 
2.362000e-01 6.029507e+02 
2.374100e-01 5.977068e+02 
2.386500e-01 5.924042e+02 
2.399100e-01 5.870886e+02 
2.410400e-01 5.824059e+02 
2.422500e-01 5.774572e+02 
2.435000e-01 5.724116e+02 
2.447300e-01 5.675197e+02 
2.458700e-01 5.630748e+02 
2.470600e-01 5.584912e+02 
2.483300e-01 5.536619e+02 
2.495600e-01 5.490627e+02 
2.507600e-01 5.446555e+02 
2.519600e-01 5.403023e+02 
2.532200e-01 5.357885e+02 
2.543700e-01 5.317427e+02 
2.555500e-01 5.276559e+02 
2.568000e-01 5.233792e+02 
2.580100e-01 5.192900e+02 
2.592400e-01 5.152067e+02 
2.604100e-01 5.113786e+02 
2.616100e-01 5.074979e+02 
2.628400e-01 5.035672e+02 
2.640600e-01 4.997313e+02 
2.652200e-01 4.961325e+02 
2.664300e-01 4.924212e+02 
2.676500e-01 4.887227e+02 
2.688400e-01 4.851640e+02 
2.700700e-01 4.815326e+02 
2.712400e-01 4.781174e+02 
2.724800e-01 4.745387e+02 
2.736700e-01 4.711478e+02 
2.748800e-01 4.677430e+02 
2.761000e-01 4.643486e+02 
2.773200e-01 4.609923e+02 
2.785400e-01 4.576740e+02 
2.797000e-01 4.545542e+02 
2.808900e-01 4.513878e+02 
2.821400e-01 4.480986e+02 
2.833900e-01 4.448463e+02 
2.845500e-01 4.418576e+02 
2.857800e-01 4.387224e+02 
2.870300e-01 4.355714e+02 
2.882100e-01 4.326289e+02 
2.893900e-01 4.297161e+02 
2.906300e-01 4.266873e+02 
2.918900e-01 4.236434e+02 
2.930500e-01 4.208706e+02 
2.942500e-01 4.180311e+02 
2.954200e-01 4.152892e+02 
2.966500e-01 4.124365e+02 
2.978900e-01 4.095912e+02 
2.990400e-01 4.069794e+02 
3.002700e-01 4.042132e+02 
3.015100e-01 4.014532e+02 
3.026800e-01 3.988756e+02 
3.038500e-01 3.963234e+02 
3.050300e-01 3.937748e+02 
3.062600e-01 3.911451e+02 
3.075000e-01 3.885212e+02 
3.087000e-01 3.860078e+02 
3.099100e-01 3.834986e+02 
3.111200e-01 3.810161e+02 
3.123100e-01 3.786017e+02 
3.135300e-01 3.761507e+02 
3.147300e-01 3.737636e+02 
3.159900e-01 3.712823e+02 
3.171800e-01 3.689652e+02 
3.183700e-01 3.666725e+02 
3.196300e-01 3.642687e+02 
3.208400e-01 3.619831e+02 
3.220300e-01 3.597567e+02 
3.232000e-01 3.575936e+02 
3.244300e-01 3.553433e+02 
3.256700e-01 3.530966e+02 
3.269200e-01 3.508540e+02 
3.280800e-01 3.487924e+02 
3.292500e-01 3.467392e+02 
3.304800e-01 3.446032e+02 
3.317100e-01 3.424875e+02 
3.328900e-01 3.404766e+02 
3.340700e-01 3.384838e+02 
3.353600e-01 3.363344e+02 
3.365300e-01 3.344063e+02 
3.377100e-01 3.324791e+02 
3.389200e-01 3.305207e+02 
3.401600e-01 3.285322e+02 
3.413700e-01 3.266175e+02 
3.425300e-01 3.248037e+02 
3.437700e-01 3.228821e+02 
3.449800e-01 3.210240e+02 
3.461800e-01 3.191976e+02 
3.473600e-01 3.174210e+02 
3.485800e-01 3.156093e+02 
3.498100e-01 3.137991e+02 
3.510200e-01 3.120341e+02 
3.522000e-01 3.103277e+02 
3.533900e-01 3.086216e+02 
3.546400e-01 3.068572e+02 
3.558400e-01 3.051790e+02 
3.570600e-01 3.034875e+02 
3.582700e-01 3.018244e+02 
3.595000e-01 3.001484e+02 
3.607100e-01 2.985204e+02 
3.618900e-01 2.969513e+02 
3.631200e-01 2.953295e+02 
3.643200e-01 2.937606e+02 
3.655500e-01 2.921661e+02 
3.667300e-01 2.906493e+02 
3.679500e-01 2.891066e+02 
3.691900e-01 2.875518e+02 
3.703600e-01 2.860970e+02 
3.715700e-01 2.846046e+02 
3.727700e-01 2.831367e+02 
3.739900e-01 2.816606e+02 
3.752000e-01 2.802158e+02 
3.763900e-01 2.788064e+02 
3.775800e-01 2.774083e+02 
3.788200e-01 2.759632e+02 
3.800300e-01 2.745646e+02 
3.812100e-01 2.732170e+02 
3.824200e-01 2.718497e+02 
3.836100e-01 2.705156e+02 
3.848600e-01 2.691255e+02 
3.860400e-01 2.678237e+02 
3.872400e-01 2.665101e+02 
3.884600e-01 2.651921e+02 
3.896500e-01 2.639192e+02 
3.908700e-01 2.626243e+02 
3.920600e-01 2.613711e+02 
3.933100e-01 2.600651e+02 
3.945300e-01 2.588004e+02 
3.957200e-01 2.575831e+02 
3.969300e-01 2.563568e+02 
3.981700e-01 2.551098e+02 
3.993500e-01 2.539322e+02 
4.094840e-01 2.441984e+02 
4.272360e-01 2.287053e+02 
4.454600e-01 2.145249e+02 
4.630560e-01 2.022350e+02 
4.804610e-01 1.912436e+02 
4.980690e-01 1.811431e+02 
5.159230e-01 1.718166e+02 
5.317440e-01 1.642317e+02 
5.489640e-01 1.566280e+02 
5.671990e-01 1.492393e+02 
5.838690e-01 1.430150e+02 
6.018840e-01 1.368019e+02 
6.202330e-01 1.309740e+02 
6.379250e-01 1.257718e+02 
6.545410e-01 1.212411e+02 
6.714560e-01 1.169332e+02 
6.892080e-01 1.127200e+02 
7.066010e-01 1.088728e+02 
7.240540e-01 1.052582e+02 
7.420450e-01 1.017778e+02 
7.593780e-01 9.863510e+01 
7.764720e-01 9.571652e+01 
7.942840e-01 9.285406e+01 
8.116170e-01 9.023057e+01 
8.288310e-01 8.777086e+01 
8.462240e-01 8.541796e+01 
8.631980e-01 8.324065e+01 
8.810700e-01 8.106498e+01 
8.989410e-01 7.900086e+01 
9.166330e-01 7.705833e+01 
9.345640e-01 7.518489e+01 
9.515980e-01 7.348739e+01 
9.688720e-01 7.184148e+01 
9.865640e-01 7.023021e+01 
1.031870e+00 6.640663e+01 
1.063490e+00 6.396804e+01 
1.097920e+00 6.150255e+01 
1.134370e+00 5.907901e+01 
1.167730e+00 5.701389e+01 
1.203830e+00 5.492268e+01 
1.240470e+00 5.293949e+01 
1.275790e+00 5.114507e+01 
1.309140e+00 4.955002e+01 
1.342970e+00 4.801584e+01 
1.378420e+00 4.649717e+01 
1.413200e+00 4.508555e+01 
1.448110e+00 4.373979e+01 
1.484090e+00 4.242415e+01 
1.518820e+00 4.121563e+01 
1.552880e+00 4.008453e+01 
1.588630e+00 3.895123e+01 
1.623230e+00 3.790479e+01 
1.657720e+00 3.690659e+01 
1.692450e+00 3.594476e+01 
1.726400e+00 3.504152e+01 
1.762200e+00 3.412749e+01 
1.797880e+00 3.325469e+01 
1.833270e+00 3.242365e+01 
1.869070e+00 3.161563e+01 
1.903200e+00 3.087480e+01 
1.937740e+00 3.015238e+01 
1.973190e+00 2.943778e+01 
2.007440e+00 2.877227e+01 
2.042160e+00 2.812116e+01 
2.077900e+00 2.747409e+01 
2.112390e+00 2.687145e+01 
2.146220e+00 2.629900e+01 
2.181600e+00 2.572022e+01 
2.216930e+00 2.516138e+01 
2.250760e+00 2.464338e+01 
2.286500e+00 2.411349e+01 
2.321770e+00 2.360730e+01 
2.355950e+00 2.313182e+01 
2.391280e+00 2.265446e+01 
2.426240e+00 2.219643e+01 
2.460670e+00 2.175899e+01 
2.495640e+00 2.132811e+01 
2.531080e+00 2.090325e+01 
2.566220e+00 2.049415e+01 
2.600830e+00 2.010286e+01 
2.635080e+00 1.972664e+01 
2.670340e+00 1.934901e+01 
2.705970e+00 1.897833e+01 
2.740040e+00 1.863375e+01 
2.774520e+00 1.829366e+01 
2.809730e+00 1.795536e+01 
2.844390e+00 1.763139e+01 
2.879960e+00 1.730739e+01 
2.914860e+00 1.699753e+01 
2.949410e+00 1.669886e+01 
2.984440e+00 1.640321e+01 
3.019760e+00 1.611267e+01 
3.054730e+00 1.583256e+01 
3.089030e+00 1.556362e+01 
3.124060e+00 1.529594e+01 
3.159560e+00 1.503129e+01 
3.194710e+00 1.477536e+01 
3.229010e+00 1.453189e+01 
3.263320e+00 1.429310e+01 
3.297930e+00 1.405814e+01 
3.332830e+00 1.382657e+01 
3.368040e+00 1.359824e+01 
3.403300e+00 1.337496e+01 
3.438450e+00 1.315713e+01 
3.473060e+00 1.294785e+01 
3.508440e+00 1.273806e+01 
3.543110e+00 1.253744e+01 
3.577470e+00 1.234245e+01 
3.613040e+00 1.214529e+01 
3.648120e+00 1.195486e+01 
3.682910e+00 1.177019e+01 
3.718050e+00 1.158740e+01 
3.753320e+00 1.140798e+01 
3.787980e+00 1.123533e+01 
3.822290e+00 1.106799e+01 
3.857020e+00 1.090194e+01 
3.891920e+00 1.073856e+01 
3.926650e+00 1.057908e+01 
3.961970e+00 1.042036e+01 
3.997360e+00 1.026442e+01 
4.031670e+00 1.011648e+01 
4.066330e+00 9.969784e+00 
4.101420e+00 9.824497e+00 
4.136200e+00 9.682873e+00 
4.170810e+00 9.544973e+00 
4.206250e+00 9.406341e+00 
4.241580e+00 9.271040e+00 
4.276300e+00 9.140508e+00 
4.310970e+00 9.012669e+00 
4.346120e+00 8.885595e+00 
4.380600e+00 8.763236e+00 
4.414730e+00 8.644557e+00 
4.450350e+00 8.522755e+00 
4.485320e+00 8.405631e+00 
4.519810e+00 8.292111e+00 
4.555430e+00 8.177087e+00 
4.590870e+00 8.064858e+00 
4.625480e+00 7.957219e+00 
4.659910e+00 7.852219e+00 
4.695230e+00 7.746292e+00 
4.729960e+00 7.644114e+00 
4.764450e+00 7.544447e+00 
4.799530e+00 7.444788e+00 
4.834910e+00 7.346206e+00 
4.869700e+00 7.250911e+00 
4.904370e+00 7.157686e+00 
4.939450e+00 7.065063e+00 
4.973940e+00 6.975540e+00 
5.008430e+00 6.887649e+00 
5.043810e+00 6.798986e+00 
5.078840e+00 6.712724e+00 
5.113500e+00 6.628915e+00 
5.148890e+00 6.544706e+00 
5.184210e+00 6.462180e+00 
5.219060e+00 6.382177e+00 
5.253660e+00 6.304063e+00 
5.288570e+00 6.226628e+00 
5.323420e+00 6.150622e+00 
5.358440e+00 6.075511e+00 
5.393590e+00 6.001431e+00 
5.428310e+00 5.929452e+00 
5.462800e+00 5.859127e+00 
5.497640e+00 5.789287e+00 
5.532670e+00 5.720195e+00 
5.567280e+00 5.653057e+00 
5.602000e+00 5.586822e+00 
5.637270e+00 5.520628e+00 
5.672410e+00 5.455770e+00 
5.707020e+00 5.392938e+00 
5.742040e+00 5.330383e+00 
5.777430e+00 5.268199e+00 
5.812210e+00 5.208080e+00 
5.846820e+00 5.149184e+00 
5.881610e+00 5.090916e+00 
5.916510e+00 5.033392e+00 
5.951600e+00 4.976464e+00 
5.986560e+00 4.920639e+00 
6.021830e+00 4.865206e+00 
6.056490e+00 4.811599e+00 
6.091160e+00 4.758819e+00 
6.125830e+00 4.706846e+00 
6.161090e+00 4.654812e+00 
6.195760e+00 4.604453e+00 
6.230420e+00 4.554868e+00 
6.265690e+00 4.505174e+00 
6.300950e+00 4.456277e+00 
6.335620e+00 4.408917e+00 
6.370880e+00 4.361469e+00 
6.405550e+00 4.315548e+00 
6.440220e+00 4.270315e+00 
6.475480e+00 4.224988e+00 
6.510150e+00 4.181081e+00 
6.544810e+00 4.137849e+00 
6.580080e+00 4.094490e+00 
6.614750e+00 4.052483e+00 
6.649410e+00 4.011158e+00 
6.684080e+00 3.970419e+00 
6.719340e+00 3.929573e+00 
6.754010e+00 3.889998e+00 
6.788680e+00 3.851022e+00 
6.823940e+00 3.811936e+00 
6.859800e+00 3.772746e+00 
6.894470e+00 3.735441e+00 
6.929140e+00 3.698666e+00 
6.963800e+00 3.662401e+00 
6.999070e+00 3.626006e+00 
7.033730e+00 3.590801e+00 
7.068400e+00 3.556058e+00 
7.103660e+00 3.521198e+00 
7.138330e+00 3.487411e+00 
7.173600e+00 3.453561e+00 
7.208260e+00 3.420738e+00 
7.243530e+00 3.387777e+00 
7.277600e+00 3.356396e+00 
7.312860e+00 3.324379e+00 
7.348120e+00 3.292782e+00 
7.382790e+00 3.262117e+00 
7.417460e+00 3.231907e+00 
7.452720e+00 3.201610e+00 
7.487390e+00 3.172201e+00 
7.522650e+00 3.142671e+00 
7.557320e+00 3.114075e+00 
7.591990e+00 3.085863e+00 
7.627250e+00 3.057531e+00 
7.662510e+00 3.029556e+00 
7.697180e+00 3.002460e+00 
7.731850e+00 2.975724e+00 
7.766510e+00 2.949323e+00 
7.801180e+00 2.923235e+00 
7.836440e+00 2.897092e+00 
7.871110e+00 2.871738e+00 
7.906380e+00 2.846259e+00 
7.941040e+00 2.821522e+00 
7.976310e+00 2.796689e+00 
8.011570e+00 2.772206e+00 
8.046240e+00 2.748419e+00 
8.080900e+00 2.724919e+00 
8.115570e+00 2.701710e+00 
8.150830e+00 2.678467e+00 
8.185500e+00 2.655880e+00 
8.220770e+00 2.633170e+00 
8.255430e+00 2.611113e+00 
8.290100e+00 2.589382e+00 
8.324770e+00 2.567909e+00 
8.359430e+00 2.546686e+00 
8.394700e+00 2.525336e+00 
8.429960e+00 2.504287e+00 
8.464630e+00 2.483876e+00 
8.499890e+00 2.463352e+00 
8.534560e+00 2.443398e+00 
8.569200e+00 2.423682e+00 
