# Parameters:
# omega_b = 0.022902, omega_m = 0.152795, n_s = 0.901969, h = 80.039370, w = -1.000000, sigma_8 = 0.753543
# z = 1.300000
#
# k[1/Mpc] # P(k):
8.694000e-04 3.788149e+03 
2.077466e-03 7.710573e+03 
3.285532e-03 1.069204e+04 
4.493598e-03 1.296572e+04 
5.701664e-03 1.464590e+04 
6.909730e-03 1.583882e+04 
8.117797e-03 1.665646e+04 
9.325863e-03 1.715577e+04 
1.053393e-02 1.739080e+04 
1.174199e-02 1.740921e+04 
1.295006e-02 1.724259e+04 
1.415813e-02 1.693273e+04 
1.536619e-02 1.651330e+04 
1.657426e-02 1.600410e+04 
1.778233e-02 1.540782e+04 
1.899039e-02 1.474483e+04 
2.019846e-02 1.406808e+04 
2.140652e-02 1.341650e+04 
2.261459e-02 1.278849e+04 
2.382266e-02 1.218704e+04 
2.503072e-02 1.161898e+04 
2.623879e-02 1.108770e+04 
2.744685e-02 1.059419e+04 
2.865492e-02 1.014147e+04 
2.986299e-02 9.728638e+03 
3.100100e-02 9.375695e+03 
3.220400e-02 9.038858e+03 
3.288100e-02 8.865612e+03 
3.424300e-02 8.548996e+03 
3.555100e-02 8.280536e+03 
3.686000e-02 8.043191e+03 
3.795000e-02 7.865441e+03 
3.929100e-02 7.669124e+03 
4.039800e-02 7.520728e+03 
4.164000e-02 7.364838e+03 
4.294400e-02 7.208353e+03 
4.415000e-02 7.067695e+03 
4.542900e-02 6.916671e+03 
4.660900e-02 6.776383e+03 
4.782300e-02 6.623346e+03 
4.892900e-02 6.479835e+03 
5.031200e-02 6.291789e+03 
5.155900e-02 6.112963e+03 
5.238100e-02 5.991224e+03 
5.378200e-02 5.778008e+03 
5.513400e-02 5.564788e+03 
5.627600e-02 5.380214e+03 
5.735300e-02 5.203717e+03 
5.870100e-02 4.980723e+03 
5.988700e-02 4.785177e+03 
6.113500e-02 4.582376e+03 
6.225900e-02 4.405375e+03 
6.340100e-02 4.234416e+03 
6.480200e-02 4.039820e+03 
6.601100e-02 3.888674e+03 
6.725500e-02 3.749815e+03 
6.829100e-02 3.648060e+03 
6.958600e-02 3.534666e+03 
7.071100e-02 3.448971e+03 
7.192300e-02 3.367645e+03 
7.307400e-02 3.299619e+03 
7.412300e-02 3.244281e+03 
7.550400e-02 3.180383e+03 
7.663100e-02 3.133522e+03 
7.791200e-02 3.086036e+03 
7.912700e-02 3.044693e+03 
8.027600e-02 3.007595e+03 
8.138400e-02 2.972927e+03 
8.272200e-02 2.931626e+03 
8.406100e-02 2.889949e+03 
8.534100e-02 2.848348e+03 
8.653800e-02 2.807234e+03 
8.759800e-02 2.769418e+03 
8.900300e-02 2.716698e+03 
9.009000e-02 2.673434e+03 
9.113300e-02 2.629521e+03 
9.239600e-02 2.574857e+03 
9.358000e-02 2.521492e+03 
9.496100e-02 2.456377e+03 
9.608400e-02 2.402683e+03 
9.727500e-02 2.345604e+03 
9.852600e-02 2.283964e+03 
9.973800e-02 2.225227e+03 
1.009000e-01 2.169912e+03 
1.020900e-01 2.114210e+03 
1.034000e-01 2.055163e+03 
1.046000e-01 2.003154e+03 
1.057200e-01 1.957473e+03 
1.069100e-01 1.911091e+03 
1.082500e-01 1.862837e+03 
1.093900e-01 1.824945e+03 
1.105400e-01 1.788874e+03 
1.116900e-01 1.756798e+03 
1.129600e-01 1.723445e+03 
1.142000e-01 1.694697e+03 
1.153300e-01 1.670362e+03 
1.166400e-01 1.644717e+03 
1.177800e-01 1.624515e+03 
1.190000e-01 1.604141e+03 
1.201200e-01 1.587080e+03 
1.213400e-01 1.569149e+03 
1.227100e-01 1.550259e+03 
1.238900e-01 1.534365e+03 
1.250700e-01 1.518639e+03 
1.263200e-01 1.502058e+03 
1.275500e-01 1.485428e+03 
1.287500e-01 1.468951e+03 
1.299900e-01 1.451322e+03 
1.311300e-01 1.434656e+03 
1.323500e-01 1.415978e+03 
1.335900e-01 1.396482e+03 
1.347100e-01 1.378011e+03 
1.359800e-01 1.356766e+03 
1.372100e-01 1.335137e+03 
1.384300e-01 1.313641e+03 
1.395700e-01 1.292719e+03 
1.407700e-01 1.271070e+03 
1.420300e-01 1.247617e+03 
1.432800e-01 1.224920e+03 
1.444500e-01 1.203590e+03 
1.456300e-01 1.182572e+03 
1.468900e-01 1.160869e+03 
1.480500e-01 1.141415e+03 
1.491700e-01 1.123418e+03 
1.503800e-01 1.104878e+03 
1.516400e-01 1.086269e+03 
1.528200e-01 1.070358e+03 
1.540200e-01 1.054513e+03 
1.551900e-01 1.040620e+03 
1.564300e-01 1.026491e+03 
1.576600e-01 1.013400e+03 
1.588700e-01 1.001543e+03 
1.600900e-01 9.898702e+02 
1.612700e-01 9.797965e+02 
1.625400e-01 9.691559e+02 
1.637600e-01 9.594385e+02 
1.649500e-01 9.503130e+02 
1.662200e-01 9.407469e+02 
1.674000e-01 9.319970e+02 
1.685000e-01 9.239757e+02 
1.697500e-01 9.147693e+02 
1.710300e-01 9.052682e+02 
1.722200e-01 8.965913e+02 
1.734400e-01 8.871133e+02 
1.746400e-01 8.779216e+02 
1.758700e-01 8.684020e+02 
1.770900e-01 8.585935e+02 
1.782700e-01 8.492695e+02 
1.794600e-01 8.396291e+02 
1.807000e-01 8.294920e+02 
1.819100e-01 8.197741e+02 
1.830100e-01 8.107396e+02 
1.842200e-01 8.009074e+02 
1.855000e-01 7.906849e+02 
1.867000e-01 7.811128e+02 
1.879200e-01 7.715490e+02 
1.890900e-01 7.625423e+02 
1.902800e-01 7.535849e+02 
1.915200e-01 7.444095e+02 
1.926900e-01 7.359496e+02 
1.939000e-01 7.275152e+02 
1.951700e-01 7.188117e+02 
1.963100e-01 7.112011e+02 
1.975100e-01 7.035153e+02 
1.987800e-01 6.955134e+02 
2.000100e-01 6.879747e+02 
2.012500e-01 6.806915e+02 
2.023400e-01 6.743847e+02 
2.036100e-01 6.671921e+02 
2.048900e-01 6.602351e+02 
2.060400e-01 6.540792e+02 
2.072200e-01 6.478644e+02 
2.084200e-01 6.417655e+02 
2.096900e-01 6.354079e+02 
2.109200e-01 6.293435e+02 
2.121100e-01 6.236170e+02 
2.132700e-01 6.181159e+02 
2.145200e-01 6.122727e+02 
2.157200e-01 6.067557e+02 
2.168800e-01 6.015017e+02 
2.180700e-01 5.961857e+02 
2.193400e-01 5.905918e+02 
2.206000e-01 5.851201e+02 
2.217500e-01 5.801951e+02 
2.229500e-01 5.751250e+02 
2.241400e-01 5.701644e+02 
2.253500e-01 5.651888e+02 
2.264900e-01 5.605630e+02 
2.277100e-01 5.556893e+02 
2.289900e-01 5.506596e+02 
2.301500e-01 5.461629e+02 
2.313600e-01 5.415338e+02 
2.325600e-01 5.370493e+02 
2.337700e-01 5.325865e+02 
2.350000e-01 5.281098e+02 
2.362000e-01 5.238278e+02 
2.374100e-01 5.195995e+02 
2.386500e-01 5.153227e+02 
2.399100e-01 5.110341e+02 
2.410400e-01 5.072901e+02 
2.422500e-01 5.033367e+02 
2.435000e-01 4.993045e+02 
2.447300e-01 4.953977e+02 
2.458700e-01 4.918617e+02 
2.470600e-01 4.882143e+02 
2.483300e-01 4.843701e+02 
2.495600e-01 4.807042e+02 
2.507600e-01 4.771854e+02 
2.519600e-01 4.737086e+02 
2.532200e-01 4.701025e+02 
2.543700e-01 4.668503e+02 
2.555500e-01 4.635514e+02 
2.568000e-01 4.600982e+02 
2.580100e-01 4.567955e+02 
2.592400e-01 4.534620e+02 
2.604100e-01 4.503209e+02 
2.616100e-01 4.471359e+02 
2.628400e-01 4.439092e+02 
2.640600e-01 4.407195e+02 
2.652200e-01 4.377105e+02 
2.664300e-01 4.346070e+02 
2.676500e-01 4.315136e+02 
2.688400e-01 4.285046e+02 
2.700700e-01 4.254135e+02 
2.712400e-01 4.225061e+02 
2.724800e-01 4.194592e+02 
2.736700e-01 4.165507e+02 
2.748800e-01 4.136083e+02 
2.761000e-01 4.106747e+02 
2.773200e-01 4.077739e+02 
2.785400e-01 4.048957e+02 
2.797000e-01 4.021688e+02 
2.808900e-01 3.994012e+02 
2.821400e-01 3.965260e+02 
2.833900e-01 3.936821e+02 
2.845500e-01 3.910496e+02 
2.857800e-01 3.882880e+02 
2.870300e-01 3.855125e+02 
2.882100e-01 3.829207e+02 
2.893900e-01 3.803468e+02 
2.906300e-01 3.776660e+02 
2.918900e-01 3.749719e+02 
2.930500e-01 3.725177e+02 
2.942500e-01 3.700028e+02 
2.954200e-01 3.675690e+02 
2.966500e-01 3.650369e+02 
2.978900e-01 3.625114e+02 
2.990400e-01 3.601931e+02 
3.002700e-01 3.577351e+02 
3.015100e-01 3.552814e+02 
3.026800e-01 3.529898e+02 
3.038500e-01 3.507208e+02 
3.050300e-01 3.484551e+02 
3.062600e-01 3.461151e+02 
3.075000e-01 3.437803e+02 
3.087000e-01 3.415439e+02 
3.099100e-01 3.393113e+02 
3.111200e-01 3.371021e+02 
3.123100e-01 3.349528e+02 
3.135300e-01 3.327711e+02 
3.147300e-01 3.306464e+02 
3.159900e-01 3.284377e+02 
3.171800e-01 3.263748e+02 
3.183700e-01 3.243333e+02 
3.196300e-01 3.221930e+02 
3.208400e-01 3.201579e+02 
3.220300e-01 3.181756e+02 
3.232000e-01 3.162497e+02 
3.244300e-01 3.142461e+02 
3.256700e-01 3.122459e+02 
3.269200e-01 3.102492e+02 
3.280800e-01 3.084138e+02 
3.292500e-01 3.065860e+02 
3.304800e-01 3.046844e+02 
3.317100e-01 3.028009e+02 
3.328900e-01 3.010108e+02 
3.340700e-01 2.992368e+02 
3.353600e-01 2.973235e+02 
3.365300e-01 2.956074e+02 
3.377100e-01 2.938920e+02 
3.389200e-01 2.921489e+02 
3.401600e-01 2.903791e+02 
3.413700e-01 2.886754e+02 
3.425300e-01 2.870616e+02 
3.437700e-01 2.853519e+02 
3.449800e-01 2.836988e+02 
3.461800e-01 2.820739e+02 
3.473600e-01 2.804934e+02 
3.485800e-01 2.788820e+02 
3.498100e-01 2.772720e+02 
3.510200e-01 2.757021e+02 
3.522000e-01 2.741845e+02 
3.533900e-01 2.726671e+02 
3.546400e-01 2.710986e+02 
3.558400e-01 2.696068e+02 
3.570600e-01 2.681032e+02 
3.582700e-01 2.666248e+02 
3.595000e-01 2.651349e+02 
3.607100e-01 2.636880e+02 
3.618900e-01 2.622937e+02 
3.631200e-01 2.608525e+02 
3.643200e-01 2.594584e+02 
3.655500e-01 2.580415e+02 
3.667300e-01 2.566936e+02 
3.679500e-01 2.553234e+02 
3.691900e-01 2.539424e+02 
3.703600e-01 2.526502e+02 
3.715700e-01 2.513246e+02 
3.727700e-01 2.500209e+02 
3.739900e-01 2.487100e+02 
3.752000e-01 2.474273e+02 
3.763900e-01 2.461760e+02 
3.775800e-01 2.449347e+02 
3.788200e-01 2.436518e+02 
3.800300e-01 2.424102e+02 
3.812100e-01 2.412139e+02 
3.824200e-01 2.400004e+02 
3.836100e-01 2.388163e+02 
3.848600e-01 2.375825e+02 
3.860400e-01 2.364271e+02 
3.872400e-01 2.352613e+02 
3.884600e-01 2.340918e+02 
3.896500e-01 2.329625e+02 
3.908700e-01 2.318137e+02 
3.920600e-01 2.307018e+02 
3.933100e-01 2.295431e+02 
3.945300e-01 2.284211e+02 
3.957200e-01 2.273412e+02 
3.969300e-01 2.262533e+02 
3.981700e-01 2.251471e+02 
3.993500e-01 2.241024e+02 
4.094840e-01 2.154691e+02 
4.272360e-01 2.017284e+02 
4.454600e-01 1.891510e+02 
4.630560e-01 1.782477e+02 
4.804610e-01 1.684932e+02 
4.980690e-01 1.595250e+02 
5.159230e-01 1.512413e+02 
5.317440e-01 1.445015e+02 
5.489640e-01 1.377438e+02 
5.671990e-01 1.311748e+02 
5.838690e-01 1.256394e+02 
6.018840e-01 1.201130e+02 
6.202330e-01 1.149292e+02 
6.379250e-01 1.103017e+02 
6.545410e-01 1.062723e+02 
6.714560e-01 1.024419e+02 
6.892080e-01 9.869627e+01 
7.066010e-01 9.527760e+01 
7.240540e-01 9.206711e+01 
7.420450e-01 8.897793e+01 
7.593780e-01 8.619102e+01 
7.764720e-01 8.360432e+01 
7.942840e-01 8.106979e+01 
8.116170e-01 7.874904e+01 
8.288310e-01 7.657603e+01 
8.462240e-01 7.449910e+01 
8.631980e-01 7.257983e+01 
8.810700e-01 7.066416e+01 
8.989410e-01 6.884945e+01 
9.166330e-01 6.714370e+01 
9.345640e-01 6.550006e+01 
9.515980e-01 6.401353e+01 
9.688720e-01 6.257425e+01 
9.865640e-01 6.116731e+01 
1.031870e+00 5.783586e+01 
1.063490e+00 5.571723e+01 
1.097920e+00 5.358028e+01 
1.134370e+00 5.148448e+01 
1.167730e+00 4.970271e+01 
1.203830e+00 4.790274e+01 
1.240470e+00 4.619861e+01 
1.275790e+00 4.465955e+01 
1.309140e+00 4.329329e+01 
1.342970e+00 4.198165e+01 
1.378420e+00 4.068447e+01 
1.413200e+00 3.948024e+01 
1.448110e+00 3.833289e+01 
1.484090e+00 3.721259e+01 
1.518820e+00 3.618404e+01 
1.552880e+00 3.522181e+01 
1.588630e+00 3.425797e+01 
1.623230e+00 3.336847e+01 
1.657720e+00 3.252051e+01 
1.692450e+00 3.170312e+01 
1.726400e+00 3.093554e+01 
1.762200e+00 3.015897e+01 
1.797880e+00 2.941740e+01 
1.833270e+00 2.871122e+01 
1.869070e+00 2.802448e+01 
1.903200e+00 2.739467e+01 
1.937740e+00 2.678023e+01 
1.973190e+00 2.617224e+01 
2.007440e+00 2.560565e+01 
2.042160e+00 2.505116e+01 
2.077900e+00 2.449998e+01 
2.112390e+00 2.398613e+01 
2.146220e+00 2.349790e+01 
2.181600e+00 2.300393e+01 
2.216930e+00 2.252669e+01 
2.250760e+00 2.208403e+01 
2.286500e+00 2.163092e+01 
2.321770e+00 2.119778e+01 
2.355950e+00 2.079049e+01 
2.391280e+00 2.038144e+01 
2.426240e+00 1.998859e+01 
2.460670e+00 1.961309e+01 
2.495640e+00 1.924295e+01 
2.531080e+00 1.887768e+01 
2.566220e+00 1.852572e+01 
2.600830e+00 1.818879e+01 
2.635080e+00 1.786453e+01 
2.670340e+00 1.753857e+01 
2.705970e+00 1.721845e+01 
2.740040e+00 1.692072e+01 
2.774520e+00 1.662659e+01 
2.809730e+00 1.633370e+01 
2.844390e+00 1.605295e+01 
2.879960e+00 1.577180e+01 
2.914860e+00 1.550274e+01 
2.949410e+00 1.524323e+01 
2.984440e+00 1.498599e+01 
3.019760e+00 1.473306e+01 
3.054730e+00 1.448910e+01 
3.089030e+00 1.425437e+01 
3.124060e+00 1.402060e+01 
3.159560e+00 1.378932e+01 
3.194710e+00 1.356536e+01 
3.229010e+00 1.335216e+01 
3.263320e+00 1.314275e+01 
3.297930e+00 1.293658e+01 
3.332830e+00 1.273322e+01 
3.368040e+00 1.253246e+01 
3.403300e+00 1.233595e+01 
3.438450e+00 1.214398e+01 
3.473060e+00 1.195946e+01 
3.508440e+00 1.177426e+01 
3.543110e+00 1.159705e+01 
3.577470e+00 1.142445e+01 
3.613040e+00 1.124987e+01 
3.648120e+00 1.108116e+01 
3.682910e+00 1.091738e+01 
3.718050e+00 1.075502e+01 
3.753320e+00 1.059555e+01 
3.787980e+00 1.044195e+01 
3.822290e+00 1.029295e+01 
3.857020e+00 1.014492e+01 
3.891920e+00 9.999171e+00 
3.926650e+00 9.856726e+00 
3.961970e+00 9.714851e+00 
3.997360e+00 9.575252e+00 
4.031670e+00 9.442758e+00 
4.066330e+00 9.311232e+00 
4.101420e+00 9.180927e+00 
4.136200e+00 9.053684e+00 
4.170810e+00 8.929755e+00 
4.206250e+00 8.805012e+00 
4.241580e+00 8.683213e+00 
4.276300e+00 8.565543e+00 
4.310970e+00 8.450200e+00 
4.346120e+00 8.335466e+00 
4.380600e+00 8.224876e+00 
4.414730e+00 8.117581e+00 
4.450350e+00 8.007274e+00 
4.485320e+00 7.901177e+00 
4.519810e+00 7.798212e+00 
4.555430e+00 7.693807e+00 
4.590870e+00 7.591878e+00 
4.625480e+00 7.494019e+00 
4.659910e+00 7.398537e+00 
4.695230e+00 7.302044e+00 
4.729960e+00 7.208923e+00 
4.764450e+00 7.118019e+00 
4.799530e+00 7.027018e+00 
4.834910e+00 6.936981e+00 
4.869700e+00 6.849832e+00 
4.904370e+00 6.764542e+00 
4.939450e+00 6.679754e+00 
4.973940e+00 6.597705e+00 
5.008430e+00 6.517134e+00 
5.043810e+00 6.435775e+00 
5.078840e+00 6.356563e+00 
5.113500e+00 6.279588e+00 
5.148890e+00 6.202110e+00 
5.184210e+00 6.126159e+00 
5.219060e+00 6.052494e+00 
5.253660e+00 5.980488e+00 
5.288570e+00 5.909095e+00 
5.323420e+00 5.838967e+00 
5.358440e+00 5.769611e+00 
5.393590e+00 5.701193e+00 
5.428310e+00 5.634638e+00 
5.462800e+00 5.569566e+00 
5.497640e+00 5.504931e+00 
5.532670e+00 5.440908e+00 
5.567280e+00 5.378663e+00 
5.602000e+00 5.317245e+00 
5.637270e+00 5.255799e+00 
5.672410e+00 5.195571e+00 
5.707020e+00 5.137215e+00 
5.742040e+00 5.079038e+00 
5.777430e+00 5.021184e+00 
5.812210e+00 4.965241e+00 
5.846820e+00 4.910384e+00 
5.881610e+00 4.856092e+00 
5.916510e+00 4.802484e+00 
5.951600e+00 4.749376e+00 
5.986560e+00 4.697267e+00 
6.021830e+00 4.645516e+00 
6.056490e+00 4.595429e+00 
6.091160e+00 4.546077e+00 
6.125830e+00 4.497474e+00 
6.161090e+00 4.448791e+00 
6.195760e+00 4.401639e+00 
6.230420e+00 4.355205e+00 
6.265690e+00 4.308660e+00 
6.300950e+00 4.262797e+00 
6.335620e+00 4.218370e+00 
6.370880e+00 4.173854e+00 
6.405550e+00 4.130740e+00 
6.440220e+00 4.088256e+00 
6.475480e+00 4.045677e+00 
6.510150e+00 4.004414e+00 
6.544810e+00 3.963743e+00 
6.580080e+00 3.922949e+00 
6.614750e+00 3.883422e+00 
6.649410e+00 3.844503e+00 
6.684080e+00 3.806126e+00 
6.719340e+00 3.767644e+00 
6.754010e+00 3.730342e+00 
6.788680e+00 3.693569e+00 
6.823940e+00 3.656689e+00 
6.859800e+00 3.619707e+00 
6.894470e+00 3.584478e+00 
6.929140e+00 3.549736e+00 
6.963800e+00 3.515473e+00 
6.999070e+00 3.481082e+00 
7.033730e+00 3.447786e+00 
7.068400e+00 3.414923e+00 
7.103660e+00 3.381948e+00 
7.138330e+00 3.349975e+00 
7.173600e+00 3.317921e+00 
7.208260e+00 3.286837e+00 
7.243530e+00 3.255620e+00 
7.277600e+00 3.225881e+00 
7.312860e+00 3.195524e+00 
7.348120e+00 3.165563e+00 
7.382790e+00 3.136483e+00 
7.417460e+00 3.107811e+00 
7.452720e+00 3.079043e+00 
7.487390e+00 3.051117e+00 
7.522650e+00 3.023074e+00 
7.557320e+00 2.995904e+00 
7.591990e+00 2.969092e+00 
7.627250e+00 2.942164e+00 
7.662510e+00 2.915574e+00 
7.697180e+00 2.889802e+00 
7.731850e+00 2.864364e+00 
7.766510e+00 2.839243e+00 
7.801180e+00 2.814419e+00 
7.836440e+00 2.789532e+00 
7.871110e+00 2.765389e+00 
7.906380e+00 2.741125e+00 
7.941040e+00 2.717567e+00 
7.976310e+00 2.693906e+00 
8.011570e+00 2.670565e+00 
8.046240e+00 2.647887e+00 
8.080900e+00 2.625482e+00 
8.115570e+00 2.603350e+00 
8.150830e+00 2.581174e+00 
8.185500e+00 2.559624e+00 
8.220770e+00 2.537956e+00 
8.255430e+00 2.516909e+00 
8.290100e+00 2.496154e+00 
8.324770e+00 2.475643e+00 
8.359430e+00 2.455369e+00 
8.394700e+00 2.434974e+00 
8.429960e+00 2.414859e+00 
8.464630e+00 2.395347e+00 
8.499890e+00 2.375726e+00 
8.534560e+00 2.356649e+00 
8.569200e+00 2.337800e+00 
