# Parameters:
# omega_b = 0.022161, omega_m = 0.130197, n_s = 0.982283, h = 63.740157, w = -1.000000, sigma_8 = 0.715748
# z = 1.300000
#
# k[1/Mpc] # P(k):
8.694000e-04 4.463877e+03 
2.077466e-03 9.608015e+03 
3.285532e-03 1.359378e+04 
4.493598e-03 1.661349e+04 
5.701664e-03 1.881724e+04 
6.909730e-03 2.033982e+04 
8.117797e-03 2.133151e+04 
9.325863e-03 2.187106e+04 
1.053393e-02 2.203842e+04 
1.174199e-02 2.190732e+04 
1.295006e-02 2.152423e+04 
1.415813e-02 2.095069e+04 
1.536619e-02 2.024051e+04 
1.657426e-02 1.943213e+04 
1.778233e-02 1.856898e+04 
1.899039e-02 1.770540e+04 
2.019846e-02 1.684448e+04 
2.140652e-02 1.599397e+04 
2.261459e-02 1.517158e+04 
2.382266e-02 1.439640e+04 
2.503072e-02 1.367863e+04 
2.623879e-02 1.302110e+04 
2.744685e-02 1.242495e+04 
2.865492e-02 1.188951e+04 
2.986299e-02 1.141116e+04 
3.100100e-02 1.101090e+04 
3.220400e-02 1.063569e+04 
3.288100e-02 1.044537e+04 
3.424300e-02 1.010066e+04 
3.555100e-02 9.809848e+03 
3.686000e-02 9.551936e+03 
3.795000e-02 9.356567e+03 
3.929100e-02 9.135136e+03 
4.039800e-02 8.962230e+03 
4.164000e-02 8.774664e+03 
4.294400e-02 8.576918e+03 
4.415000e-02 8.393893e+03 
4.542900e-02 8.190984e+03 
4.660900e-02 7.999818e+03 
4.782300e-02 7.789334e+03 
4.892900e-02 7.592438e+03 
5.031200e-02 7.336673e+03 
5.155900e-02 7.097206e+03 
5.238100e-02 6.936745e+03 
5.378200e-02 6.661166e+03 
5.513400e-02 6.394783e+03 
5.627600e-02 6.172950e+03 
5.735300e-02 5.969386e+03 
5.870100e-02 5.725305e+03 
5.988700e-02 5.522828e+03 
6.113500e-02 5.322866e+03 
6.225900e-02 5.154876e+03 
6.340100e-02 4.995573e+03 
6.480200e-02 4.814067e+03 
6.601100e-02 4.670216e+03 
6.725500e-02 4.533515e+03 
6.829100e-02 4.429189e+03 
6.958600e-02 4.308771e+03 
7.071100e-02 4.214135e+03 
7.192300e-02 4.121533e+03 
7.307400e-02 4.041914e+03 
7.412300e-02 3.975703e+03 
7.550400e-02 3.897336e+03 
7.663100e-02 3.838759e+03 
7.791200e-02 3.777916e+03 
7.912700e-02 3.723764e+03 
8.027600e-02 3.674390e+03 
8.138400e-02 3.627679e+03 
8.272200e-02 3.571396e+03 
8.406100e-02 3.514165e+03 
8.534100e-02 3.456831e+03 
8.653800e-02 3.400303e+03 
8.759800e-02 3.348526e+03 
8.900300e-02 3.276837e+03 
9.009000e-02 3.218593e+03 
9.113300e-02 3.160213e+03 
9.239600e-02 3.088277e+03 
9.358000e-02 3.019063e+03 
9.496100e-02 2.936323e+03 
9.608400e-02 2.869171e+03 
9.727500e-02 2.798636e+03 
9.852600e-02 2.724682e+03 
9.973800e-02 2.655193e+03 
1.009000e-01 2.590539e+03 
1.020900e-01 2.527353e+03 
1.034000e-01 2.461139e+03 
1.046000e-01 2.403611e+03 
1.057200e-01 2.354238e+03 
1.069100e-01 2.304415e+03 
1.082500e-01 2.253477e+03 
1.093900e-01 2.213791e+03 
1.105400e-01 2.176189e+03 
1.116900e-01 2.142860e+03 
1.129600e-01 2.108121e+03 
1.142000e-01 2.077795e+03 
1.153300e-01 2.051720e+03 
1.166400e-01 2.023606e+03 
1.177800e-01 2.000471e+03 
1.190000e-01 1.976645e+03 
1.201200e-01 1.955171e+03 
1.213400e-01 1.932310e+03 
1.227100e-01 1.906033e+03 
1.238900e-01 1.883550e+03 
1.250700e-01 1.860167e+03 
1.263200e-01 1.835298e+03 
1.275500e-01 1.809894e+03 
1.287500e-01 1.784854e+03 
1.299900e-01 1.758266e+03 
1.311300e-01 1.733645e+03 
1.323500e-01 1.706786e+03 
1.335900e-01 1.679549e+03 
1.347100e-01 1.654737e+03 
1.359800e-01 1.626929e+03 
1.372100e-01 1.600004e+03 
1.384300e-01 1.573803e+03 
1.395700e-01 1.549582e+03 
1.407700e-01 1.524656e+03 
1.420300e-01 1.499122e+03 
1.432800e-01 1.474385e+03 
1.444500e-01 1.452136e+03 
1.456300e-01 1.430179e+03 
1.468900e-01 1.407805e+03 
1.480500e-01 1.387814e+03 
1.491700e-01 1.369254e+03 
1.503800e-01 1.350060e+03 
1.516400e-01 1.330661e+03 
1.528200e-01 1.313595e+03 
1.540200e-01 1.296583e+03 
1.551900e-01 1.280955e+03 
1.564300e-01 1.264868e+03 
1.576600e-01 1.249499e+03 
1.588700e-01 1.234999e+03 
1.600900e-01 1.220674e+03 
1.612700e-01 1.207392e+03 
1.625400e-01 1.193366e+03 
1.637600e-01 1.180162e+03 
1.649500e-01 1.167527e+03 
1.662200e-01 1.154255e+03 
1.674000e-01 1.141948e+03 
1.685000e-01 1.130669e+03 
1.697500e-01 1.117862e+03 
1.710300e-01 1.104779e+03 
1.722200e-01 1.092836e+03 
1.734400e-01 1.080324e+03 
1.746400e-01 1.068215e+03 
1.758700e-01 1.055879e+03 
1.770900e-01 1.043571e+03 
1.782700e-01 1.031873e+03 
1.794600e-01 1.020097e+03 
1.807000e-01 1.007918e+03 
1.819100e-01 9.962416e+02 
1.830100e-01 9.856948e+02 
1.842200e-01 9.742650e+02 
1.855000e-01 9.623878e+02 
1.867000e-01 9.514875e+02 
1.879200e-01 9.405918e+02 
1.890900e-01 9.303412e+02 
1.902800e-01 9.202201e+02 
1.915200e-01 9.098476e+02 
1.926900e-01 9.002775e+02 
1.939000e-01 8.907255e+02 
1.951700e-01 8.808643e+02 
1.963100e-01 8.722174e+02 
1.975100e-01 8.634273e+02 
1.987800e-01 8.542724e+02 
2.000100e-01 8.456113e+02 
2.012500e-01 8.371645e+02 
2.023400e-01 8.298481e+02 
2.036100e-01 8.214773e+02 
2.048900e-01 8.132824e+02 
2.060400e-01 8.060298e+02 
2.072200e-01 7.986986e+02 
2.084200e-01 7.914063e+02 
2.096900e-01 7.838036e+02 
2.109200e-01 7.765506e+02 
2.121100e-01 7.696136e+02 
2.132700e-01 7.629448e+02 
2.145200e-01 7.558607e+02 
2.157200e-01 7.491130e+02 
2.168800e-01 7.426597e+02 
2.180700e-01 7.361300e+02 
2.193400e-01 7.292235e+02 
2.206000e-01 7.224026e+02 
2.217500e-01 7.162634e+02 
2.229500e-01 7.099435e+02 
2.241400e-01 7.036509e+02 
2.253500e-01 6.973371e+02 
2.264900e-01 6.914677e+02 
2.277100e-01 6.852183e+02 
2.289900e-01 6.786962e+02 
2.301500e-01 6.728664e+02 
2.313600e-01 6.668650e+02 
2.325600e-01 6.609056e+02 
2.337700e-01 6.549770e+02 
2.350000e-01 6.490316e+02 
2.362000e-01 6.432817e+02 
2.374100e-01 6.375287e+02 
2.386500e-01 6.317118e+02 
2.399100e-01 6.258815e+02 
2.410400e-01 6.207008e+02 
2.422500e-01 6.152209e+02 
2.435000e-01 6.096345e+02 
2.447300e-01 6.042130e+02 
2.458700e-01 5.992620e+02 
2.470600e-01 5.941576e+02 
2.483300e-01 5.887806e+02 
2.495600e-01 5.836575e+02 
2.507600e-01 5.787450e+02 
2.519600e-01 5.738935e+02 
2.532200e-01 5.688641e+02 
2.543700e-01 5.643671e+02 
2.555500e-01 5.598323e+02 
2.568000e-01 5.550877e+02 
2.580100e-01 5.505518e+02 
2.592400e-01 5.460478e+02 
2.604100e-01 5.418368e+02 
2.616100e-01 5.375684e+02 
2.628400e-01 5.332457e+02 
2.640600e-01 5.290601e+02 
2.652200e-01 5.251464e+02 
2.664300e-01 5.211107e+02 
2.676500e-01 5.170893e+02 
2.688400e-01 5.132477e+02 
2.700700e-01 5.093450e+02 
2.712400e-01 5.056748e+02 
2.724800e-01 5.018291e+02 
2.736700e-01 4.982042e+02 
2.748800e-01 4.945839e+02 
2.761000e-01 4.909748e+02 
2.773200e-01 4.874062e+02 
2.785400e-01 4.838873e+02 
2.797000e-01 4.805979e+02 
2.808900e-01 4.772595e+02 
2.821400e-01 4.737915e+02 
2.833900e-01 4.703631e+02 
2.845500e-01 4.672306e+02 
2.857800e-01 4.639445e+02 
2.870300e-01 4.606418e+02 
2.882100e-01 4.575575e+02 
2.893900e-01 4.545118e+02 
2.906300e-01 4.513485e+02 
2.918900e-01 4.481694e+02 
2.930500e-01 4.452733e+02 
2.942500e-01 4.423088e+02 
2.954200e-01 4.394502e+02 
2.966500e-01 4.364761e+02 
2.978900e-01 4.335095e+02 
2.990400e-01 4.307862e+02 
3.002700e-01 4.279031e+02 
3.015100e-01 4.250272e+02 
3.026800e-01 4.223411e+02 
3.038500e-01 4.196814e+02 
3.050300e-01 4.170253e+02 
3.062600e-01 4.142845e+02 
3.075000e-01 4.115496e+02 
3.087000e-01 4.089297e+02 
3.099100e-01 4.063142e+02 
3.111200e-01 4.037259e+02 
3.123100e-01 4.012076e+02 
3.135300e-01 3.986512e+02 
3.147300e-01 3.961614e+02 
3.159900e-01 3.935730e+02 
3.171800e-01 3.911549e+02 
3.183700e-01 3.887613e+02 
3.196300e-01 3.862518e+02 
3.208400e-01 3.838655e+02 
3.220300e-01 3.815410e+02 
3.232000e-01 3.792813e+02 
3.244300e-01 3.769299e+02 
3.256700e-01 3.745823e+02 
3.269200e-01 3.722388e+02 
3.280800e-01 3.700844e+02 
3.292500e-01 3.679379e+02 
3.304800e-01 3.657043e+02 
3.317100e-01 3.634917e+02 
3.328900e-01 3.613888e+02 
3.340700e-01 3.593047e+02 
3.353600e-01 3.570559e+02 
3.365300e-01 3.550384e+02 
3.377100e-01 3.530216e+02 
3.389200e-01 3.509722e+02 
3.401600e-01 3.488912e+02 
3.413700e-01 3.468871e+02 
3.425300e-01 3.449883e+02 
3.437700e-01 3.429767e+02 
3.449800e-01 3.410314e+02 
3.461800e-01 3.391192e+02 
3.473600e-01 3.372592e+02 
3.485800e-01 3.353623e+02 
3.498100e-01 3.334668e+02 
3.510200e-01 3.316187e+02 
3.522000e-01 3.298318e+02 
3.533900e-01 3.280452e+02 
3.546400e-01 3.261980e+02 
3.558400e-01 3.244409e+02 
3.570600e-01 3.226698e+02 
3.582700e-01 3.209283e+02 
3.595000e-01 3.191733e+02 
3.607100e-01 3.174690e+02 
3.618900e-01 3.158265e+02 
3.631200e-01 3.141289e+02 
3.643200e-01 3.124866e+02 
3.655500e-01 3.108174e+02 
3.667300e-01 3.092294e+02 
3.679500e-01 3.076153e+02 
3.691900e-01 3.059885e+02 
3.703600e-01 3.044662e+02 
3.715700e-01 3.029045e+02 
3.727700e-01 3.013685e+02 
3.739900e-01 2.998242e+02 
3.752000e-01 2.983134e+02 
3.763900e-01 2.968395e+02 
3.775800e-01 2.953774e+02 
3.788200e-01 2.938661e+02 
3.800300e-01 2.924034e+02 
3.812100e-01 2.909946e+02 
3.824200e-01 2.895657e+02 
3.836100e-01 2.881714e+02 
3.848600e-01 2.867185e+02 
3.860400e-01 2.853579e+02 
3.872400e-01 2.839849e+02 
3.884600e-01 2.826080e+02 
3.896500e-01 2.812786e+02 
3.908700e-01 2.799261e+02 
3.920600e-01 2.786172e+02 
3.933100e-01 2.772529e+02 
3.945300e-01 2.759318e+02 
3.957200e-01 2.746613e+02 
3.969300e-01 2.733814e+02 
3.981700e-01 2.720800e+02 
3.993500e-01 2.708509e+02 
4.094840e-01 2.606928e+02 
4.272360e-01 2.445374e+02 
4.454600e-01 2.297476e+02 
4.630560e-01 2.169178e+02 
4.804610e-01 2.054256e+02 
4.980690e-01 1.948445e+02 
5.159230e-01 1.850526e+02 
5.317440e-01 1.770737e+02 
5.489640e-01 1.690586e+02 
5.671990e-01 1.612549e+02 
5.838690e-01 1.546713e+02 
6.018840e-01 1.480907e+02 
6.202330e-01 1.419097e+02 
6.379250e-01 1.363879e+02 
6.545410e-01 1.315746e+02 
6.714560e-01 1.269953e+02 
6.892080e-01 1.225146e+02 
7.066010e-01 1.184211e+02 
7.240540e-01 1.145734e+02 
7.420450e-01 1.108672e+02 
7.593780e-01 1.075193e+02 
7.764720e-01 1.044089e+02 
7.942840e-01 1.013571e+02 
8.116170e-01 9.855886e+01 
8.288310e-01 9.593389e+01 
8.462240e-01 9.342182e+01 
8.631980e-01 9.109577e+01 
8.810700e-01 8.877014e+01 
8.989410e-01 8.656219e+01 
9.166330e-01 8.448295e+01 
9.345640e-01 8.247630e+01 
9.515980e-01 8.065654e+01 
9.688720e-01 7.889064e+01 
9.865640e-01 7.716039e+01 
1.031870e+00 7.304840e+01 
1.063490e+00 7.042044e+01 
1.097920e+00 6.775904e+01 
1.134370e+00 6.513804e+01 
1.167730e+00 6.290064e+01 
1.203830e+00 6.063026e+01 
1.240470e+00 5.847371e+01 
1.275790e+00 5.651851e+01 
1.309140e+00 5.477825e+01 
1.342970e+00 5.310096e+01 
1.378420e+00 5.143866e+01 
1.413200e+00 4.989104e+01 
1.448110e+00 4.841358e+01 
1.484090e+00 4.696741e+01 
1.518820e+00 4.563724e+01 
1.552880e+00 4.439069e+01 
1.588630e+00 4.314045e+01 
1.623230e+00 4.198487e+01 
1.657720e+00 4.088150e+01 
1.692450e+00 3.981744e+01 
1.726400e+00 3.881722e+01 
1.762200e+00 3.780423e+01 
1.797880e+00 3.683620e+01 
1.833270e+00 3.591390e+01 
1.869070e+00 3.501649e+01 
1.903200e+00 3.419326e+01 
1.937740e+00 3.339005e+01 
1.973190e+00 3.259513e+01 
2.007440e+00 3.185452e+01 
2.042160e+00 3.112957e+01 
2.077900e+00 3.040881e+01 
2.112390e+00 2.973735e+01 
2.146220e+00 2.909926e+01 
2.181600e+00 2.845392e+01 
2.216930e+00 2.783063e+01 
2.250760e+00 2.725278e+01 
2.286500e+00 2.666155e+01 
2.321770e+00 2.609663e+01 
2.355950e+00 2.556593e+01 
2.391280e+00 2.503296e+01 
2.426240e+00 2.452155e+01 
2.460670e+00 2.403312e+01 
2.495640e+00 2.355197e+01 
2.531080e+00 2.307747e+01 
2.566220e+00 2.262053e+01 
2.600830e+00 2.218350e+01 
2.635080e+00 2.176332e+01 
2.670340e+00 2.134156e+01 
2.705970e+00 2.092756e+01 
2.740040e+00 2.054273e+01 
2.774520e+00 2.016291e+01 
2.809730e+00 1.978512e+01 
2.844390e+00 1.942335e+01 
2.879960e+00 1.906163e+01 
2.914860e+00 1.871570e+01 
2.949410e+00 1.838231e+01 
2.984440e+00 1.805233e+01 
3.019760e+00 1.772808e+01 
3.054730e+00 1.741549e+01 
3.089030e+00 1.711547e+01 
3.124060e+00 1.681689e+01 
3.159560e+00 1.652174e+01 
3.194710e+00 1.623636e+01 
3.229010e+00 1.596493e+01 
3.263320e+00 1.569879e+01 
3.297930e+00 1.543696e+01 
3.332830e+00 1.517894e+01 
3.368040e+00 1.492461e+01 
3.403300e+00 1.467598e+01 
3.438450e+00 1.443346e+01 
3.473060e+00 1.420050e+01 
3.508440e+00 1.396706e+01 
3.543110e+00 1.374385e+01 
3.577470e+00 1.352701e+01 
3.613040e+00 1.330778e+01 
3.648120e+00 1.309609e+01 
3.682910e+00 1.289085e+01 
3.718050e+00 1.268778e+01 
3.753320e+00 1.248850e+01 
3.787980e+00 1.229679e+01 
3.822290e+00 1.211103e+01 
3.857020e+00 1.192676e+01 
3.891920e+00 1.174551e+01 
3.926650e+00 1.156864e+01 
3.961970e+00 1.139265e+01 
3.997360e+00 1.121983e+01 
4.031670e+00 1.105590e+01 
4.066330e+00 1.089340e+01 
4.101420e+00 1.073248e+01 
4.136200e+00 1.057572e+01 
4.170810e+00 1.042309e+01 
4.206250e+00 1.026973e+01 
4.241580e+00 1.012007e+01 
4.276300e+00 9.975749e+00 
4.310970e+00 9.834445e+00 
4.346120e+00 9.694022e+00 
4.380600e+00 9.558859e+00 
4.414730e+00 9.427774e+00 
4.450350e+00 9.293327e+00 
4.485320e+00 9.164055e+00 
4.519810e+00 9.038820e+00 
4.555430e+00 8.911957e+00 
4.590870e+00 8.788204e+00 
4.625480e+00 8.669556e+00 
4.659910e+00 8.553826e+00 
4.695230e+00 8.437150e+00 
4.729960e+00 8.324623e+00 
4.764450e+00 8.214891e+00 
4.799530e+00 8.105211e+00 
4.834910e+00 7.996726e+00 
4.869700e+00 7.891915e+00 
4.904370e+00 7.789397e+00 
4.939450e+00 7.687563e+00 
4.973940e+00 7.589183e+00 
5.008430e+00 7.492603e+00 
5.043810e+00 7.395215e+00 
5.078840e+00 7.300489e+00 
5.113500e+00 7.208464e+00 
5.148890e+00 7.116058e+00 
5.184210e+00 7.025505e+00 
5.219060e+00 6.937741e+00 
5.253660e+00 6.852086e+00 
5.288570e+00 6.767182e+00 
5.323420e+00 6.683869e+00 
5.358440e+00 6.601566e+00 
5.393590e+00 6.520396e+00 
5.428310e+00 6.441564e+00 
5.462800e+00 6.364564e+00 
5.497640e+00 6.288098e+00 
5.532670e+00 6.212488e+00 
5.567280e+00 6.139029e+00 
5.602000e+00 6.066563e+00 
5.637270e+00 5.994173e+00 
5.672410e+00 5.923253e+00 
5.707020e+00 5.854552e+00 
5.742040e+00 5.786189e+00 
5.777430e+00 5.718241e+00 
5.812210e+00 5.652552e+00 
5.846820e+00 5.588226e+00 
5.881610e+00 5.524595e+00 
5.916510e+00 5.461778e+00 
5.951600e+00 5.399638e+00 
5.986560e+00 5.338714e+00 
6.021830e+00 5.278221e+00 
6.056490e+00 5.219739e+00 
6.091160e+00 5.162172e+00 
6.125830e+00 5.105489e+00 
6.161090e+00 5.048747e+00 
6.195760e+00 4.993852e+00 
6.230420e+00 4.939800e+00 
6.265690e+00 4.885633e+00 
6.300950e+00 4.832359e+00 
6.335620e+00 4.780763e+00 
6.370880e+00 4.729071e+00 
6.405550e+00 4.679058e+00 
6.440220e+00 4.629803e+00 
6.475480e+00 4.580445e+00 
6.510150e+00 4.532643e+00 
6.544810e+00 4.485590e+00 
6.580080e+00 4.438402e+00 
6.614750e+00 4.392685e+00 
6.649410e+00 4.347723e+00 
6.684080e+00 4.303403e+00 
6.719340e+00 4.258968e+00 
6.754010e+00 4.215921e+00 
6.788680e+00 4.173538e+00 
6.823940e+00 4.131037e+00 
6.859800e+00 4.088424e+00 
6.894470e+00 4.047869e+00 
6.929140e+00 4.007895e+00 
6.963800e+00 3.968475e+00 
6.999070e+00 3.928915e+00 
7.033730e+00 3.890662e+00 
7.068400e+00 3.852910e+00 
7.103660e+00 3.815033e+00 
7.138330e+00 3.778325e+00 
7.173600e+00 3.741556e+00 
7.208260e+00 3.705902e+00 
7.243530e+00 3.670100e+00 
7.277600e+00 3.636018e+00 
7.312860e+00 3.601249e+00 
7.348120e+00 3.566937e+00 
7.382790e+00 3.533638e+00 
7.417460e+00 3.500839e+00 
7.452720e+00 3.467949e+00 
7.487390e+00 3.436024e+00 
7.522650e+00 3.403969e+00 
7.557320e+00 3.372930e+00 
7.591990e+00 3.342309e+00 
7.627250e+00 3.311558e+00 
7.662510e+00 3.281195e+00 
7.697180e+00 3.251792e+00 
7.731850e+00 3.222780e+00 
7.766510e+00 3.194131e+00 
7.801180e+00 3.165824e+00 
7.836440e+00 3.137458e+00 
7.871110e+00 3.109950e+00 
7.906380e+00 3.082305e+00 
7.941040e+00 3.055467e+00 
7.976310e+00 3.028526e+00 
8.011570e+00 3.001966e+00 
8.046240e+00 2.976162e+00 
8.080900e+00 2.950670e+00 
8.115570e+00 2.925494e+00 
8.150830e+00 2.900282e+00 
8.185500e+00 2.875782e+00 
8.220770e+00 2.851150e+00 
8.255430e+00 2.827226e+00 
8.290100e+00 2.803657e+00 
8.324770e+00 2.780368e+00 
8.359430e+00 2.757350e+00 
8.394700e+00 2.734196e+00 
8.429960e+00 2.711368e+00 
8.464630e+00 2.689231e+00 
8.499890e+00 2.666972e+00 
8.534560e+00 2.645332e+00 
8.569200e+00 2.623950e+00 
