# Parameters:
# omega_b = 0.021815, omega_m = 0.149488, n_s = 0.953937, h = 77.913386, w = -1.000000, sigma_8 = 0.857480
# z = 1.300000
#
# k[1/Mpc] # P(k):
8.694000e-04 4.026339e+03 
2.077466e-03 8.568319e+03 
3.285532e-03 1.214858e+04 
4.493598e-03 1.494251e+04 
5.701664e-03 1.705848e+04 
6.909730e-03 1.860101e+04 
8.117797e-03 1.969058e+04 
9.325863e-03 2.038939e+04 
1.053393e-02 2.076020e+04 
1.174199e-02 2.086085e+04 
1.295006e-02 2.072865e+04 
1.415813e-02 2.041420e+04 
1.536619e-02 1.995950e+04 
1.657426e-02 1.939012e+04 
1.778233e-02 1.871503e+04 
1.899039e-02 1.796135e+04 
2.019846e-02 1.718404e+04 
2.140652e-02 1.642705e+04 
2.261459e-02 1.569294e+04 
2.382266e-02 1.498832e+04 
2.503072e-02 1.432267e+04 
2.623879e-02 1.370065e+04 
2.744685e-02 1.312407e+04 
2.865492e-02 1.259629e+04 
2.986299e-02 1.211620e+04 
3.100100e-02 1.170695e+04 
3.220400e-02 1.131729e+04 
3.288100e-02 1.111723e+04 
3.424300e-02 1.075173e+04 
3.555100e-02 1.044143e+04 
3.686000e-02 1.016606e+04 
3.795000e-02 9.958678e+03 
3.929100e-02 9.727226e+03 
4.039800e-02 9.550140e+03 
4.164000e-02 9.361802e+03 
4.294400e-02 9.169200e+03 
4.415000e-02 8.994133e+03 
4.542900e-02 8.803727e+03 
4.660900e-02 8.625751e+03 
4.782300e-02 8.430711e+03 
4.892900e-02 8.247748e+03 
5.031200e-02 8.008468e+03 
5.155900e-02 7.781810e+03 
5.238100e-02 7.628132e+03 
5.378200e-02 7.360158e+03 
5.513400e-02 7.094046e+03 
5.627600e-02 6.865276e+03 
5.735300e-02 6.647822e+03 
5.870100e-02 6.374778e+03 
5.988700e-02 6.136565e+03 
6.113500e-02 5.890281e+03 
6.225900e-02 5.675614e+03 
6.340100e-02 5.468047e+03 
6.480200e-02 5.231012e+03 
6.601100e-02 5.045996e+03 
6.725500e-02 4.875146e+03 
6.829100e-02 4.749267e+03 
6.958600e-02 4.608405e+03 
7.071100e-02 4.501488e+03 
7.192300e-02 4.399678e+03 
7.307400e-02 4.314262e+03 
7.412300e-02 4.244620e+03 
7.550400e-02 4.164015e+03 
7.663100e-02 4.104801e+03 
7.791200e-02 4.044690e+03 
7.912700e-02 3.992271e+03 
8.027600e-02 3.945174e+03 
8.138400e-02 3.901109e+03 
8.272200e-02 3.848531e+03 
8.406100e-02 3.795371e+03 
8.534100e-02 3.742157e+03 
8.653800e-02 3.689436e+03 
8.759800e-02 3.640862e+03 
8.900300e-02 3.573022e+03 
9.009000e-02 3.517267e+03 
9.113300e-02 3.460642e+03 
9.239600e-02 3.390146e+03 
9.358000e-02 3.321355e+03 
9.496100e-02 3.237554e+03 
9.608400e-02 3.168568e+03 
9.727500e-02 3.095323e+03 
9.852600e-02 3.016583e+03 
9.973800e-02 2.941704e+03 
1.009000e-01 2.871304e+03 
1.020900e-01 2.800787e+03 
1.034000e-01 2.726156e+03 
1.046000e-01 2.660554e+03 
1.057200e-01 2.603156e+03 
1.069100e-01 2.544908e+03 
1.082500e-01 2.484459e+03 
1.093900e-01 2.437014e+03 
1.105400e-01 2.391858e+03 
1.116900e-01 2.351665e+03 
1.129600e-01 2.309822e+03 
1.142000e-01 2.273609e+03 
1.153300e-01 2.242835e+03 
1.166400e-01 2.210221e+03 
1.177800e-01 2.184278e+03 
1.190000e-01 2.157991e+03 
1.201200e-01 2.135610e+03 
1.213400e-01 2.112020e+03 
1.227100e-01 2.086676e+03 
1.238900e-01 2.065275e+03 
1.250700e-01 2.043866e+03 
1.263200e-01 2.021261e+03 
1.275500e-01 1.998522e+03 
1.287500e-01 1.976049e+03 
1.299900e-01 1.952091e+03 
1.311300e-01 1.929585e+03 
1.323500e-01 1.904566e+03 
1.335900e-01 1.878657e+03 
1.347100e-01 1.854367e+03 
1.359800e-01 1.826609e+03 
1.372100e-01 1.798695e+03 
1.384300e-01 1.771079e+03 
1.395700e-01 1.744502e+03 
1.407700e-01 1.717021e+03 
1.420300e-01 1.687583e+03 
1.432800e-01 1.659071e+03 
1.444500e-01 1.632478e+03 
1.456300e-01 1.606248e+03 
1.468900e-01 1.579186e+03 
1.480500e-01 1.554918e+03 
1.491700e-01 1.532416e+03 
1.503800e-01 1.509177e+03 
1.516400e-01 1.485794e+03 
1.528200e-01 1.465621e+03 
1.540200e-01 1.445520e+03 
1.551900e-01 1.427666e+03 
1.564300e-01 1.409443e+03 
1.576600e-01 1.392415e+03 
1.588700e-01 1.376817e+03 
1.600900e-01 1.361444e+03 
1.612700e-01 1.347912e+03 
1.625400e-01 1.333618e+03 
1.637600e-01 1.320456e+03 
1.649500e-01 1.308030e+03 
1.662200e-01 1.294999e+03 
1.674000e-01 1.283049e+03 
1.685000e-01 1.272094e+03 
1.697500e-01 1.259569e+03 
1.710300e-01 1.246687e+03 
1.722200e-01 1.234923e+03 
1.734400e-01 1.222241e+03 
1.746400e-01 1.209948e+03 
1.758700e-01 1.197275e+03 
1.770900e-01 1.184334e+03 
1.782700e-01 1.172029e+03 
1.794600e-01 1.159396e+03 
1.807000e-01 1.146167e+03 
1.819100e-01 1.133482e+03 
1.830100e-01 1.121765e+03 
1.842200e-01 1.109023e+03 
1.855000e-01 1.095771e+03 
1.867000e-01 1.083412e+03 
1.879200e-01 1.071058e+03 
1.890900e-01 1.059421e+03 
1.902800e-01 1.047851e+03 
1.915200e-01 1.035995e+03 
1.926900e-01 1.025054e+03 
1.939000e-01 1.014128e+03 
1.951700e-01 1.002848e+03 
1.963100e-01 9.929714e+02 
1.975100e-01 9.829667e+02 
1.987800e-01 9.725467e+02 
2.000100e-01 9.627136e+02 
2.012500e-01 9.531813e+02 
2.023400e-01 9.449246e+02 
2.036100e-01 9.354965e+02 
2.048900e-01 9.263406e+02 
2.060400e-01 9.182368e+02 
2.072200e-01 9.100509e+02 
2.084200e-01 9.019848e+02 
2.096900e-01 8.935745e+02 
2.109200e-01 8.855502e+02 
2.121100e-01 8.779455e+02 
2.132700e-01 8.706373e+02 
2.145200e-01 8.628731e+02 
2.157200e-01 8.555277e+02 
2.168800e-01 8.485250e+02 
2.180700e-01 8.414383e+02 
2.193400e-01 8.339706e+02 
2.206000e-01 8.266480e+02 
2.217500e-01 8.200558e+02 
2.229500e-01 8.132681e+02 
2.241400e-01 8.066032e+02 
2.253500e-01 7.999163e+02 
2.264900e-01 7.936985e+02 
2.277100e-01 7.871303e+02 
2.289900e-01 7.803329e+02 
2.301500e-01 7.742549e+02 
2.313600e-01 7.679968e+02 
2.325600e-01 7.618983e+02 
2.337700e-01 7.558287e+02 
2.350000e-01 7.497391e+02 
2.362000e-01 7.438981e+02 
2.374100e-01 7.381109e+02 
2.386500e-01 7.322564e+02 
2.399100e-01 7.263853e+02 
2.410400e-01 7.212343e+02 
2.422500e-01 7.157914e+02 
2.435000e-01 7.102397e+02 
2.447300e-01 7.048570e+02 
2.458700e-01 6.999720e+02 
2.470600e-01 6.949328e+02 
2.483300e-01 6.896213e+02 
2.495600e-01 6.845552e+02 
2.507600e-01 6.796910e+02 
2.519600e-01 6.748846e+02 
2.532200e-01 6.698990e+02 
2.543700e-01 6.654101e+02 
2.555500e-01 6.608615e+02 
2.568000e-01 6.560998e+02 
2.580100e-01 6.515453e+02 
2.592400e-01 6.469650e+02 
2.604100e-01 6.426560e+02 
2.616100e-01 6.382865e+02 
2.628400e-01 6.338592e+02 
2.640600e-01 6.295030e+02 
2.652200e-01 6.254012e+02 
2.664300e-01 6.211701e+02 
2.676500e-01 6.169523e+02 
2.688400e-01 6.128668e+02 
2.700700e-01 6.086803e+02 
2.712400e-01 6.047421e+02 
2.724800e-01 6.006144e+02 
2.736700e-01 5.966855e+02 
2.748800e-01 5.927224e+02 
2.761000e-01 5.887705e+02 
2.773200e-01 5.848621e+02 
2.785400e-01 5.809896e+02 
2.797000e-01 5.773325e+02 
2.808900e-01 5.736201e+02 
2.821400e-01 5.697627e+02 
2.833900e-01 5.659472e+02 
2.845500e-01 5.624279e+02 
2.857800e-01 5.587354e+02 
2.870300e-01 5.550235e+02 
2.882100e-01 5.515565e+02 
2.893900e-01 5.481192e+02 
2.906300e-01 5.445419e+02 
2.918900e-01 5.409458e+02 
2.930500e-01 5.376695e+02 
2.942500e-01 5.343127e+02 
2.954200e-01 5.310680e+02 
2.966500e-01 5.276914e+02 
2.978900e-01 5.243228e+02 
2.990400e-01 5.212301e+02 
3.002700e-01 5.179527e+02 
3.015100e-01 5.146814e+02 
3.026800e-01 5.116257e+02 
3.038500e-01 5.085995e+02 
3.050300e-01 5.055770e+02 
3.062600e-01 5.024570e+02 
3.075000e-01 4.993435e+02 
3.087000e-01 4.963602e+02 
3.099100e-01 4.933815e+02 
3.111200e-01 4.904335e+02 
3.123100e-01 4.875650e+02 
3.135300e-01 4.846527e+02 
3.147300e-01 4.818157e+02 
3.159900e-01 4.788660e+02 
3.171800e-01 4.761099e+02 
3.183700e-01 4.733816e+02 
3.196300e-01 4.705205e+02 
3.208400e-01 4.677995e+02 
3.220300e-01 4.651485e+02 
3.232000e-01 4.625712e+02 
3.244300e-01 4.598890e+02 
3.256700e-01 4.572106e+02 
3.269200e-01 4.545364e+02 
3.280800e-01 4.520777e+02 
3.292500e-01 4.496274e+02 
3.304800e-01 4.470772e+02 
3.317100e-01 4.445508e+02 
3.328900e-01 4.421491e+02 
3.340700e-01 4.397686e+02 
3.353600e-01 4.371984e+02 
3.365300e-01 4.348917e+02 
3.377100e-01 4.325855e+02 
3.389200e-01 4.302415e+02 
3.401600e-01 4.278612e+02 
3.413700e-01 4.255673e+02 
3.425300e-01 4.233929e+02 
3.437700e-01 4.210888e+02 
3.449800e-01 4.188604e+02 
3.461800e-01 4.166697e+02 
3.473600e-01 4.145376e+02 
3.485800e-01 4.123612e+02 
3.498100e-01 4.101861e+02 
3.510200e-01 4.080650e+02 
3.522000e-01 4.060141e+02 
3.533900e-01 4.039630e+02 
3.546400e-01 4.018390e+02 
3.558400e-01 3.998181e+02 
3.570600e-01 3.977809e+02 
3.582700e-01 3.957775e+02 
3.595000e-01 3.937583e+02 
3.607100e-01 3.917952e+02 
3.618900e-01 3.899018e+02 
3.631200e-01 3.879444e+02 
3.643200e-01 3.860507e+02 
3.655500e-01 3.841257e+02 
3.667300e-01 3.822941e+02 
3.679500e-01 3.804284e+02 
3.691900e-01 3.785478e+02 
3.703600e-01 3.767878e+02 
3.715700e-01 3.749821e+02 
3.727700e-01 3.732057e+02 
3.739900e-01 3.714184e+02 
3.752000e-01 3.696675e+02 
3.763900e-01 3.679592e+02 
3.775800e-01 3.662643e+02 
3.788200e-01 3.645123e+02 
3.800300e-01 3.628163e+02 
3.812100e-01 3.611805e+02 
3.824200e-01 3.595197e+02 
3.836100e-01 3.578991e+02 
3.848600e-01 3.562101e+02 
3.860400e-01 3.546282e+02 
3.872400e-01 3.530317e+02 
3.884600e-01 3.514281e+02 
3.896500e-01 3.498786e+02 
3.908700e-01 3.483021e+02 
3.920600e-01 3.467761e+02 
3.933100e-01 3.451856e+02 
3.945300e-01 3.436452e+02 
3.957200e-01 3.421611e+02 
3.969300e-01 3.406653e+02 
3.981700e-01 3.391440e+02 
3.993500e-01 3.377073e+02 
4.094840e-01 3.258128e+02 
4.272360e-01 3.068072e+02 
4.454600e-01 2.893310e+02 
4.630560e-01 2.741167e+02 
4.804610e-01 2.604504e+02 
4.980690e-01 2.478409e+02 
5.159230e-01 2.361478e+02 
5.317440e-01 2.266046e+02 
5.489640e-01 2.170007e+02 
5.671990e-01 2.076339e+02 
5.838690e-01 1.997189e+02 
6.018840e-01 1.917936e+02 
6.202330e-01 1.843338e+02 
6.379250e-01 1.776588e+02 
6.545410e-01 1.718283e+02 
6.714560e-01 1.662717e+02 
6.892080e-01 1.608257e+02 
7.066010e-01 1.558408e+02 
7.240540e-01 1.511464e+02 
7.420450e-01 1.466158e+02 
7.593780e-01 1.425147e+02 
7.764720e-01 1.386980e+02 
7.942840e-01 1.349459e+02 
8.116170e-01 1.314990e+02 
8.288310e-01 1.282577e+02 
8.462240e-01 1.251509e+02 
8.631980e-01 1.222673e+02 
8.810700e-01 1.193785e+02 
8.989410e-01 1.166291e+02 
9.166330e-01 1.140348e+02 
9.345640e-01 1.115265e+02 
9.515980e-01 1.092454e+02 
9.688720e-01 1.070265e+02 
9.865640e-01 1.048473e+02 
1.031870e+00 9.964718e+01 
1.063490e+00 9.630587e+01 
1.097920e+00 9.290804e+01 
1.134370e+00 8.954535e+01 
1.167730e+00 8.666194e+01 
1.203830e+00 8.372051e+01 
1.240470e+00 8.091520e+01 
1.275790e+00 7.835938e+01 
1.309140e+00 7.607690e+01 
1.342970e+00 7.386522e+01 
1.378420e+00 7.166660e+01 
1.413200e+00 6.961123e+01 
1.448110e+00 6.764224e+01 
1.484090e+00 6.570805e+01 
1.518820e+00 6.392287e+01 
1.552880e+00 6.224440e+01 
1.588630e+00 6.055611e+01 
1.623230e+00 5.899100e+01 
1.657720e+00 5.749230e+01 
1.692450e+00 5.604380e+01 
1.726400e+00 5.467827e+01 
1.762200e+00 5.329165e+01 
1.797880e+00 5.196355e+01 
1.833270e+00 5.069557e+01 
1.869070e+00 4.945873e+01 
1.903200e+00 4.832201e+01 
1.937740e+00 4.721110e+01 
1.973190e+00 4.610953e+01 
2.007440e+00 4.508168e+01 
2.042160e+00 4.407364e+01 
2.077900e+00 4.306962e+01 
2.112390e+00 4.213342e+01 
2.146220e+00 4.124198e+01 
2.181600e+00 4.033933e+01 
2.216930e+00 3.946626e+01 
2.250760e+00 3.865596e+01 
2.286500e+00 3.782599e+01 
2.321770e+00 3.703201e+01 
2.355950e+00 3.628562e+01 
2.391280e+00 3.553466e+01 
2.426240e+00 3.481361e+01 
2.460670e+00 3.412452e+01 
2.495640e+00 3.344522e+01 
2.531080e+00 3.277437e+01 
2.566220e+00 3.212784e+01 
2.600830e+00 3.150912e+01 
2.635080e+00 3.091399e+01 
2.670340e+00 3.031625e+01 
2.705970e+00 2.972907e+01 
2.740040e+00 2.918290e+01 
2.774520e+00 2.864345e+01 
2.809730e+00 2.810661e+01 
2.844390e+00 2.759241e+01 
2.879960e+00 2.707823e+01 
2.914860e+00 2.658608e+01 
2.949410e+00 2.611160e+01 
2.984440e+00 2.564185e+01 
3.019760e+00 2.517993e+01 
3.054730e+00 2.473447e+01 
3.089030e+00 2.430697e+01 
3.124060e+00 2.388142e+01 
3.159560e+00 2.346060e+01 
3.194710e+00 2.305363e+01 
3.229010e+00 2.266653e+01 
3.263320e+00 2.228696e+01 
3.297930e+00 2.191343e+01 
3.332830e+00 2.154515e+01 
3.368040e+00 2.118222e+01 
3.403300e+00 2.082747e+01 
3.438450e+00 2.048138e+01 
3.473060e+00 2.014893e+01 
3.508440e+00 1.981568e+01 
3.543110e+00 1.949709e+01 
3.577470e+00 1.918772e+01 
3.613040e+00 1.887491e+01 
3.648120e+00 1.857269e+01 
3.682910e+00 1.827974e+01 
3.718050e+00 1.799001e+01 
3.753320e+00 1.770568e+01 
3.787980e+00 1.743212e+01 
3.822290e+00 1.716710e+01 
3.857020e+00 1.690425e+01 
3.891920e+00 1.664573e+01 
3.926650e+00 1.639348e+01 
3.961970e+00 1.614256e+01 
3.997360e+00 1.589624e+01 
4.031670e+00 1.566261e+01 
4.066330e+00 1.543098e+01 
4.101420e+00 1.520162e+01 
4.136200e+00 1.497832e+01 
4.170810e+00 1.476091e+01 
4.206250e+00 1.454248e+01 
4.241580e+00 1.432934e+01 
4.276300e+00 1.412388e+01 
4.310970e+00 1.392278e+01 
4.346120e+00 1.372294e+01 
4.380600e+00 1.353062e+01 
4.414730e+00 1.334411e+01 
4.450350e+00 1.315293e+01 
4.485320e+00 1.296912e+01 
4.519810e+00 1.279112e+01 
4.555430e+00 1.261084e+01 
4.590870e+00 1.243499e+01 
4.625480e+00 1.226641e+01 
4.659910e+00 1.210199e+01 
4.695230e+00 1.193635e+01 
4.729960e+00 1.177663e+01 
4.764450e+00 1.162090e+01 
4.799530e+00 1.146530e+01 
4.834910e+00 1.131139e+01 
4.869700e+00 1.116277e+01 
4.904370e+00 1.101741e+01 
4.939450e+00 1.087303e+01 
4.973940e+00 1.073361e+01 
5.008430e+00 1.059674e+01 
5.043810e+00 1.045876e+01 
5.078840e+00 1.032458e+01 
5.113500e+00 1.019423e+01 
5.148890e+00 1.006343e+01 
5.184210e+00 9.935261e+00 
5.219060e+00 9.811050e+00 
5.253660e+00 9.689862e+00 
5.288570e+00 9.569737e+00 
5.323420e+00 9.451883e+00 
5.358440e+00 9.335482e+00 
5.393590e+00 9.220684e+00 
5.428310e+00 9.109242e+00 
5.462800e+00 9.000416e+00 
5.497640e+00 8.892346e+00 
5.532670e+00 8.785537e+00 
5.567280e+00 8.681784e+00 
5.602000e+00 8.579432e+00 
5.637270e+00 8.477205e+00 
5.672410e+00 8.377058e+00 
5.707020e+00 8.280044e+00 
5.742040e+00 8.183553e+00 
5.777430e+00 8.087657e+00 
5.812210e+00 7.994948e+00 
5.846820e+00 7.904178e+00 
5.881610e+00 7.814390e+00 
5.916510e+00 7.725750e+00 
5.951600e+00 7.638095e+00 
5.986560e+00 7.552168e+00 
6.021830e+00 7.466846e+00 
6.056490e+00 7.384380e+00 
6.091160e+00 7.303221e+00 
6.125830e+00 7.223305e+00 
6.161090e+00 7.143308e+00 
6.195760e+00 7.065917e+00 
6.230420e+00 6.989714e+00 
6.265690e+00 6.913348e+00 
6.300950e+00 6.838264e+00 
6.335620e+00 6.765542e+00 
6.370880e+00 6.692684e+00 
6.405550e+00 6.622194e+00 
6.440220e+00 6.552770e+00 
6.475480e+00 6.483200e+00 
6.510150e+00 6.415827e+00 
6.544810e+00 6.349523e+00 
6.580080e+00 6.283026e+00 
6.614750e+00 6.218601e+00 
6.649410e+00 6.155233e+00 
6.684080e+00 6.092767e+00 
6.719340e+00 6.030137e+00 
6.754010e+00 5.969465e+00 
6.788680e+00 5.909735e+00 
6.823940e+00 5.849837e+00 
6.859800e+00 5.789779e+00 
6.894470e+00 5.732613e+00 
6.929140e+00 5.676259e+00 
6.963800e+00 5.620686e+00 
6.999070e+00 5.564914e+00 
7.033730e+00 5.510975e+00 
7.068400e+00 5.457741e+00 
7.103660e+00 5.404330e+00 
7.138330e+00 5.352561e+00 
7.173600e+00 5.300694e+00 
7.208260e+00 5.250399e+00 
7.243530e+00 5.199895e+00 
7.277600e+00 5.151806e+00 
7.312860e+00 5.102740e+00 
7.348120e+00 5.054318e+00 
7.382790e+00 5.007323e+00 
7.417460e+00 4.961033e+00 
7.452720e+00 4.914613e+00 
7.487390e+00 4.869553e+00 
7.522650e+00 4.824310e+00 
7.557320e+00 4.780475e+00 
7.591990e+00 4.737222e+00 
7.627250e+00 4.693784e+00 
7.662510e+00 4.650894e+00 
7.697180e+00 4.609346e+00 
7.731850e+00 4.568347e+00 
7.766510e+00 4.527860e+00 
7.801180e+00 4.487855e+00 
7.836440e+00 4.447746e+00 
7.871110e+00 4.408836e+00 
7.906380e+00 4.369733e+00 
7.941040e+00 4.331771e+00 
7.976310e+00 4.293653e+00 
8.011570e+00 4.256063e+00 
8.046240e+00 4.219543e+00 
8.080900e+00 4.183463e+00 
8.115570e+00 4.147824e+00 
8.150830e+00 4.112111e+00 
8.185500e+00 4.077407e+00 
8.220770e+00 4.042515e+00 
8.255430e+00 4.008625e+00 
8.290100e+00 3.975220e+00 
8.324770e+00 3.942209e+00 
8.359430e+00 3.909583e+00 
8.394700e+00 3.876762e+00 
8.429960e+00 3.844389e+00 
8.464630e+00 3.812981e+00 
8.499890e+00 3.781399e+00 
8.534560e+00 3.750695e+00 
8.569200e+00 3.720359e+00 
