# Parameters:
# omega_b = 0.021705, omega_m = 0.125512, n_s = 1.020079, h = 58.070866, w = -1.000000, sigma_8 = 0.814961
# z = 1.300000
#
# k[1/Mpc] # P(k):
8.694000e-04 5.805538e+03 
2.077466e-03 1.285062e+04 
3.285532e-03 1.844575e+04 
4.493598e-03 2.274595e+04 
5.701664e-03 2.592743e+04 
6.909730e-03 2.815565e+04 
8.117797e-03 2.962855e+04 
9.325863e-03 3.045103e+04 
1.053393e-02 3.073434e+04 
1.174199e-02 3.058441e+04 
1.295006e-02 3.006680e+04 
1.415813e-02 2.927006e+04 
1.536619e-02 2.827391e+04 
1.657426e-02 2.713779e+04 
1.778233e-02 2.594026e+04 
1.899039e-02 2.476989e+04 
2.019846e-02 2.360206e+04 
2.140652e-02 2.242970e+04 
2.261459e-02 2.128739e+04 
2.382266e-02 2.020970e+04 
2.503072e-02 1.921306e+04 
2.623879e-02 1.830185e+04 
2.744685e-02 1.747816e+04 
2.865492e-02 1.674061e+04 
2.986299e-02 1.608390e+04 
3.100100e-02 1.553658e+04 
3.220400e-02 1.502533e+04 
3.288100e-02 1.476677e+04 
3.424300e-02 1.429934e+04 
3.555100e-02 1.390539e+04 
3.686000e-02 1.355559e+04 
3.795000e-02 1.328981e+04 
3.929100e-02 1.298649e+04 
4.039800e-02 1.274773e+04 
4.164000e-02 1.248668e+04 
4.294400e-02 1.220841e+04 
4.415000e-02 1.194927e+04 
4.542900e-02 1.166016e+04 
4.660900e-02 1.138705e+04 
4.782300e-02 1.108592e+04 
4.892900e-02 1.080442e+04 
5.031200e-02 1.043949e+04 
5.155900e-02 1.009886e+04 
5.238100e-02 9.871341e+03 
5.378200e-02 9.482133e+03 
5.513400e-02 9.108766e+03 
5.627600e-02 8.800785e+03 
5.735300e-02 8.521294e+03 
5.870100e-02 8.191306e+03 
5.988700e-02 7.922417e+03 
6.113500e-02 7.661186e+03 
6.225900e-02 7.444425e+03 
6.340100e-02 7.239595e+03 
6.480200e-02 7.004845e+03 
6.601100e-02 6.815504e+03 
6.725500e-02 6.631528e+03 
6.829100e-02 6.487487e+03 
6.958600e-02 6.317904e+03 
7.071100e-02 6.181682e+03 
7.192300e-02 6.046166e+03 
7.307400e-02 5.928003e+03 
7.412300e-02 5.828742e+03 
7.550400e-02 5.710177e+03 
7.663100e-02 5.621133e+03 
7.791200e-02 5.528525e+03 
7.912700e-02 5.446472e+03 
8.027600e-02 5.372182e+03 
8.138400e-02 5.302472e+03 
8.272200e-02 5.219393e+03 
8.406100e-02 5.135916e+03 
8.534100e-02 5.053327e+03 
8.653800e-02 4.972608e+03 
8.759800e-02 4.899010e+03 
8.900300e-02 4.797522e+03 
9.009000e-02 4.715308e+03 
9.113300e-02 4.633022e+03 
9.239600e-02 4.531701e+03 
9.358000e-02 4.434269e+03 
9.496100e-02 4.317868e+03 
9.608400e-02 4.223429e+03 
9.727500e-02 4.124245e+03 
9.852600e-02 4.020391e+03 
9.973800e-02 3.922815e+03 
1.009000e-01 3.832024e+03 
1.020900e-01 3.743338e+03 
1.034000e-01 3.650314e+03 
1.046000e-01 3.569411e+03 
1.057200e-01 3.499762e+03 
1.069100e-01 3.429333e+03 
1.082500e-01 3.356909e+03 
1.093900e-01 3.300109e+03 
1.105400e-01 3.246063e+03 
1.116900e-01 3.197506e+03 
1.129600e-01 3.146635e+03 
1.142000e-01 3.101528e+03 
1.153300e-01 3.062457e+03 
1.166400e-01 3.019868e+03 
1.177800e-01 2.984480e+03 
1.190000e-01 2.947868e+03 
1.201200e-01 2.914713e+03 
1.213400e-01 2.879387e+03 
1.227100e-01 2.838965e+03 
1.238900e-01 2.804480e+03 
1.250700e-01 2.768962e+03 
1.263200e-01 2.731389e+03 
1.275500e-01 2.693448e+03 
1.287500e-01 2.656339e+03 
1.299900e-01 2.617373e+03 
1.311300e-01 2.581580e+03 
1.323500e-01 2.542955e+03 
1.335900e-01 2.504068e+03 
1.347100e-01 2.469008e+03 
1.359800e-01 2.429909e+03 
1.372100e-01 2.392446e+03 
1.384300e-01 2.356099e+03 
1.395700e-01 2.322785e+03 
1.407700e-01 2.288504e+03 
1.420300e-01 2.253630e+03 
1.432800e-01 2.219817e+03 
1.444500e-01 2.189442e+03 
1.456300e-01 2.159444e+03 
1.468900e-01 2.128709e+03 
1.480500e-01 2.101187e+03 
1.491700e-01 2.075461e+03 
1.503800e-01 2.048635e+03 
1.516400e-01 2.021410e+03 
1.528200e-01 1.997012e+03 
1.540200e-01 1.972683e+03 
1.551900e-01 1.949863e+03 
1.564300e-01 1.926254e+03 
1.576600e-01 1.903460e+03 
1.588700e-01 1.881667e+03 
1.600900e-01 1.860117e+03 
1.612700e-01 1.839791e+03 
1.625400e-01 1.818327e+03 
1.637600e-01 1.798051e+03 
1.649500e-01 1.778607e+03 
1.662200e-01 1.758203e+03 
1.674000e-01 1.739385e+03 
1.685000e-01 1.722139e+03 
1.697500e-01 1.702710e+03 
1.710300e-01 1.683013e+03 
1.722200e-01 1.665030e+03 
1.734400e-01 1.646568e+03 
1.746400e-01 1.628712e+03 
1.758700e-01 1.610638e+03 
1.770900e-01 1.592840e+03 
1.782700e-01 1.575920e+03 
1.794600e-01 1.559047e+03 
1.807000e-01 1.541703e+03 
1.819100e-01 1.525069e+03 
1.830100e-01 1.510165e+03 
1.842200e-01 1.494030e+03 
1.855000e-01 1.477257e+03 
1.867000e-01 1.461911e+03 
1.879200e-01 1.446564e+03 
1.890900e-01 1.432114e+03 
1.902800e-01 1.417808e+03 
1.915200e-01 1.403140e+03 
1.926900e-01 1.389580e+03 
1.939000e-01 1.375969e+03 
1.951700e-01 1.361911e+03 
1.963100e-01 1.349549e+03 
1.975100e-01 1.336894e+03 
1.987800e-01 1.323710e+03 
2.000100e-01 1.311200e+03 
2.012500e-01 1.298920e+03 
2.023400e-01 1.288281e+03 
2.036100e-01 1.276088e+03 
2.048900e-01 1.264079e+03 
2.060400e-01 1.253449e+03 
2.072200e-01 1.242697e+03 
2.084200e-01 1.231952e+03 
2.096900e-01 1.220748e+03 
2.109200e-01 1.210057e+03 
2.121100e-01 1.199802e+03 
2.132700e-01 1.189940e+03 
2.145200e-01 1.179462e+03 
2.157200e-01 1.169466e+03 
2.168800e-01 1.159900e+03 
2.180700e-01 1.150218e+03 
2.193400e-01 1.139962e+03 
2.206000e-01 1.129805e+03 
2.217500e-01 1.120661e+03 
2.229500e-01 1.111247e+03 
2.241400e-01 1.101819e+03 
2.253500e-01 1.092357e+03 
2.264900e-01 1.083560e+03 
2.277100e-01 1.074148e+03 
2.289900e-01 1.064276e+03 
2.301500e-01 1.055451e+03 
2.313600e-01 1.046364e+03 
2.325600e-01 1.037235e+03 
2.337700e-01 1.028153e+03 
2.350000e-01 1.019044e+03 
2.362000e-01 1.010184e+03 
2.374100e-01 1.001260e+03 
2.386500e-01 9.922372e+02 
2.399100e-01 9.831926e+02 
2.410400e-01 9.750769e+02 
2.422500e-01 9.664826e+02 
2.435000e-01 9.577214e+02 
2.447300e-01 9.492074e+02 
2.458700e-01 9.413879e+02 
2.470600e-01 9.333263e+02 
2.483300e-01 9.248343e+02 
2.495600e-01 9.167378e+02 
2.507600e-01 9.089664e+02 
2.519600e-01 9.012919e+02 
2.532200e-01 8.933360e+02 
2.543700e-01 8.862403e+02 
2.555500e-01 8.790972e+02 
2.568000e-01 8.716235e+02 
2.580100e-01 8.644788e+02 
2.592400e-01 8.574304e+02 
2.604100e-01 8.508607e+02 
2.616100e-01 8.442014e+02 
2.628400e-01 8.374572e+02 
2.640600e-01 8.309873e+02 
2.652200e-01 8.249616e+02 
2.664300e-01 8.187476e+02 
2.676500e-01 8.125552e+02 
2.688400e-01 8.066937e+02 
2.700700e-01 8.007724e+02 
2.712400e-01 7.952033e+02 
2.724800e-01 7.893673e+02 
2.736700e-01 7.839042e+02 
2.748800e-01 7.784870e+02 
2.761000e-01 7.730857e+02 
2.773200e-01 7.677443e+02 
2.785400e-01 7.624960e+02 
2.797000e-01 7.576304e+02 
2.808900e-01 7.526914e+02 
2.821400e-01 7.475597e+02 
2.833900e-01 7.424878e+02 
2.845500e-01 7.378945e+02 
2.857800e-01 7.330750e+02 
2.870300e-01 7.282301e+02 
2.882100e-01 7.237048e+02 
2.893900e-01 7.192543e+02 
2.906300e-01 7.146415e+02 
2.918900e-01 7.100045e+02 
2.930500e-01 7.057795e+02 
2.942500e-01 7.014577e+02 
2.954200e-01 6.973024e+02 
2.966500e-01 6.929781e+02 
2.978900e-01 6.886638e+02 
2.990400e-01 6.847026e+02 
3.002700e-01 6.805144e+02 
3.015100e-01 6.763386e+02 
3.026800e-01 6.724377e+02 
3.038500e-01 6.685743e+02 
3.050300e-01 6.647154e+02 
3.062600e-01 6.607370e+02 
3.075000e-01 6.567664e+02 
3.087000e-01 6.529618e+02 
3.099100e-01 6.491627e+02 
3.111200e-01 6.454025e+02 
3.123100e-01 6.417432e+02 
3.135300e-01 6.380276e+02 
3.147300e-01 6.344080e+02 
3.159900e-01 6.306443e+02 
3.171800e-01 6.271263e+02 
3.183700e-01 6.236426e+02 
3.196300e-01 6.199893e+02 
3.208400e-01 6.165147e+02 
3.220300e-01 6.131292e+02 
3.232000e-01 6.098348e+02 
3.244300e-01 6.064049e+02 
3.256700e-01 6.029798e+02 
3.269200e-01 5.995598e+02 
3.280800e-01 5.964152e+02 
3.292500e-01 5.932787e+02 
3.304800e-01 5.900136e+02 
3.317100e-01 5.867787e+02 
3.328900e-01 5.837032e+02 
3.340700e-01 5.806548e+02 
3.353600e-01 5.773610e+02 
3.365300e-01 5.744038e+02 
3.377100e-01 5.714471e+02 
3.389200e-01 5.684419e+02 
3.401600e-01 5.653899e+02 
3.413700e-01 5.624470e+02 
3.425300e-01 5.596562e+02 
3.437700e-01 5.566987e+02 
3.449800e-01 5.538383e+02 
3.461800e-01 5.510261e+02 
3.473600e-01 5.482888e+02 
3.485800e-01 5.454937e+02 
3.498100e-01 5.427002e+02 
3.510200e-01 5.399759e+02 
3.522000e-01 5.373415e+02 
3.533900e-01 5.347069e+02 
3.546400e-01 5.319775e+02 
3.558400e-01 5.293806e+02 
3.570600e-01 5.267625e+02 
3.582700e-01 5.241878e+02 
3.595000e-01 5.215925e+02 
3.607100e-01 5.190699e+02 
3.618900e-01 5.166370e+02 
3.631200e-01 5.141219e+02 
3.643200e-01 5.116884e+02 
3.655500e-01 5.092146e+02 
3.667300e-01 5.068607e+02 
3.679500e-01 5.044641e+02 
3.691900e-01 5.020483e+02 
3.703600e-01 4.997872e+02 
3.715700e-01 4.974673e+02 
3.727700e-01 4.951851e+02 
3.739900e-01 4.928893e+02 
3.752000e-01 4.906413e+02 
3.763900e-01 4.884478e+02 
3.775800e-01 4.862715e+02 
3.788200e-01 4.840217e+02 
3.800300e-01 4.818438e+02 
3.812100e-01 4.797446e+02 
3.824200e-01 4.776141e+02 
3.836100e-01 4.755351e+02 
3.848600e-01 4.733683e+02 
3.860400e-01 4.713388e+02 
3.872400e-01 4.692905e+02 
3.884600e-01 4.672345e+02 
3.896500e-01 4.652482e+02 
3.908700e-01 4.632273e+02 
3.920600e-01 4.612711e+02 
3.933100e-01 4.592320e+02 
3.945300e-01 4.572572e+02 
3.957200e-01 4.553570e+02 
3.969300e-01 4.534426e+02 
3.981700e-01 4.514957e+02 
3.993500e-01 4.496568e+02 
4.094840e-01 4.344342e+02 
4.272360e-01 4.101611e+02 
4.454600e-01 3.878559e+02 
4.630560e-01 3.684311e+02 
4.804610e-01 3.509591e+02 
4.980690e-01 3.348092e+02 
5.159230e-01 3.197945e+02 
5.317440e-01 3.075162e+02 
5.489640e-01 2.951265e+02 
5.671990e-01 2.830165e+02 
5.838690e-01 2.727690e+02 
6.018840e-01 2.624930e+02 
6.202330e-01 2.528035e+02 
6.379250e-01 2.441273e+02 
6.545410e-01 2.365384e+02 
6.714560e-01 2.292996e+02 
6.892080e-01 2.222006e+02 
7.066010e-01 2.156950e+02 
7.240540e-01 2.095617e+02 
7.420450e-01 2.036337e+02 
7.593780e-01 1.982574e+02 
7.764720e-01 1.932475e+02 
7.942840e-01 1.883119e+02 
8.116170e-01 1.837682e+02 
8.288310e-01 1.794824e+02 
8.462240e-01 1.753663e+02 
8.631980e-01 1.715327e+02 
8.810700e-01 1.676816e+02 
8.989410e-01 1.640025e+02 
9.166330e-01 1.605199e+02 
9.345640e-01 1.571441e+02 
9.515980e-01 1.540597e+02 
9.688720e-01 1.510478e+02 
9.865640e-01 1.480778e+02 
1.031870e+00 1.409468e+02 
1.063490e+00 1.363265e+02 
1.097920e+00 1.315961e+02 
1.134370e+00 1.268826e+02 
1.167730e+00 1.228137e+02 
1.203830e+00 1.186331e+02 
1.240470e+00 1.146254e+02 
1.275790e+00 1.109521e+02 
1.309140e+00 1.076585e+02 
1.342970e+00 1.044483e+02 
1.378420e+00 1.012471e+02 
1.413200e+00 9.824222e+01 
1.448110e+00 9.535589e+01 
1.484090e+00 9.251083e+01 
1.518820e+00 8.987879e+01 
1.552880e+00 8.739876e+01 
1.588630e+00 8.490043e+01 
1.623230e+00 8.258014e+01 
1.657720e+00 8.035401e+01 
1.692450e+00 7.820204e+01 
1.726400e+00 7.617142e+01 
1.762200e+00 7.410734e+01 
1.797880e+00 7.212930e+01 
1.833270e+00 7.024026e+01 
1.869070e+00 6.839722e+01 
1.903200e+00 6.670359e+01 
1.937740e+00 6.504898e+01 
1.973190e+00 6.340872e+01 
2.007440e+00 6.187951e+01 
2.042160e+00 6.038013e+01 
2.077900e+00 5.888710e+01 
2.112390e+00 5.749698e+01 
2.146220e+00 5.617373e+01 
2.181600e+00 5.483527e+01 
2.216930e+00 5.354191e+01 
2.250760e+00 5.234287e+01 
2.286500e+00 5.111611e+01 
2.321770e+00 4.994389e+01 
2.355950e+00 4.884382e+01 
2.391280e+00 4.773776e+01 
2.426240e+00 4.667754e+01 
2.460670e+00 4.566588e+01 
2.495640e+00 4.466990e+01 
2.531080e+00 4.368773e+01 
2.566220e+00 4.274243e+01 
2.600830e+00 4.183930e+01 
2.635080e+00 4.097213e+01 
2.670340e+00 4.010331e+01 
2.705970e+00 3.925080e+01 
2.740040e+00 3.845881e+01 
2.774520e+00 3.767791e+01 
2.809730e+00 3.690230e+01 
2.844390e+00 3.616072e+01 
2.879960e+00 3.542098e+01 
2.914860e+00 3.471397e+01 
2.949410e+00 3.403328e+01 
2.984440e+00 3.336106e+01 
3.019760e+00 3.270084e+01 
3.054730e+00 3.206488e+01 
3.089030e+00 3.145679e+01 
3.124060e+00 3.085227e+01 
3.159560e+00 3.025542e+01 
3.194710e+00 2.967962e+01 
3.229010e+00 2.913269e+01 
3.263320e+00 2.859792e+01 
3.297930e+00 2.807230e+01 
3.332830e+00 2.755497e+01 
3.368040e+00 2.704636e+01 
3.403300e+00 2.655017e+01 
3.438450e+00 2.606731e+01 
3.473060e+00 2.560403e+01 
3.508440e+00 2.514076e+01 
3.543110e+00 2.469844e+01 
3.577470e+00 2.427053e+01 
3.613040e+00 2.383827e+01 
3.648120e+00 2.342125e+01 
3.682910e+00 2.301779e+01 
3.718050e+00 2.261993e+01 
3.753320e+00 2.223007e+01 
3.787980e+00 2.185569e+01 
3.822290e+00 2.149364e+01 
3.857020e+00 2.113538e+01 
3.891920e+00 2.078358e+01 
3.926650e+00 2.044113e+01 
3.961970e+00 2.010101e+01 
3.997360e+00 1.976810e+01 
4.031670e+00 1.945267e+01 
4.066330e+00 1.914065e+01 
4.101420e+00 1.883193e+01 
4.136200e+00 1.853239e+01 
4.170810e+00 1.824097e+01 
4.206250e+00 1.794891e+01 
4.241580e+00 1.766423e+01 
4.276300e+00 1.739054e+01 
4.310970e+00 1.712313e+01 
4.346120e+00 1.685781e+01 
4.380600e+00 1.660300e+01 
4.414730e+00 1.635606e+01 
4.450350e+00 1.610381e+01 
4.485320e+00 1.586143e+01 
4.519810e+00 1.562733e+01 
4.555430e+00 1.539059e+01 
4.590870e+00 1.515996e+01 
4.625480e+00 1.493934e+01 
4.659910e+00 1.472427e+01 
4.695230e+00 1.450837e+01 
4.729960e+00 1.430038e+01 
4.764450e+00 1.409793e+01 
4.799530e+00 1.389610e+01 
4.834910e+00 1.369659e+01 
4.869700e+00 1.350445e+01 
4.904370e+00 1.331669e+01 
4.939450e+00 1.313045e+01 
4.973940e+00 1.295103e+01 
5.008430e+00 1.277498e+01 
5.043810e+00 1.259789e+01 
5.078840e+00 1.242593e+01 
5.113500e+00 1.225896e+01 
5.148890e+00 1.209200e+01 
5.184210e+00 1.192849e+01 
5.219060e+00 1.177021e+01 
5.253660e+00 1.161614e+01 
5.288570e+00 1.146349e+01 
5.323420e+00 1.131396e+01 
5.358440e+00 1.116653e+01 
5.393590e+00 1.102120e+01 
5.428310e+00 1.088045e+01 
5.462800e+00 1.074321e+01 
5.497640e+00 1.060698e+01 
5.532670e+00 1.047269e+01 
5.567280e+00 1.034238e+01 
5.602000e+00 1.021388e+01 
5.637270e+00 1.008583e+01 
5.672410e+00 9.960485e+00 
5.707020e+00 9.839110e+00 
5.742040e+00 9.718720e+00 
5.777430e+00 9.599176e+00 
5.812210e+00 9.483646e+00 
5.846820e+00 9.370769e+00 
5.881610e+00 9.259202e+00 
5.916510e+00 9.149100e+00 
5.951600e+00 9.040465e+00 
5.986560e+00 8.934098e+00 
6.021830e+00 8.828515e+00 
6.056490e+00 8.726643e+00 
6.091160e+00 8.626537e+00 
6.125830e+00 8.527995e+00 
6.161090e+00 8.429447e+00 
6.195760e+00 8.334277e+00 
6.230420e+00 8.240594e+00 
6.265690e+00 8.146746e+00 
6.300950e+00 8.054742e+00 
6.335620e+00 7.965655e+00 
6.370880e+00 7.876426e+00 
6.405550e+00 7.790238e+00 
6.440220e+00 7.705424e+00 
6.475480e+00 7.620453e+00 
6.510150e+00 7.538252e+00 
6.544810e+00 7.457518e+00 
6.580080e+00 7.376570e+00 
6.614750e+00 7.298162e+00 
6.649410e+00 7.221186e+00 
6.684080e+00 7.145346e+00 
6.719340e+00 7.069324e+00 
6.754010e+00 6.995750e+00 
6.788680e+00 6.923459e+00 
6.823940e+00 6.850979e+00 
6.859800e+00 6.778323e+00 
6.894470e+00 6.709275e+00 
6.929140e+00 6.641257e+00 
6.963800e+00 6.574194e+00 
6.999070e+00 6.506912e+00 
7.033730e+00 6.441965e+00 
7.068400e+00 6.377881e+00 
7.103660e+00 6.313594e+00 
7.138330e+00 6.251332e+00 
7.173600e+00 6.189041e+00 
7.208260e+00 6.128648e+00 
7.243530e+00 6.068013e+00 
7.277600e+00 6.010347e+00 
7.312860e+00 5.951571e+00 
7.348120e+00 5.893576e+00 
7.382790e+00 5.837298e+00 
7.417460e+00 5.781956e+00 
7.452720e+00 5.726509e+00 
7.487390e+00 5.672694e+00 
7.522650e+00 5.618668e+00 
7.557320e+00 5.566380e+00 
7.591990e+00 5.514810e+00 
7.627250e+00 5.463027e+00 
7.662510e+00 5.411905e+00 
7.697180e+00 5.362450e+00 
7.731850e+00 5.313679e+00 
7.766510e+00 5.265524e+00 
7.801180e+00 5.217947e+00 
7.836440e+00 5.170287e+00 
7.871110e+00 5.124079e+00 
7.906380e+00 5.077648e+00 
7.941040e+00 5.032575e+00 
7.976310e+00 4.987359e+00 
8.011570e+00 4.942816e+00 
8.046240e+00 4.899545e+00 
8.080900e+00 4.856801e+00 
8.115570e+00 4.814592e+00 
8.150830e+00 4.772338e+00 
8.185500e+00 4.731281e+00 
8.220770e+00 4.690006e+00 
8.255430e+00 4.649921e+00 
8.290100e+00 4.610475e+00 
8.324770e+00 4.571505e+00 
8.359430e+00 4.532993e+00 
8.394700e+00 4.494256e+00 
8.429960e+00 4.456070e+00 
8.464630e+00 4.419046e+00 
8.499890e+00 4.381820e+00 
8.534560e+00 4.345632e+00 
8.569200e+00 4.309881e+00 
