# Parameters:
# omega_b = 0.022933, omega_m = 0.138189, n_s = 1.031102, h = 59.488189, w = -1.000000, sigma_8 = 0.879528
# z = 1.300000
#
# k[1/Mpc] # P(k):
8.694000e-04 4.634310e+03 
2.077466e-03 1.046176e+04 
3.285532e-03 1.522864e+04 
4.493598e-03 1.903440e+04 
5.701664e-03 2.195645e+04 
6.909730e-03 2.410856e+04 
8.117797e-03 2.564190e+04 
9.325863e-03 2.663261e+04 
1.053393e-02 2.716111e+04 
1.174199e-02 2.730437e+04 
1.295006e-02 2.711189e+04 
1.415813e-02 2.665482e+04 
1.536619e-02 2.599677e+04 
1.657426e-02 2.518427e+04 
1.778233e-02 2.427077e+04 
1.899039e-02 2.333000e+04 
2.019846e-02 2.237011e+04 
2.140652e-02 2.139934e+04 
2.261459e-02 2.043935e+04 
2.382266e-02 1.951669e+04 
2.503072e-02 1.864764e+04 
2.623879e-02 1.783866e+04 
2.744685e-02 1.709254e+04 
2.865492e-02 1.641281e+04 
2.986299e-02 1.579752e+04 
3.100100e-02 1.527586e+04 
3.220400e-02 1.478147e+04 
3.288100e-02 1.452855e+04 
3.424300e-02 1.406779e+04 
3.555100e-02 1.367747e+04 
3.686000e-02 1.333127e+04 
3.795000e-02 1.307013e+04 
3.929100e-02 1.277720e+04 
4.039800e-02 1.255162e+04 
4.164000e-02 1.231006e+04 
4.294400e-02 1.206046e+04 
4.415000e-02 1.183213e+04 
4.542900e-02 1.158206e+04 
4.660900e-02 1.134762e+04 
4.782300e-02 1.109017e+04 
4.892900e-02 1.084890e+04 
5.031200e-02 1.053407e+04 
5.155900e-02 1.023685e+04 
5.238100e-02 1.003619e+04 
5.378200e-02 9.688645e+03 
5.513400e-02 9.348551e+03 
5.627600e-02 9.062041e+03 
5.735300e-02 8.796614e+03 
5.870100e-02 8.475171e+03 
5.988700e-02 8.206083e+03 
6.113500e-02 7.937997e+03 
6.225900e-02 7.710540e+03 
6.340100e-02 7.492518e+03 
6.480200e-02 7.241113e+03 
6.601100e-02 7.037983e+03 
6.725500e-02 6.841402e+03 
6.829100e-02 6.688107e+03 
6.958600e-02 6.508316e+03 
7.071100e-02 6.364218e+03 
7.192300e-02 6.221014e+03 
7.307400e-02 6.096248e+03 
7.412300e-02 5.991564e+03 
7.550400e-02 5.866901e+03 
7.663100e-02 5.773710e+03 
7.791200e-02 5.677809e+03 
7.912700e-02 5.594146e+03 
8.027600e-02 5.519572e+03 
8.138400e-02 5.450663e+03 
8.272200e-02 5.370040e+03 
8.406100e-02 5.290510e+03 
8.534100e-02 5.213243e+03 
8.653800e-02 5.138518e+03 
8.759800e-02 5.070670e+03 
8.900300e-02 4.977319e+03 
9.009000e-02 4.901604e+03 
9.113300e-02 4.825453e+03 
9.239600e-02 4.731226e+03 
9.358000e-02 4.639915e+03 
9.496100e-02 4.529525e+03 
9.608400e-02 4.439088e+03 
9.727500e-02 4.343378e+03 
9.852600e-02 4.241319e+03 
9.973800e-02 4.144498e+03 
1.009000e-01 4.053639e+03 
1.020900e-01 3.963019e+03 
1.034000e-01 3.867064e+03 
1.046000e-01 3.782674e+03 
1.057200e-01 3.708537e+03 
1.069100e-01 3.633049e+03 
1.082500e-01 3.553970e+03 
1.093900e-01 3.491179e+03 
1.105400e-01 3.430970e+03 
1.116900e-01 3.376068e+03 
1.129600e-01 3.318361e+03 
1.142000e-01 3.266888e+03 
1.153300e-01 3.222437e+03 
1.166400e-01 3.174188e+03 
1.177800e-01 3.134750e+03 
1.190000e-01 3.094261e+03 
1.201200e-01 3.058858e+03 
1.213400e-01 3.021362e+03 
1.227100e-01 2.980499e+03 
1.238900e-01 2.946029e+03 
1.250700e-01 2.911749e+03 
1.263200e-01 2.875854e+03 
1.275500e-01 2.840402e+03 
1.287500e-01 2.805939e+03 
1.299900e-01 2.770079e+03 
1.311300e-01 2.737083e+03 
1.323500e-01 2.701398e+03 
1.335900e-01 2.665176e+03 
1.347100e-01 2.632144e+03 
1.359800e-01 2.594927e+03 
1.372100e-01 2.558539e+03 
1.384300e-01 2.522861e+03 
1.395700e-01 2.489307e+03 
1.407700e-01 2.454651e+03 
1.420300e-01 2.418218e+03 
1.432800e-01 2.382887e+03 
1.444500e-01 2.350142e+03 
1.456300e-01 2.317803e+03 
1.468900e-01 2.284166e+03 
1.480500e-01 2.253896e+03 
1.491700e-01 2.225492e+03 
1.503800e-01 2.195731e+03 
1.516400e-01 2.165554e+03 
1.528200e-01 2.138601e+03 
1.540200e-01 2.111730e+03 
1.551900e-01 2.086833e+03 
1.564300e-01 2.061152e+03 
1.576600e-01 2.036594e+03 
1.588700e-01 2.013397e+03 
1.600900e-01 1.990486e+03 
1.612700e-01 1.969388e+03 
1.625400e-01 1.947106e+03 
1.637600e-01 1.926317e+03 
1.649500e-01 1.906529e+03 
1.662200e-01 1.885801e+03 
1.674000e-01 1.866907e+03 
1.685000e-01 1.849589e+03 
1.697500e-01 1.830111e+03 
1.710300e-01 1.810397e+03 
1.722200e-01 1.792395e+03 
1.734400e-01 1.773841e+03 
1.746400e-01 1.755889e+03 
1.758700e-01 1.737655e+03 
1.770900e-01 1.719578e+03 
1.782700e-01 1.702388e+03 
1.794600e-01 1.685118e+03 
1.807000e-01 1.667276e+03 
1.819100e-01 1.650161e+03 
1.830100e-01 1.634652e+03 
1.842200e-01 1.617828e+03 
1.855000e-01 1.600329e+03 
1.867000e-01 1.584142e+03 
1.879200e-01 1.567953e+03 
1.890900e-01 1.552687e+03 
1.902800e-01 1.537462e+03 
1.915200e-01 1.521852e+03 
1.926900e-01 1.507401e+03 
1.939000e-01 1.492836e+03 
1.951700e-01 1.477793e+03 
1.963100e-01 1.464558e+03 
1.975100e-01 1.450991e+03 
1.987800e-01 1.436855e+03 
2.000100e-01 1.423449e+03 
2.012500e-01 1.410302e+03 
2.023400e-01 1.398912e+03 
2.036100e-01 1.385868e+03 
2.048900e-01 1.373061e+03 
2.060400e-01 1.361724e+03 
2.072200e-01 1.350261e+03 
2.084200e-01 1.338863e+03 
2.096900e-01 1.326977e+03 
2.109200e-01 1.315635e+03 
2.121100e-01 1.304815e+03 
2.132700e-01 1.294412e+03 
2.145200e-01 1.283358e+03 
2.157200e-01 1.272851e+03 
2.168800e-01 1.262813e+03 
2.180700e-01 1.252652e+03 
2.193400e-01 1.241903e+03 
2.206000e-01 1.231287e+03 
2.217500e-01 1.221729e+03 
2.229500e-01 1.211887e+03 
2.241400e-01 1.202064e+03 
2.253500e-01 1.192205e+03 
2.264900e-01 1.183037e+03 
2.277100e-01 1.173238e+03 
2.289900e-01 1.162971e+03 
2.301500e-01 1.153791e+03 
2.313600e-01 1.144337e+03 
2.325600e-01 1.134854e+03 
2.337700e-01 1.125417e+03 
2.350000e-01 1.115950e+03 
2.362000e-01 1.106745e+03 
2.374100e-01 1.097476e+03 
2.386500e-01 1.088101e+03 
2.399100e-01 1.078702e+03 
2.410400e-01 1.070265e+03 
2.422500e-01 1.061329e+03 
2.435000e-01 1.052217e+03 
2.447300e-01 1.043359e+03 
2.458700e-01 1.035215e+03 
2.470600e-01 1.026817e+03 
2.483300e-01 1.017969e+03 
2.495600e-01 1.009524e+03 
2.507600e-01 1.001406e+03 
2.519600e-01 9.933878e+02 
2.532200e-01 9.850738e+02 
2.543700e-01 9.776443e+02 
2.555500e-01 9.701551e+02 
2.568000e-01 9.623178e+02 
2.580100e-01 9.548239e+02 
2.592400e-01 9.474123e+02 
2.604100e-01 9.404953e+02 
2.616100e-01 9.334828e+02 
2.628400e-01 9.263795e+02 
2.640600e-01 9.195470e+02 
2.652200e-01 9.131757e+02 
2.664300e-01 9.066046e+02 
2.676500e-01 9.000551e+02 
2.688400e-01 8.938429e+02 
2.700700e-01 8.875589e+02 
2.712400e-01 8.816480e+02 
2.724800e-01 8.754531e+02 
2.736700e-01 8.696460e+02 
2.748800e-01 8.638795e+02 
2.761000e-01 8.581294e+02 
2.773200e-01 8.524425e+02 
2.785400e-01 8.468512e+02 
2.797000e-01 8.416609e+02 
2.808900e-01 8.363918e+02 
2.821400e-01 8.309167e+02 
2.833900e-01 8.255046e+02 
2.845500e-01 8.205988e+02 
2.857800e-01 8.154509e+02 
2.870300e-01 8.102755e+02 
2.882100e-01 8.054411e+02 
2.893900e-01 8.006848e+02 
2.906300e-01 7.957539e+02 
2.918900e-01 7.907967e+02 
2.930500e-01 7.862797e+02 
2.942500e-01 7.816584e+02 
2.954200e-01 7.772137e+02 
2.966500e-01 7.725878e+02 
2.978900e-01 7.679722e+02 
2.990400e-01 7.637341e+02 
3.002700e-01 7.592519e+02 
3.015100e-01 7.547821e+02 
3.026800e-01 7.506063e+02 
3.038500e-01 7.464703e+02 
3.050300e-01 7.423388e+02 
3.062600e-01 7.380776e+02 
3.075000e-01 7.338246e+02 
3.087000e-01 7.297491e+02 
3.099100e-01 7.256791e+02 
3.111200e-01 7.216498e+02 
3.123100e-01 7.177270e+02 
3.135300e-01 7.137437e+02 
3.147300e-01 7.098629e+02 
3.159900e-01 7.058274e+02 
3.171800e-01 7.020533e+02 
3.183700e-01 6.983147e+02 
3.196300e-01 6.943937e+02 
3.208400e-01 6.906642e+02 
3.220300e-01 6.870301e+02 
3.232000e-01 6.834918e+02 
3.244300e-01 6.798071e+02 
3.256700e-01 6.761273e+02 
3.269200e-01 6.724527e+02 
3.280800e-01 6.690738e+02 
3.292500e-01 6.657018e+02 
3.304800e-01 6.621907e+02 
3.317100e-01 6.587117e+02 
3.328900e-01 6.554041e+02 
3.340700e-01 6.521254e+02 
3.353600e-01 6.485805e+02 
3.365300e-01 6.453969e+02 
3.377100e-01 6.422137e+02 
3.389200e-01 6.389781e+02 
3.401600e-01 6.356918e+02 
3.413700e-01 6.325217e+02 
3.425300e-01 6.295144e+02 
3.437700e-01 6.263274e+02 
3.449800e-01 6.232448e+02 
3.461800e-01 6.202140e+02 
3.473600e-01 6.172632e+02 
3.485800e-01 6.142488e+02 
3.498100e-01 6.112360e+02 
3.510200e-01 6.082976e+02 
3.522000e-01 6.054561e+02 
3.533900e-01 6.026141e+02 
3.546400e-01 5.996686e+02 
3.558400e-01 5.968656e+02 
3.570600e-01 5.940398e+02 
3.582700e-01 5.912606e+02 
3.595000e-01 5.884591e+02 
3.607100e-01 5.857353e+02 
3.618900e-01 5.831080e+02 
3.631200e-01 5.803917e+02 
3.643200e-01 5.777634e+02 
3.655500e-01 5.750915e+02 
3.667300e-01 5.725490e+02 
3.679500e-01 5.699594e+02 
3.691900e-01 5.673489e+02 
3.703600e-01 5.649056e+02 
3.715700e-01 5.623986e+02 
3.727700e-01 5.599321e+02 
3.739900e-01 5.574509e+02 
3.752000e-01 5.550211e+02 
3.763900e-01 5.526501e+02 
3.775800e-01 5.502976e+02 
3.788200e-01 5.478656e+02 
3.800300e-01 5.455112e+02 
3.812100e-01 5.432415e+02 
3.824200e-01 5.409377e+02 
3.836100e-01 5.386895e+02 
3.848600e-01 5.363463e+02 
3.860400e-01 5.341514e+02 
3.872400e-01 5.319362e+02 
3.884600e-01 5.297123e+02 
3.896500e-01 5.275637e+02 
3.908700e-01 5.253776e+02 
3.920600e-01 5.232613e+02 
3.933100e-01 5.210553e+02 
3.945300e-01 5.189187e+02 
3.957200e-01 5.168630e+02 
3.969300e-01 5.147918e+02 
3.981700e-01 5.126854e+02 
3.993500e-01 5.106957e+02 
4.094840e-01 4.942175e+02 
4.272360e-01 4.679218e+02 
4.454600e-01 4.437191e+02 
4.630560e-01 4.225997e+02 
4.804610e-01 4.035586e+02 
4.980690e-01 3.859142e+02 
5.159230e-01 3.694647e+02 
5.317440e-01 3.559815e+02 
5.489640e-01 3.423413e+02 
5.671990e-01 3.289766e+02 
5.838690e-01 3.176462e+02 
6.018840e-01 3.062637e+02 
6.202330e-01 2.955099e+02 
6.379250e-01 2.858696e+02 
6.545410e-01 2.774249e+02 
6.714560e-01 2.693621e+02 
6.892080e-01 2.614480e+02 
7.066010e-01 2.541887e+02 
7.240540e-01 2.473384e+02 
7.420450e-01 2.407119e+02 
7.593780e-01 2.346961e+02 
7.764720e-01 2.290860e+02 
7.942840e-01 2.235537e+02 
8.116170e-01 2.184561e+02 
8.288310e-01 2.136412e+02 
8.462240e-01 2.090132e+02 
8.631980e-01 2.046966e+02 
8.810700e-01 2.003551e+02 
8.989410e-01 1.962007e+02 
9.166330e-01 1.922631e+02 
9.345640e-01 1.884414e+02 
9.515980e-01 1.849427e+02 
9.688720e-01 1.815202e+02 
9.865640e-01 1.781394e+02 
1.031870e+00 1.699969e+02 
1.063490e+00 1.646990e+02 
1.097920e+00 1.592570e+02 
1.134370e+00 1.538135e+02 
1.167730e+00 1.490976e+02 
1.203830e+00 1.442318e+02 
1.240470e+00 1.395524e+02 
1.275790e+00 1.352466e+02 
1.309140e+00 1.313758e+02 
1.342970e+00 1.275874e+02 
1.378420e+00 1.238010e+02 
1.413200e+00 1.202355e+02 
1.448110e+00 1.168014e+02 
1.484090e+00 1.134079e+02 
1.518820e+00 1.102603e+02 
1.552880e+00 1.072872e+02 
1.588630e+00 1.042859e+02 
1.623230e+00 1.014927e+02 
1.657720e+00 9.880766e+01 
1.692450e+00 9.620769e+01 
1.726400e+00 9.374940e+01 
1.762200e+00 9.124627e+01 
1.797880e+00 8.884371e+01 
1.833270e+00 8.654607e+01 
1.869070e+00 8.430077e+01 
1.903200e+00 8.223494e+01 
1.937740e+00 8.021442e+01 
1.973190e+00 7.820900e+01 
2.007440e+00 7.633749e+01 
2.042160e+00 7.450034e+01 
2.077900e+00 7.266902e+01 
2.112390e+00 7.096274e+01 
2.146220e+00 6.933675e+01 
2.181600e+00 6.769079e+01 
2.216930e+00 6.609896e+01 
2.250760e+00 6.462228e+01 
2.286500e+00 6.311049e+01 
2.321770e+00 6.166493e+01 
2.355950e+00 6.030773e+01 
2.391280e+00 5.894186e+01 
2.426240e+00 5.763208e+01 
2.460670e+00 5.638187e+01 
2.495640e+00 5.515056e+01 
2.531080e+00 5.393546e+01 
2.566220e+00 5.276551e+01 
2.600830e+00 5.164743e+01 
2.635080e+00 5.057361e+01 
2.670340e+00 4.949735e+01 
2.705970e+00 4.844099e+01 
2.740040e+00 4.745935e+01 
2.774520e+00 4.649113e+01 
2.809730e+00 4.552924e+01 
2.844390e+00 4.460948e+01 
2.879960e+00 4.369196e+01 
2.914860e+00 4.281475e+01 
2.949410e+00 4.197011e+01 
2.984440e+00 4.113588e+01 
3.019760e+00 4.031636e+01 
3.054730e+00 3.952685e+01 
3.089030e+00 3.877203e+01 
3.124060e+00 3.802160e+01 
3.159560e+00 3.728064e+01 
3.194710e+00 3.656578e+01 
3.229010e+00 3.588680e+01 
3.263320e+00 3.522294e+01 
3.297930e+00 3.457044e+01 
3.332830e+00 3.392812e+01 
3.368040e+00 3.329676e+01 
3.403300e+00 3.268092e+01 
3.438450e+00 3.208162e+01 
3.473060e+00 3.150665e+01 
3.508440e+00 3.093173e+01 
3.543110e+00 3.038286e+01 
3.577470e+00 2.985204e+01 
3.613040e+00 2.931584e+01 
3.648120e+00 2.879851e+01 
3.682910e+00 2.829809e+01 
3.718050e+00 2.780476e+01 
3.753320e+00 2.732140e+01 
3.787980e+00 2.685727e+01 
3.822290e+00 2.640850e+01 
3.857020e+00 2.596455e+01 
3.891920e+00 2.552866e+01 
3.926650e+00 2.510443e+01 
3.961970e+00 2.468316e+01 
3.997360e+00 2.427097e+01 
4.031670e+00 2.388046e+01 
4.066330e+00 2.349421e+01 
4.101420e+00 2.311208e+01 
4.136200e+00 2.274150e+01 
4.170810e+00 2.238099e+01 
4.206250e+00 2.201978e+01 
4.241580e+00 2.166773e+01 
4.276300e+00 2.132940e+01 
4.310970e+00 2.099890e+01 
4.346120e+00 2.067103e+01 
4.380600e+00 2.035621e+01 
4.414730e+00 2.005115e+01 
4.450350e+00 1.973969e+01 
4.485320e+00 1.944044e+01 
4.519810e+00 1.915152e+01 
4.555430e+00 1.885939e+01 
4.590870e+00 1.857486e+01 
4.625480e+00 1.830271e+01 
4.659910e+00 1.803744e+01 
4.695230e+00 1.777129e+01 
4.729960e+00 1.751494e+01 
4.764450e+00 1.726546e+01 
4.799530e+00 1.701684e+01 
4.834910e+00 1.677107e+01 
4.869700e+00 1.653448e+01 
4.904370e+00 1.630332e+01 
4.939450e+00 1.607407e+01 
4.973940e+00 1.585329e+01 
5.008430e+00 1.563667e+01 
5.043810e+00 1.541885e+01 
5.078840e+00 1.520737e+01 
5.113500e+00 1.500203e+01 
5.148890e+00 1.479682e+01 
5.184210e+00 1.459587e+01 
5.219060e+00 1.440138e+01 
5.253660e+00 1.421212e+01 
5.288570e+00 1.402461e+01 
5.323420e+00 1.384098e+01 
5.358440e+00 1.365997e+01 
5.393590e+00 1.348154e+01 
5.428310e+00 1.330881e+01 
5.462800e+00 1.314042e+01 
5.497640e+00 1.297327e+01 
5.532670e+00 1.280857e+01 
5.567280e+00 1.264878e+01 
5.602000e+00 1.249121e+01 
5.637270e+00 1.233423e+01 
5.672410e+00 1.218059e+01 
5.707020e+00 1.203182e+01 
5.742040e+00 1.188432e+01 
5.777430e+00 1.173787e+01 
5.812210e+00 1.159633e+01 
5.846820e+00 1.145809e+01 
5.881610e+00 1.132146e+01 
5.916510e+00 1.118663e+01 
5.951600e+00 1.105364e+01 
5.986560e+00 1.092345e+01 
6.021830e+00 1.079422e+01 
6.056490e+00 1.066956e+01 
6.091160e+00 1.054708e+01 
6.125830e+00 1.042652e+01 
6.161090e+00 1.030596e+01 
6.195760e+00 1.018956e+01 
6.230420e+00 1.007498e+01 
6.265690e+00 9.960192e+00 
6.300950e+00 9.847702e+00 
6.335620e+00 9.738778e+00 
6.370880e+00 9.629681e+00 
6.405550e+00 9.524320e+00 
6.440220e+00 9.420645e+00 
6.475480e+00 9.316779e+00 
6.510150e+00 9.216308e+00 
6.544810e+00 9.117656e+00 
6.580080e+00 9.018741e+00 
6.614750e+00 8.922929e+00 
6.649410e+00 8.828876e+00 
6.684080e+00 8.736213e+00 
6.719340e+00 8.643328e+00 
6.754010e+00 8.553439e+00 
6.788680e+00 8.465135e+00 
6.823940e+00 8.376599e+00 
6.859800e+00 8.287846e+00 
6.894470e+00 8.203505e+00 
6.929140e+00 8.120421e+00 
6.963800e+00 8.038504e+00 
6.999070e+00 7.956320e+00 
7.033730e+00 7.876995e+00 
7.068400e+00 7.798724e+00 
7.103660e+00 7.720203e+00 
7.138330e+00 7.644157e+00 
7.173600e+00 7.568074e+00 
7.208260e+00 7.494310e+00 
7.243530e+00 7.420250e+00 
7.277600e+00 7.349812e+00 
7.312860e+00 7.278017e+00 
7.348120e+00 7.207175e+00 
7.382790e+00 7.138430e+00 
7.417460e+00 7.070832e+00 
7.452720e+00 7.003109e+00 
7.487390e+00 6.937379e+00 
7.522650e+00 6.871389e+00 
7.557320e+00 6.807511e+00 
7.591990e+00 6.744505e+00 
7.627250e+00 6.681240e+00 
7.662510e+00 6.618780e+00 
7.697180e+00 6.558354e+00 
7.731850e+00 6.498761e+00 
7.766510e+00 6.439920e+00 
7.801180e+00 6.381786e+00 
7.836440e+00 6.323538e+00 
7.871110e+00 6.267058e+00 
7.906380e+00 6.210304e+00 
7.941040e+00 6.155211e+00 
7.976310e+00 6.099937e+00 
8.011570e+00 6.045480e+00 
8.046240e+00 5.992577e+00 
8.080900e+00 5.940318e+00 
8.115570e+00 5.888711e+00 
8.150830e+00 5.837034e+00 
8.185500e+00 5.786822e+00 
8.220770e+00 5.736343e+00 
8.255430e+00 5.687319e+00 
8.290100e+00 5.639064e+00 
8.324770e+00 5.591390e+00 
8.359430e+00 5.544277e+00 
8.394700e+00 5.496888e+00 
8.429960e+00 5.450163e+00 
8.464630e+00 5.404849e+00 
8.499890e+00 5.359288e+00 
8.534560e+00 5.314998e+00 
8.569200e+00 5.271243e+00 
