# Parameters:
# omega_b = 0.022114, omega_m = 0.147008, n_s = 0.876772, h = 82.165354, w = -1.000000, sigma_8 = 0.761417
# z = 1.300000
#
# k[1/Mpc] # P(k):
8.694000e-04 4.744564e+03 
2.077466e-03 9.420115e+03 
3.285532e-03 1.287795e+04 
4.493598e-03 1.543988e+04 
5.701664e-03 1.727945e+04 
6.909730e-03 1.853688e+04 
8.117797e-03 1.935200e+04 
9.325863e-03 1.979696e+04 
1.053393e-02 1.993993e+04 
1.174199e-02 1.984065e+04 
1.295006e-02 1.953781e+04 
1.415813e-02 1.908114e+04 
1.536619e-02 1.851063e+04 
1.657426e-02 1.784984e+04 
1.778233e-02 1.710415e+04 
1.899039e-02 1.629645e+04 
2.019846e-02 1.548258e+04 
2.140652e-02 1.470515e+04 
2.261459e-02 1.396360e+04 
2.382266e-02 1.326120e+04 
2.503072e-02 1.260463e+04 
2.623879e-02 1.199665e+04 
2.744685e-02 1.143793e+04 
2.865492e-02 1.092997e+04 
2.986299e-02 1.047061e+04 
3.100100e-02 1.008111e+04 
3.220400e-02 9.711865e+03 
3.288100e-02 9.522934e+03 
3.424300e-02 9.178795e+03 
3.555100e-02 8.887648e+03 
3.686000e-02 8.630123e+03 
3.795000e-02 8.436680e+03 
3.929100e-02 8.221454e+03 
4.039800e-02 8.057187e+03 
4.164000e-02 7.882971e+03 
4.294400e-02 7.705440e+03 
4.415000e-02 7.544428e+03 
4.542900e-02 7.369883e+03 
4.660900e-02 7.207113e+03 
4.782300e-02 7.029286e+03 
4.892900e-02 6.862851e+03 
5.031200e-02 6.645750e+03 
5.155900e-02 6.440802e+03 
5.238100e-02 6.302194e+03 
5.378200e-02 6.061192e+03 
5.513400e-02 5.822779e+03 
5.627600e-02 5.618514e+03 
5.735300e-02 5.424907e+03 
5.870100e-02 5.182584e+03 
5.988700e-02 4.971895e+03 
6.113500e-02 4.754939e+03 
6.225900e-02 4.566761e+03 
6.340100e-02 4.385868e+03 
6.480200e-02 4.180741e+03 
6.601100e-02 4.022209e+03 
6.725500e-02 3.877195e+03 
6.829100e-02 3.771495e+03 
6.958600e-02 3.654204e+03 
7.071100e-02 3.566079e+03 
7.192300e-02 3.482851e+03 
7.307400e-02 3.413535e+03 
7.412300e-02 3.357313e+03 
7.550400e-02 3.292509e+03 
7.663100e-02 3.244954e+03 
7.791200e-02 3.196538e+03 
7.912700e-02 3.153990e+03 
8.027600e-02 3.115419e+03 
8.138400e-02 3.078998e+03 
8.272200e-02 3.035061e+03 
8.406100e-02 2.990168e+03 
8.534100e-02 2.944807e+03 
8.653800e-02 2.899657e+03 
8.759800e-02 2.858004e+03 
8.900300e-02 2.799832e+03 
9.009000e-02 2.752106e+03 
9.113300e-02 2.703786e+03 
9.239600e-02 2.643796e+03 
9.358000e-02 2.585485e+03 
9.496100e-02 2.514810e+03 
9.608400e-02 2.456857e+03 
9.727500e-02 2.395518e+03 
9.852600e-02 2.329950e+03 
9.973800e-02 2.267807e+03 
1.009000e-01 2.209561e+03 
1.020900e-01 2.151553e+03 
1.034000e-01 2.090368e+03 
1.046000e-01 2.036789e+03 
1.057200e-01 1.990210e+03 
1.069100e-01 1.943084e+03 
1.082500e-01 1.894516e+03 
1.093900e-01 1.856628e+03 
1.105400e-01 1.820708e+03 
1.116900e-01 1.789047e+03 
1.129600e-01 1.756201e+03 
1.142000e-01 1.728050e+03 
1.153300e-01 1.704222e+03 
1.166400e-01 1.679119e+03 
1.177800e-01 1.659229e+03 
1.190000e-01 1.639114e+03 
1.201200e-01 1.621973e+03 
1.213400e-01 1.603903e+03 
1.227100e-01 1.584307e+03 
1.238900e-01 1.567699e+03 
1.250700e-01 1.550887e+03 
1.263200e-01 1.533041e+03 
1.275500e-01 1.514883e+03 
1.287500e-01 1.496829e+03 
1.299900e-01 1.477416e+03 
1.311300e-01 1.459099e+03 
1.323500e-01 1.438623e+03 
1.335900e-01 1.417371e+03 
1.347100e-01 1.397388e+03 
1.359800e-01 1.374544e+03 
1.372100e-01 1.351549e+03 
1.384300e-01 1.328823e+03 
1.395700e-01 1.306982e+03 
1.407700e-01 1.284425e+03 
1.420300e-01 1.260347e+03 
1.432800e-01 1.237051e+03 
1.444500e-01 1.215448e+03 
1.456300e-01 1.194162e+03 
1.468900e-01 1.172331e+03 
1.480500e-01 1.152806e+03 
1.491700e-01 1.134782e+03 
1.503800e-01 1.116269e+03 
1.516400e-01 1.097687e+03 
1.528200e-01 1.081809e+03 
1.540200e-01 1.065996e+03 
1.551900e-01 1.052089e+03 
1.564300e-01 1.037935e+03 
1.576600e-01 1.024776e+03 
1.588700e-01 1.012804e+03 
1.600900e-01 1.001012e+03 
1.612700e-01 9.907214e+02 
1.625400e-01 9.798524e+02 
1.637600e-01 9.698600e+02 
1.649500e-01 9.604363e+02 
1.662200e-01 9.505466e+02 
1.674000e-01 9.414377e+02 
1.685000e-01 9.330876e+02 
1.697500e-01 9.234937e+02 
1.710300e-01 9.135828e+02 
1.722200e-01 9.045324e+02 
1.734400e-01 8.946687e+02 
1.746400e-01 8.851048e+02 
1.758700e-01 8.752180e+02 
1.770900e-01 8.650663e+02 
1.782700e-01 8.554175e+02 
1.794600e-01 8.454777e+02 
1.807000e-01 8.350502e+02 
1.819100e-01 8.250552e+02 
1.830100e-01 8.158109e+02 
1.842200e-01 8.057592e+02 
1.855000e-01 7.953118e+02 
1.867000e-01 7.855774e+02 
1.879200e-01 7.758523e+02 
1.890900e-01 7.667001e+02 
1.902800e-01 7.576286e+02 
1.915200e-01 7.483368e+02 
1.926900e-01 7.397754e+02 
1.939000e-01 7.312574e+02 
1.951700e-01 7.224679e+02 
1.963100e-01 7.147848e+02 
1.975100e-01 7.070322e+02 
1.987800e-01 6.989611e+02 
2.000100e-01 6.913563e+02 
2.012500e-01 6.840071e+02 
2.023400e-01 6.776433e+02 
2.036100e-01 6.703832e+02 
2.048900e-01 6.633511e+02 
2.060400e-01 6.571290e+02 
2.072200e-01 6.508462e+02 
2.084200e-01 6.446656e+02 
2.096900e-01 6.382229e+02 
2.109200e-01 6.320777e+02 
2.121100e-01 6.262594e+02 
2.132700e-01 6.206697e+02 
2.145200e-01 6.147326e+02 
2.157200e-01 6.091181e+02 
2.168800e-01 6.037673e+02 
2.180700e-01 5.983536e+02 
2.193400e-01 5.926540e+02 
2.206000e-01 5.870732e+02 
2.217500e-01 5.820504e+02 
2.229500e-01 5.768799e+02 
2.241400e-01 5.718171e+02 
2.253500e-01 5.667392e+02 
2.264900e-01 5.620186e+02 
2.277100e-01 5.570448e+02 
2.289900e-01 5.519116e+02 
2.301500e-01 5.473227e+02 
2.313600e-01 5.425991e+02 
2.325600e-01 5.380248e+02 
2.337700e-01 5.334729e+02 
2.350000e-01 5.289071e+02 
2.362000e-01 5.245413e+02 
2.374100e-01 5.202319e+02 
2.386500e-01 5.158733e+02 
2.399100e-01 5.115029e+02 
2.410400e-01 5.076909e+02 
2.422500e-01 5.036662e+02 
2.435000e-01 4.995616e+02 
2.447300e-01 4.955856e+02 
2.458700e-01 4.919901e+02 
2.470600e-01 4.882815e+02 
2.483300e-01 4.843729e+02 
2.495600e-01 4.806479e+02 
2.507600e-01 4.770752e+02 
2.519600e-01 4.735453e+02 
2.532200e-01 4.698843e+02 
2.543700e-01 4.665853e+02 
2.555500e-01 4.632408e+02 
2.568000e-01 4.597402e+02 
2.580100e-01 4.563922e+02 
2.592400e-01 4.530163e+02 
2.604100e-01 4.498368e+02 
2.616100e-01 4.466130e+02 
2.628400e-01 4.433471e+02 
2.640600e-01 4.401216e+02 
2.652200e-01 4.370799e+02 
2.664300e-01 4.339428e+02 
2.676500e-01 4.308160e+02 
2.688400e-01 4.277765e+02 
2.700700e-01 4.246552e+02 
2.712400e-01 4.217196e+02 
2.724800e-01 4.186432e+02 
2.736700e-01 4.157077e+02 
2.748800e-01 4.127390e+02 
2.761000e-01 4.097794e+02 
2.773200e-01 4.068529e+02 
2.785400e-01 4.039498e+02 
2.797000e-01 4.012002e+02 
2.808900e-01 3.984095e+02 
2.821400e-01 3.955106e+02 
2.833900e-01 3.926433e+02 
2.845500e-01 3.899899e+02 
2.857800e-01 3.872064e+02 
2.870300e-01 3.844090e+02 
2.882100e-01 3.817968e+02 
2.893900e-01 3.792031e+02 
2.906300e-01 3.765020e+02 
2.918900e-01 3.737875e+02 
2.930500e-01 3.713149e+02 
2.942500e-01 3.687814e+02 
2.954200e-01 3.663301e+02 
2.966500e-01 3.637799e+02 
2.978900e-01 3.612364e+02 
2.990400e-01 3.589017e+02 
3.002700e-01 3.564269e+02 
3.015100e-01 3.539568e+02 
3.026800e-01 3.516499e+02 
3.038500e-01 3.493660e+02 
3.050300e-01 3.470853e+02 
3.062600e-01 3.447309e+02 
3.075000e-01 3.423819e+02 
3.087000e-01 3.401318e+02 
3.099100e-01 3.378856e+02 
3.111200e-01 3.356635e+02 
3.123100e-01 3.335022e+02 
3.135300e-01 3.313084e+02 
3.147300e-01 3.291719e+02 
3.159900e-01 3.269511e+02 
3.171800e-01 3.248776e+02 
3.183700e-01 3.228261e+02 
3.196300e-01 3.206754e+02 
3.208400e-01 3.186305e+02 
3.220300e-01 3.166386e+02 
3.232000e-01 3.147040e+02 
3.244300e-01 3.126916e+02 
3.256700e-01 3.106827e+02 
3.269200e-01 3.086774e+02 
3.280800e-01 3.068341e+02 
3.292500e-01 3.049990e+02 
3.304800e-01 3.030899e+02 
3.317100e-01 3.011991e+02 
3.328900e-01 2.994020e+02 
3.340700e-01 2.976212e+02 
3.353600e-01 2.957010e+02 
3.365300e-01 2.939788e+02 
3.377100e-01 2.922575e+02 
3.389200e-01 2.905083e+02 
3.401600e-01 2.887324e+02 
3.413700e-01 2.870228e+02 
3.425300e-01 2.854037e+02 
3.437700e-01 2.836883e+02 
3.449800e-01 2.820297e+02 
3.461800e-01 2.803995e+02 
3.473600e-01 2.788139e+02 
3.485800e-01 2.771973e+02 
3.498100e-01 2.755821e+02 
3.510200e-01 2.740072e+02 
3.522000e-01 2.724848e+02 
3.533900e-01 2.709626e+02 
3.546400e-01 2.693890e+02 
3.558400e-01 2.678922e+02 
3.570600e-01 2.663836e+02 
3.582700e-01 2.649004e+02 
3.595000e-01 2.634058e+02 
3.607100e-01 2.619540e+02 
3.618900e-01 2.605548e+02 
3.631200e-01 2.591087e+02 
3.643200e-01 2.577099e+02 
3.655500e-01 2.562883e+02 
3.667300e-01 2.549359e+02 
3.679500e-01 2.535605e+02 
3.691900e-01 2.521745e+02 
3.703600e-01 2.508776e+02 
3.715700e-01 2.495472e+02 
3.727700e-01 2.482387e+02 
3.739900e-01 2.469230e+02 
3.752000e-01 2.456351e+02 
3.763900e-01 2.443788e+02 
3.775800e-01 2.431326e+02 
3.788200e-01 2.418446e+02 
3.800300e-01 2.405981e+02 
3.812100e-01 2.393968e+02 
3.824200e-01 2.381780e+02 
3.836100e-01 2.369889e+02 
3.848600e-01 2.357499e+02 
3.860400e-01 2.345896e+02 
3.872400e-01 2.334188e+02 
3.884600e-01 2.322441e+02 
3.896500e-01 2.311095e+02 
3.908700e-01 2.299554e+02 
3.920600e-01 2.288385e+02 
3.933100e-01 2.276745e+02 
3.945300e-01 2.265474e+02 
3.957200e-01 2.254622e+02 
3.969300e-01 2.243689e+02 
3.981700e-01 2.232572e+02 
3.993500e-01 2.222074e+02 
4.094840e-01 2.135315e+02 
4.272360e-01 1.997200e+02 
4.454600e-01 1.870826e+02 
4.630560e-01 1.761361e+02 
4.804610e-01 1.663539e+02 
4.980690e-01 1.573725e+02 
5.159230e-01 1.490887e+02 
5.317440e-01 1.423577e+02 
5.489640e-01 1.356175e+02 
5.671990e-01 1.290741e+02 
5.838690e-01 1.235659e+02 
6.018840e-01 1.180717e+02 
6.202330e-01 1.129224e+02 
6.379250e-01 1.083284e+02 
6.545410e-01 1.043304e+02 
6.714560e-01 1.005311e+02 
6.892080e-01 9.681718e+01 
7.066010e-01 9.342816e+01 
7.240540e-01 9.024624e+01 
7.420450e-01 8.718480e+01 
7.593780e-01 8.442310e+01 
7.764720e-01 8.186014e+01 
7.942840e-01 7.934896e+01 
8.116170e-01 7.704967e+01 
8.288310e-01 7.489679e+01 
8.462240e-01 7.283924e+01 
8.631980e-01 7.093794e+01 
8.810700e-01 6.904032e+01 
8.989410e-01 6.724277e+01 
9.166330e-01 6.555329e+01 
9.345640e-01 6.392564e+01 
9.515980e-01 6.245359e+01 
9.688720e-01 6.102849e+01 
9.865640e-01 5.963560e+01 
1.031870e+00 5.633847e+01 
1.063490e+00 5.424267e+01 
1.097920e+00 5.212952e+01 
1.134370e+00 5.005816e+01 
1.167730e+00 4.829800e+01 
1.203830e+00 4.652099e+01 
1.240470e+00 4.483950e+01 
1.275790e+00 4.332204e+01 
1.309140e+00 4.197558e+01 
1.342970e+00 4.068396e+01 
1.378420e+00 3.940724e+01 
1.413200e+00 3.822283e+01 
1.448110e+00 3.709520e+01 
1.484090e+00 3.599468e+01 
1.518820e+00 3.498503e+01 
1.552880e+00 3.404117e+01 
1.588630e+00 3.309632e+01 
1.623230e+00 3.222483e+01 
1.657720e+00 3.139443e+01 
1.692450e+00 3.059453e+01 
1.726400e+00 2.984390e+01 
1.762200e+00 2.908486e+01 
1.797880e+00 2.836044e+01 
1.833270e+00 2.767094e+01 
1.869070e+00 2.700081e+01 
1.903200e+00 2.638654e+01 
1.937740e+00 2.578758e+01 
1.973190e+00 2.519520e+01 
2.007440e+00 2.464344e+01 
2.042160e+00 2.410372e+01 
2.077900e+00 2.356743e+01 
2.112390e+00 2.306774e+01 
2.146220e+00 2.259316e+01 
2.181600e+00 2.211321e+01 
2.216930e+00 2.164972e+01 
2.250760e+00 2.121997e+01 
2.286500e+00 2.078025e+01 
2.321770e+00 2.036007e+01 
2.355950e+00 1.996514e+01 
2.391280e+00 1.956866e+01 
2.426240e+00 1.918801e+01 
2.460670e+00 1.882430e+01 
2.495640e+00 1.846587e+01 
2.531080e+00 1.811233e+01 
2.566220e+00 1.777176e+01 
2.600830e+00 1.744583e+01 
2.635080e+00 1.713225e+01 
2.670340e+00 1.681720e+01 
2.705970e+00 1.650784e+01 
2.740040e+00 1.622016e+01 
2.774520e+00 1.593606e+01 
2.809730e+00 1.565325e+01 
2.844390e+00 1.538223e+01 
2.879960e+00 1.511091e+01 
2.914860e+00 1.485132e+01 
2.949410e+00 1.460099e+01 
2.984440e+00 1.435292e+01 
3.019760e+00 1.410907e+01 
3.054730e+00 1.387388e+01 
3.089030e+00 1.364770e+01 
3.124060e+00 1.342247e+01 
3.159560e+00 1.319967e+01 
3.194710e+00 1.298399e+01 
3.229010e+00 1.277870e+01 
3.263320e+00 1.257711e+01 
3.297930e+00 1.237867e+01 
3.332830e+00 1.218297e+01 
3.368040e+00 1.198981e+01 
3.403300e+00 1.180077e+01 
3.438450e+00 1.161614e+01 
3.473060e+00 1.143869e+01 
3.508440e+00 1.126063e+01 
3.543110e+00 1.109026e+01 
3.577470e+00 1.092438e+01 
3.613040e+00 1.075661e+01 
3.648120e+00 1.059448e+01 
3.682910e+00 1.043712e+01 
3.718050e+00 1.028116e+01 
3.753320e+00 1.012799e+01 
3.787980e+00 9.980472e+00 
3.822290e+00 9.837397e+00 
3.857020e+00 9.695265e+00 
3.891920e+00 9.555337e+00 
3.926650e+00 9.418607e+00 
3.961970e+00 9.282434e+00 
3.997360e+00 9.148468e+00 
4.031670e+00 9.021327e+00 
4.066330e+00 8.895131e+00 
4.101420e+00 8.770112e+00 
4.136200e+00 8.648050e+00 
4.170810e+00 8.529170e+00 
4.206250e+00 8.409523e+00 
4.241580e+00 8.292704e+00 
4.276300e+00 8.179864e+00 
4.310970e+00 8.069266e+00 
4.346120e+00 7.959259e+00 
4.380600e+00 7.853236e+00 
4.414730e+00 7.750375e+00 
4.450350e+00 7.644639e+00 
4.485320e+00 7.542941e+00 
4.519810e+00 7.444255e+00 
4.555430e+00 7.344196e+00 
4.590870e+00 7.246516e+00 
4.625480e+00 7.152745e+00 
4.659910e+00 7.061254e+00 
4.695230e+00 6.968806e+00 
4.729960e+00 6.879590e+00 
4.764450e+00 6.792507e+00 
4.799530e+00 6.705339e+00 
4.834910e+00 6.619096e+00 
4.869700e+00 6.535624e+00 
4.904370e+00 6.453937e+00 
4.939450e+00 6.372733e+00 
4.973940e+00 6.294159e+00 
5.008430e+00 6.217003e+00 
5.043810e+00 6.139096e+00 
5.078840e+00 6.063249e+00 
5.113500e+00 5.989546e+00 
5.148890e+00 5.915371e+00 
5.184210e+00 5.842661e+00 
5.219060e+00 5.772141e+00 
5.253660e+00 5.703214e+00 
5.288570e+00 5.634876e+00 
5.323420e+00 5.567751e+00 
5.358440e+00 5.501367e+00 
5.393590e+00 5.435883e+00 
5.428310e+00 5.372187e+00 
5.462800e+00 5.309915e+00 
5.497640e+00 5.248062e+00 
5.532670e+00 5.186800e+00 
5.567280e+00 5.127242e+00 
5.602000e+00 5.068476e+00 
5.637270e+00 5.009689e+00 
5.672410e+00 4.952068e+00 
5.707020e+00 4.896240e+00 
5.742040e+00 4.840588e+00 
5.777430e+00 4.785247e+00 
5.812210e+00 4.731736e+00 
5.846820e+00 4.679266e+00 
5.881610e+00 4.627338e+00 
5.916510e+00 4.576066e+00 
5.951600e+00 4.525275e+00 
5.986560e+00 4.475442e+00 
6.021830e+00 4.425953e+00 
6.056490e+00 4.378059e+00 
6.091160e+00 4.330871e+00 
6.125830e+00 4.284400e+00 
6.161090e+00 4.237855e+00 
6.195760e+00 4.192775e+00 
6.230420e+00 4.148383e+00 
6.265690e+00 4.103887e+00 
6.300950e+00 4.060049e+00 
6.335620e+00 4.017584e+00 
6.370880e+00 3.975036e+00 
6.405550e+00 3.933830e+00 
6.440220e+00 3.893227e+00 
6.475480e+00 3.852534e+00 
6.510150e+00 3.813101e+00 
6.544810e+00 3.774237e+00 
6.580080e+00 3.735258e+00 
6.614750e+00 3.697490e+00 
6.649410e+00 3.660306e+00 
6.684080e+00 3.623641e+00 
6.719340e+00 3.586877e+00 
6.754010e+00 3.551243e+00 
6.788680e+00 3.516118e+00 
6.823940e+00 3.480892e+00 
6.859800e+00 3.445569e+00 
6.894470e+00 3.411924e+00 
6.929140e+00 3.378746e+00 
6.963800e+00 3.346026e+00 
6.999070e+00 3.313185e+00 
7.033730e+00 3.281392e+00 
7.068400e+00 3.250015e+00 
7.103660e+00 3.218530e+00 
7.138330e+00 3.188004e+00 
7.173600e+00 3.157404e+00 
7.208260e+00 3.127730e+00 
7.243530e+00 3.097930e+00 
7.277600e+00 3.069545e+00 
7.312860e+00 3.040573e+00 
7.348120e+00 3.011978e+00 
7.382790e+00 2.984226e+00 
7.417460e+00 2.956866e+00 
7.452720e+00 2.929417e+00 
7.487390e+00 2.902771e+00 
7.522650e+00 2.876016e+00 
7.557320e+00 2.850095e+00 
7.591990e+00 2.824517e+00 
7.627250e+00 2.798830e+00 
7.662510e+00 2.773465e+00 
7.697180e+00 2.748884e+00 
7.731850e+00 2.724624e+00 
7.766510e+00 2.700665e+00 
7.801180e+00 2.676991e+00 
7.836440e+00 2.653258e+00 
7.871110e+00 2.630238e+00 
7.906380e+00 2.607102e+00 
7.941040e+00 2.584640e+00 
7.976310e+00 2.562082e+00 
8.011570e+00 2.539834e+00 
8.046240e+00 2.518217e+00 
8.080900e+00 2.496860e+00 
8.115570e+00 2.475764e+00 
8.150830e+00 2.454630e+00 
8.185500e+00 2.434093e+00 
8.220770e+00 2.413443e+00 
8.255430e+00 2.393385e+00 
8.290100e+00 2.373611e+00 
8.324770e+00 2.354069e+00 
8.359430e+00 2.334755e+00 
8.394700e+00 2.315324e+00 
8.429960e+00 2.296164e+00 
8.464630e+00 2.277579e+00 
8.499890e+00 2.258891e+00 
8.534560e+00 2.240722e+00 
8.569200e+00 2.222769e+00 
