# Parameters:
# omega_b = 0.022020, omega_m = 0.147835, n_s = 0.942913, h = 76.259843, w = -1.000000, sigma_8 = 0.813386
# z = 1.300000
#
# k[1/Mpc] # P(k):
8.694000e-04 4.048875e+03 
2.077466e-03 8.523318e+03 
3.285532e-03 1.201142e+04 
4.493598e-03 1.470807e+04 
5.701664e-03 1.673043e+04 
6.909730e-03 1.818724e+04 
8.117797e-03 1.920034e+04 
9.325863e-03 1.983270e+04 
1.053393e-02 2.014717e+04 
1.174199e-02 2.020118e+04 
1.295006e-02 2.003175e+04 
1.415813e-02 1.968855e+04 
1.536619e-02 1.921291e+04 
1.657426e-02 1.863046e+04 
1.778233e-02 1.795296e+04 
1.899039e-02 1.720906e+04 
2.019846e-02 1.644646e+04 
2.140652e-02 1.570343e+04 
2.261459e-02 1.498349e+04 
2.382266e-02 1.429402e+04 
2.503072e-02 1.364406e+04 
2.623879e-02 1.303780e+04 
2.744685e-02 1.247679e+04 
2.865492e-02 1.196393e+04 
2.986299e-02 1.149792e+04 
3.100100e-02 1.110107e+04 
3.220400e-02 1.072350e+04 
3.288100e-02 1.052973e+04 
3.424300e-02 1.017591e+04 
3.555100e-02 9.875653e+03 
3.686000e-02 9.609328e+03 
3.795000e-02 9.408820e+03 
3.929100e-02 9.185152e+03 
4.039800e-02 9.014112e+03 
4.164000e-02 8.832344e+03 
4.294400e-02 8.646694e+03 
4.415000e-02 8.478100e+03 
4.542900e-02 8.295008e+03 
4.660900e-02 8.124050e+03 
4.782300e-02 7.936954e+03 
4.892900e-02 7.761610e+03 
5.031200e-02 7.532517e+03 
5.155900e-02 7.315730e+03 
5.238100e-02 7.168859e+03 
5.378200e-02 6.913031e+03 
5.513400e-02 6.659471e+03 
5.627600e-02 6.442025e+03 
5.735300e-02 6.235945e+03 
5.870100e-02 5.978219e+03 
5.988700e-02 5.754360e+03 
6.113500e-02 5.523822e+03 
6.225900e-02 5.323472e+03 
6.340100e-02 5.130024e+03 
6.480200e-02 4.909109e+03 
6.601100e-02 4.736373e+03 
6.725500e-02 4.576383e+03 
6.829100e-02 4.458057e+03 
6.958600e-02 4.325203e+03 
7.071100e-02 4.223954e+03 
7.192300e-02 4.127225e+03 
7.307400e-02 4.045828e+03 
7.412300e-02 3.979299e+03 
7.550400e-02 3.902089e+03 
7.663100e-02 3.845261e+03 
7.791200e-02 3.787452e+03 
7.912700e-02 3.736987e+03 
8.027600e-02 3.691639e+03 
8.138400e-02 3.649229e+03 
8.272200e-02 3.598686e+03 
8.406100e-02 3.547684e+03 
8.534100e-02 3.496785e+03 
8.653800e-02 3.446505e+03 
8.759800e-02 3.400277e+03 
8.900300e-02 3.335864e+03 
9.009000e-02 3.283050e+03 
9.113300e-02 3.229513e+03 
9.239600e-02 3.162947e+03 
9.358000e-02 3.098080e+03 
9.496100e-02 3.019169e+03 
9.608400e-02 2.954258e+03 
9.727500e-02 2.885378e+03 
9.852600e-02 2.811384e+03 
9.973800e-02 2.741036e+03 
1.009000e-01 2.674911e+03 
1.020900e-01 2.608678e+03 
1.034000e-01 2.538582e+03 
1.046000e-01 2.476964e+03 
1.057200e-01 2.423027e+03 
1.069100e-01 2.368286e+03 
1.082500e-01 2.311443e+03 
1.093900e-01 2.266805e+03 
1.105400e-01 2.224306e+03 
1.116900e-01 2.186439e+03 
1.129600e-01 2.147005e+03 
1.142000e-01 2.112837e+03 
1.153300e-01 2.083787e+03 
1.166400e-01 2.052976e+03 
1.177800e-01 2.028448e+03 
1.190000e-01 2.003585e+03 
1.201200e-01 1.982413e+03 
1.213400e-01 1.960095e+03 
1.227100e-01 1.936130e+03 
1.238900e-01 1.915899e+03 
1.250700e-01 1.895681e+03 
1.263200e-01 1.874344e+03 
1.275500e-01 1.852904e+03 
1.287500e-01 1.831728e+03 
1.299900e-01 1.809173e+03 
1.311300e-01 1.787997e+03 
1.323500e-01 1.764474e+03 
1.335900e-01 1.740123e+03 
1.347100e-01 1.717307e+03 
1.359800e-01 1.691238e+03 
1.372100e-01 1.665033e+03 
1.384300e-01 1.639111e+03 
1.395700e-01 1.614171e+03 
1.407700e-01 1.588386e+03 
1.420300e-01 1.560767e+03 
1.432800e-01 1.534021e+03 
1.444500e-01 1.509073e+03 
1.456300e-01 1.484471e+03 
1.468900e-01 1.459086e+03 
1.480500e-01 1.436324e+03 
1.491700e-01 1.415218e+03 
1.503800e-01 1.393418e+03 
1.516400e-01 1.371485e+03 
1.528200e-01 1.352559e+03 
1.540200e-01 1.333702e+03 
1.551900e-01 1.316948e+03 
1.564300e-01 1.299848e+03 
1.576600e-01 1.283868e+03 
1.588700e-01 1.269227e+03 
1.600900e-01 1.254798e+03 
1.612700e-01 1.242095e+03 
1.625400e-01 1.228677e+03 
1.637600e-01 1.216324e+03 
1.649500e-01 1.204663e+03 
1.662200e-01 1.192436e+03 
1.674000e-01 1.181229e+03 
1.685000e-01 1.170955e+03 
1.697500e-01 1.159213e+03 
1.710300e-01 1.147145e+03 
1.722200e-01 1.136123e+03 
1.734400e-01 1.124252e+03 
1.746400e-01 1.112746e+03 
1.758700e-01 1.100888e+03 
1.770900e-01 1.088786e+03 
1.782700e-01 1.077281e+03 
1.794600e-01 1.065472e+03 
1.807000e-01 1.053111e+03 
1.819100e-01 1.041257e+03 
1.830100e-01 1.030313e+03 
1.842200e-01 1.018413e+03 
1.855000e-01 1.006038e+03 
1.867000e-01 9.944976e+02 
1.879200e-01 9.829632e+02 
1.890900e-01 9.720984e+02 
1.902800e-01 9.612977e+02 
1.915200e-01 9.502301e+02 
1.926900e-01 9.400178e+02 
1.939000e-01 9.298191e+02 
1.951700e-01 9.192914e+02 
1.963100e-01 9.100734e+02 
1.975100e-01 9.007362e+02 
1.987800e-01 8.910124e+02 
2.000100e-01 8.818368e+02 
2.012500e-01 8.729422e+02 
2.023400e-01 8.652383e+02 
2.036100e-01 8.564425e+02 
2.048900e-01 8.479018e+02 
2.060400e-01 8.403432e+02 
2.072200e-01 8.327086e+02 
2.084200e-01 8.251877e+02 
2.096900e-01 8.173464e+02 
2.109200e-01 8.098655e+02 
2.121100e-01 8.027781e+02 
2.132700e-01 7.959676e+02 
2.145200e-01 7.887326e+02 
2.157200e-01 7.818884e+02 
2.168800e-01 7.753640e+02 
2.180700e-01 7.687618e+02 
2.193400e-01 7.618051e+02 
2.206000e-01 7.549843e+02 
2.217500e-01 7.488442e+02 
2.229500e-01 7.425224e+02 
2.241400e-01 7.363127e+02 
2.253500e-01 7.300830e+02 
2.264900e-01 7.242905e+02 
2.277100e-01 7.181705e+02 
2.289900e-01 7.118356e+02 
2.301500e-01 7.061715e+02 
2.313600e-01 7.003399e+02 
2.325600e-01 6.946529e+02 
2.337700e-01 6.889931e+02 
2.350000e-01 6.833152e+02 
2.362000e-01 6.778671e+02 
2.374100e-01 6.724669e+02 
2.386500e-01 6.670045e+02 
2.399100e-01 6.615268e+02 
2.410400e-01 6.567185e+02 
2.422500e-01 6.516378e+02 
2.435000e-01 6.464559e+02 
2.447300e-01 6.414316e+02 
2.458700e-01 6.368705e+02 
2.470600e-01 6.321657e+02 
2.483300e-01 6.272071e+02 
2.495600e-01 6.224778e+02 
2.507600e-01 6.179376e+02 
2.519600e-01 6.134516e+02 
2.532200e-01 6.087986e+02 
2.543700e-01 6.046106e+02 
2.555500e-01 6.003681e+02 
2.568000e-01 5.959272e+02 
2.580100e-01 5.916797e+02 
2.592400e-01 5.874107e+02 
2.604100e-01 5.833958e+02 
2.616100e-01 5.793248e+02 
2.628400e-01 5.752003e+02 
2.640600e-01 5.711451e+02 
2.652200e-01 5.673280e+02 
2.664300e-01 5.633909e+02 
2.676500e-01 5.594664e+02 
2.688400e-01 5.556673e+02 
2.700700e-01 5.517759e+02 
2.712400e-01 5.481154e+02 
2.724800e-01 5.442790e+02 
2.736700e-01 5.406290e+02 
2.748800e-01 5.369488e+02 
2.761000e-01 5.332793e+02 
2.773200e-01 5.296504e+02 
2.785400e-01 5.260556e+02 
2.797000e-01 5.226620e+02 
2.808900e-01 5.192173e+02 
2.821400e-01 5.156383e+02 
2.833900e-01 5.120985e+02 
2.845500e-01 5.088342e+02 
2.857800e-01 5.054094e+02 
2.870300e-01 5.019668e+02 
2.882100e-01 4.987516e+02 
2.893900e-01 4.955641e+02 
2.906300e-01 4.922468e+02 
2.918900e-01 4.889124e+02 
2.930500e-01 4.858747e+02 
2.942500e-01 4.827625e+02 
2.954200e-01 4.797542e+02 
2.966500e-01 4.766238e+02 
2.978900e-01 4.735011e+02 
2.990400e-01 4.706342e+02 
3.002700e-01 4.675960e+02 
3.015100e-01 4.645636e+02 
3.026800e-01 4.617311e+02 
3.038500e-01 4.589262e+02 
3.050300e-01 4.561249e+02 
3.062600e-01 4.532328e+02 
3.075000e-01 4.503468e+02 
3.087000e-01 4.475819e+02 
3.099100e-01 4.448212e+02 
3.111200e-01 4.420892e+02 
3.123100e-01 4.394309e+02 
3.135300e-01 4.367320e+02 
3.147300e-01 4.341032e+02 
3.159900e-01 4.313701e+02 
3.171800e-01 4.288166e+02 
3.183700e-01 4.262889e+02 
3.196300e-01 4.236384e+02 
3.208400e-01 4.211179e+02 
3.220300e-01 4.186623e+02 
3.232000e-01 4.162754e+02 
3.244300e-01 4.137914e+02 
3.256700e-01 4.113112e+02 
3.269200e-01 4.088350e+02 
3.280800e-01 4.065585e+02 
3.292500e-01 4.042901e+02 
3.304800e-01 4.019295e+02 
3.317100e-01 3.995910e+02 
3.328900e-01 3.973681e+02 
3.340700e-01 3.951650e+02 
3.353600e-01 3.927870e+02 
3.365300e-01 3.906531e+02 
3.377100e-01 3.885199e+02 
3.389200e-01 3.863519e+02 
3.401600e-01 3.841503e+02 
3.413700e-01 3.820294e+02 
3.425300e-01 3.800193e+02 
3.437700e-01 3.778896e+02 
3.449800e-01 3.758299e+02 
3.461800e-01 3.738052e+02 
3.473600e-01 3.718351e+02 
3.485800e-01 3.698248e+02 
3.498100e-01 3.678159e+02 
3.510200e-01 3.658569e+02 
3.522000e-01 3.639628e+02 
3.533900e-01 3.620687e+02 
3.546400e-01 3.601085e+02 
3.558400e-01 3.582437e+02 
3.570600e-01 3.563639e+02 
3.582700e-01 3.545155e+02 
3.595000e-01 3.526524e+02 
3.607100e-01 3.508420e+02 
3.618900e-01 3.490963e+02 
3.631200e-01 3.472918e+02 
3.643200e-01 3.455460e+02 
3.655500e-01 3.437715e+02 
3.667300e-01 3.420831e+02 
3.679500e-01 3.403647e+02 
3.691900e-01 3.386327e+02 
3.703600e-01 3.370118e+02 
3.715700e-01 3.353489e+02 
3.727700e-01 3.337131e+02 
3.739900e-01 3.320677e+02 
3.752000e-01 3.304565e+02 
3.763900e-01 3.288847e+02 
3.775800e-01 3.273252e+02 
3.788200e-01 3.257133e+02 
3.800300e-01 3.241530e+02 
3.812100e-01 3.226488e+02 
3.824200e-01 3.211221e+02 
3.836100e-01 3.196323e+02 
3.848600e-01 3.180799e+02 
3.860400e-01 3.166259e+02 
3.872400e-01 3.151586e+02 
3.884600e-01 3.136856e+02 
3.896500e-01 3.122626e+02 
3.908700e-01 3.108149e+02 
3.920600e-01 3.094137e+02 
3.933100e-01 3.079532e+02 
3.945300e-01 3.065389e+02 
3.957200e-01 3.051769e+02 
3.969300e-01 3.038045e+02 
3.981700e-01 3.024088e+02 
3.993500e-01 3.010907e+02 
4.094840e-01 2.901850e+02 
4.272360e-01 2.727867e+02 
4.454600e-01 2.568142e+02 
4.630560e-01 2.429281e+02 
4.804610e-01 2.304696e+02 
4.980690e-01 2.189855e+02 
5.159230e-01 2.083469e+02 
5.317440e-01 1.996710e+02 
5.489640e-01 1.909482e+02 
5.671990e-01 1.824479e+02 
5.838690e-01 1.752703e+02 
6.018840e-01 1.680891e+02 
6.202330e-01 1.613362e+02 
6.379250e-01 1.552978e+02 
6.545410e-01 1.500281e+02 
6.714560e-01 1.450097e+02 
6.892080e-01 1.400945e+02 
7.066010e-01 1.355993e+02 
7.240540e-01 1.313694e+02 
7.420450e-01 1.272908e+02 
7.593780e-01 1.236025e+02 
7.764720e-01 1.201727e+02 
7.942840e-01 1.168041e+02 
8.116170e-01 1.137125e+02 
8.288310e-01 1.108088e+02 
8.462240e-01 1.080279e+02 
8.631980e-01 1.054500e+02 
8.810700e-01 1.028702e+02 
8.989410e-01 1.004181e+02 
9.166330e-01 9.810687e+01 
9.345640e-01 9.587436e+01 
9.515980e-01 9.384729e+01 
9.688720e-01 9.187810e+01 
9.865640e-01 8.994667e+01 
1.031870e+00 8.534791e+01 
1.063490e+00 8.240167e+01 
1.097920e+00 7.941248e+01 
1.134370e+00 7.646187e+01 
1.167730e+00 7.393795e+01 
1.203830e+00 7.137046e+01 
1.240470e+00 6.892693e+01 
1.275790e+00 6.670632e+01 
1.309140e+00 6.472661e+01 
1.342970e+00 6.281349e+01 
1.378420e+00 6.091451e+01 
1.413200e+00 5.914287e+01 
1.448110e+00 5.744843e+01 
1.484090e+00 5.578685e+01 
1.518820e+00 5.425571e+01 
1.552880e+00 5.281825e+01 
1.588630e+00 5.137421e+01 
1.623230e+00 5.003734e+01 
1.657720e+00 4.875889e+01 
1.692450e+00 4.752432e+01 
1.726400e+00 4.636189e+01 
1.762200e+00 4.518282e+01 
1.797880e+00 4.405458e+01 
1.833270e+00 4.297829e+01 
1.869070e+00 4.192947e+01 
1.903200e+00 4.096621e+01 
1.937740e+00 4.002539e+01 
1.973190e+00 3.909314e+01 
2.007440e+00 3.822369e+01 
2.042160e+00 3.737161e+01 
2.077900e+00 3.652347e+01 
2.112390e+00 3.573277e+01 
2.146220e+00 3.498043e+01 
2.181600e+00 3.421886e+01 
2.216930e+00 3.348260e+01 
2.250760e+00 3.279945e+01 
2.286500e+00 3.209993e+01 
2.321770e+00 3.143096e+01 
2.355950e+00 3.080212e+01 
2.391280e+00 3.016982e+01 
2.426240e+00 2.956274e+01 
2.460670e+00 2.898261e+01 
2.495640e+00 2.841079e+01 
2.531080e+00 2.784628e+01 
2.566220e+00 2.730233e+01 
2.600830e+00 2.678178e+01 
2.635080e+00 2.628107e+01 
2.670340e+00 2.577812e+01 
2.705970e+00 2.528414e+01 
2.740040e+00 2.482472e+01 
2.774520e+00 2.437099e+01 
2.809730e+00 2.391942e+01 
2.844390e+00 2.348686e+01 
2.879960e+00 2.305420e+01 
2.914860e+00 2.264015e+01 
2.949410e+00 2.224095e+01 
2.984440e+00 2.184565e+01 
3.019760e+00 2.145700e+01 
3.054730e+00 2.108219e+01 
3.089030e+00 2.072232e+01 
3.124060e+00 2.036407e+01 
3.159560e+00 2.000980e+01 
3.194710e+00 1.966711e+01 
3.229010e+00 1.934110e+01 
3.263320e+00 1.902133e+01 
3.297930e+00 1.870664e+01 
3.332830e+00 1.839637e+01 
3.368040e+00 1.809050e+01 
3.403300e+00 1.779144e+01 
3.438450e+00 1.749961e+01 
3.473060e+00 1.721925e+01 
3.508440e+00 1.693816e+01 
3.543110e+00 1.666938e+01 
3.577470e+00 1.640823e+01 
3.613040e+00 1.614415e+01 
3.648120e+00 1.588902e+01 
3.682910e+00 1.564164e+01 
3.718050e+00 1.539686e+01 
3.753320e+00 1.515660e+01 
3.787980e+00 1.492540e+01 
3.822290e+00 1.470136e+01 
3.857020e+00 1.447907e+01 
3.891920e+00 1.426040e+01 
3.926650e+00 1.404697e+01 
3.961970e+00 1.383459e+01 
3.997360e+00 1.362601e+01 
4.031670e+00 1.342815e+01 
4.066330e+00 1.323195e+01 
4.101420e+00 1.303764e+01 
4.136200e+00 1.284834e+01 
4.170810e+00 1.266403e+01 
4.206250e+00 1.247878e+01 
4.241580e+00 1.229800e+01 
4.276300e+00 1.212365e+01 
4.310970e+00 1.195294e+01 
4.346120e+00 1.178327e+01 
4.380600e+00 1.161993e+01 
4.414730e+00 1.146151e+01 
4.450350e+00 1.129902e+01 
4.485320e+00 1.114278e+01 
4.519810e+00 1.099141e+01 
4.555430e+00 1.083807e+01 
4.590870e+00 1.068846e+01 
4.625480e+00 1.054501e+01 
4.659910e+00 1.040507e+01 
4.695230e+00 1.026400e+01 
4.729960e+00 1.012795e+01 
4.764450e+00 9.995261e+00 
4.799530e+00 9.862629e+00 
4.834910e+00 9.731436e+00 
4.869700e+00 9.604679e+00 
4.904370e+00 9.480689e+00 
4.939450e+00 9.357521e+00 
4.973940e+00 9.238520e+00 
5.008430e+00 9.121691e+00 
5.043810e+00 9.003878e+00 
5.078840e+00 8.889278e+00 
5.113500e+00 8.777940e+00 
5.148890e+00 8.666145e+00 
5.184210e+00 8.556587e+00 
5.219060e+00 8.450395e+00 
5.253660e+00 8.346747e+00 
5.288570e+00 8.244003e+00 
5.323420e+00 8.143176e+00 
5.358440e+00 8.043564e+00 
5.393590e+00 7.945320e+00 
5.428310e+00 7.849903e+00 
5.462800e+00 7.756702e+00 
5.497640e+00 7.664144e+00 
5.532670e+00 7.572621e+00 
5.567280e+00 7.483700e+00 
5.602000e+00 7.395976e+00 
5.637270e+00 7.308330e+00 
5.672410e+00 7.222458e+00 
5.707020e+00 7.139269e+00 
5.742040e+00 7.056486e+00 
5.777430e+00 6.974203e+00 
5.812210e+00 6.894652e+00 
5.846820e+00 6.816740e+00 
5.881610e+00 6.739663e+00 
5.916510e+00 6.663569e+00 
5.951600e+00 6.588292e+00 
5.986560e+00 6.514484e+00 
6.021830e+00 6.441193e+00 
6.056490e+00 6.370335e+00 
6.091160e+00 6.300583e+00 
6.125830e+00 6.231897e+00 
6.161090e+00 6.163133e+00 
6.195760e+00 6.096595e+00 
6.230420e+00 6.031076e+00 
6.265690e+00 5.965414e+00 
6.300950e+00 5.900826e+00 
6.335620e+00 5.838268e+00 
6.370880e+00 5.775592e+00 
6.405550e+00 5.714940e+00 
6.440220e+00 5.655200e+00 
6.475480e+00 5.595334e+00 
6.510150e+00 5.537350e+00 
6.544810e+00 5.480267e+00 
6.580080e+00 5.423018e+00 
6.614750e+00 5.367552e+00 
6.649410e+00 5.312986e+00 
6.684080e+00 5.259194e+00 
6.719340e+00 5.205260e+00 
6.754010e+00 5.153006e+00 
6.788680e+00 5.101549e+00 
6.823940e+00 5.049946e+00 
6.859800e+00 4.998206e+00 
6.894470e+00 4.948951e+00 
6.929140e+00 4.900393e+00 
6.963800e+00 4.852507e+00 
6.999070e+00 4.804449e+00 
7.033730e+00 4.757962e+00 
7.068400e+00 4.712083e+00 
7.103660e+00 4.666050e+00 
7.138330e+00 4.621430e+00 
7.173600e+00 4.576723e+00 
7.208260e+00 4.533370e+00 
7.243530e+00 4.489836e+00 
7.277600e+00 4.448382e+00 
7.312860e+00 4.406083e+00 
7.348120e+00 4.364338e+00 
7.382790e+00 4.323823e+00 
7.417460e+00 4.283909e+00 
7.452720e+00 4.243880e+00 
7.487390e+00 4.205023e+00 
7.522650e+00 4.166007e+00 
7.557320e+00 4.128210e+00 
7.591990e+00 4.090914e+00 
7.627250e+00 4.053459e+00 
7.662510e+00 4.016476e+00 
7.697180e+00 3.980649e+00 
7.731850e+00 3.945294e+00 
7.766510e+00 3.910380e+00 
7.801180e+00 3.875882e+00 
7.836440e+00 3.841297e+00 
7.871110e+00 3.807748e+00 
7.906380e+00 3.774033e+00 
7.941040e+00 3.741300e+00 
7.976310e+00 3.708433e+00 
8.011570e+00 3.676022e+00 
8.046240e+00 3.644532e+00 
8.080900e+00 3.613422e+00 
8.115570e+00 3.582692e+00 
8.150830e+00 3.551904e+00 
8.185500e+00 3.521984e+00 
8.220770e+00 3.491902e+00 
8.255430e+00 3.462684e+00 
8.290100e+00 3.433884e+00 
8.324770e+00 3.405424e+00 
8.359430e+00 3.377295e+00 
8.394700e+00 3.348999e+00 
8.429960e+00 3.321091e+00 
8.464630e+00 3.294019e+00 
8.499890e+00 3.266796e+00 
8.534560e+00 3.240329e+00 
8.569200e+00 3.214179e+00 
