# Parameters:
# omega_b = 0.022524, omega_m = 0.144528, n_s = 0.890945, h = 72.244094, w = -1.000000, sigma_8 = 0.769291
# z = 1.500000
#
# k[1/Mpc] # P(k):
8.694000e-04 4.475872e+03 
2.077466e-03 8.989343e+03 
3.285532e-03 1.233920e+04 
4.493598e-03 1.482951e+04 
5.701664e-03 1.662046e+04 
6.909730e-03 1.784601e+04 
8.117797e-03 1.864079e+04 
9.325863e-03 1.907433e+04 
1.053393e-02 1.921260e+04 
1.174199e-02 1.911356e+04 
1.295006e-02 1.881447e+04 
1.415813e-02 1.836363e+04 
1.536619e-02 1.780143e+04 
1.657426e-02 1.715447e+04 
1.778233e-02 1.644749e+04 
1.899039e-02 1.571728e+04 
2.019846e-02 1.498304e+04 
2.140652e-02 1.426156e+04 
2.261459e-02 1.356177e+04 
2.382266e-02 1.289529e+04 
2.503072e-02 1.227059e+04 
2.623879e-02 1.169073e+04 
2.744685e-02 1.115615e+04 
2.865492e-02 1.066904e+04 
2.986299e-02 1.022731e+04 
3.100100e-02 9.851577e+03 
3.220400e-02 9.494116e+03 
3.288100e-02 9.310557e+03 
3.424300e-02 8.974736e+03 
3.555100e-02 8.689131e+03 
3.686000e-02 8.434831e+03 
3.795000e-02 8.242668e+03 
3.929100e-02 8.027366e+03 
4.039800e-02 7.862191e+03 
4.164000e-02 7.686526e+03 
4.294400e-02 7.507345e+03 
4.415000e-02 7.345189e+03 
4.542900e-02 7.170520e+03 
4.660900e-02 7.008630e+03 
4.782300e-02 6.833635e+03 
4.892900e-02 6.671042e+03 
5.031200e-02 6.460918e+03 
5.155900e-02 6.264238e+03 
5.238100e-02 6.131962e+03 
5.378200e-02 5.903311e+03 
5.513400e-02 5.678622e+03 
5.627600e-02 5.487232e+03 
5.735300e-02 5.306749e+03 
5.870100e-02 5.082232e+03 
5.988700e-02 4.888147e+03 
6.113500e-02 4.689078e+03 
6.225900e-02 4.516603e+03 
6.340100e-02 4.350284e+03 
6.480200e-02 4.160395e+03 
6.601100e-02 4.011714e+03 
6.725500e-02 3.873498e+03 
6.829100e-02 3.770679e+03 
6.958600e-02 3.654716e+03 
7.071100e-02 3.565674e+03 
7.192300e-02 3.480017e+03 
7.307400e-02 3.407424e+03 
7.412300e-02 3.347719e+03 
7.550400e-02 3.277923e+03 
7.663100e-02 3.226284e+03 
7.791200e-02 3.173439e+03 
7.912700e-02 3.127143e+03 
8.027600e-02 3.085539e+03 
8.138400e-02 3.046688e+03 
8.272200e-02 3.000549e+03 
8.406100e-02 2.954237e+03 
8.534100e-02 2.908348e+03 
8.653800e-02 2.863345e+03 
8.759800e-02 2.822170e+03 
8.900300e-02 2.765123e+03 
9.009000e-02 2.718638e+03 
9.113300e-02 2.671762e+03 
9.239600e-02 2.613696e+03 
9.358000e-02 2.557382e+03 
9.496100e-02 2.489224e+03 
9.608400e-02 2.433373e+03 
9.727500e-02 2.374280e+03 
9.852600e-02 2.311146e+03 
9.973800e-02 2.251284e+03 
1.009000e-01 2.195149e+03 
1.020900e-01 2.139161e+03 
1.034000e-01 2.079996e+03 
1.046000e-01 2.028071e+03 
1.057200e-01 1.982708e+03 
1.069100e-01 1.936694e+03 
1.082500e-01 1.888905e+03 
1.093900e-01 1.851343e+03 
1.105400e-01 1.815564e+03 
1.116900e-01 1.783574e+03 
1.129600e-01 1.750218e+03 
1.142000e-01 1.721172e+03 
1.153300e-01 1.696399e+03 
1.166400e-01 1.669995e+03 
1.177800e-01 1.648858e+03 
1.190000e-01 1.627374e+03 
1.201200e-01 1.608976e+03 
1.213400e-01 1.589562e+03 
1.227100e-01 1.568621e+03 
1.238900e-01 1.550942e+03 
1.250700e-01 1.533289e+03 
1.263200e-01 1.514691e+03 
1.275500e-01 1.496073e+03 
1.287500e-01 1.477741e+03 
1.299900e-01 1.458304e+03 
1.311300e-01 1.440131e+03 
1.323500e-01 1.420057e+03 
1.335900e-01 1.399357e+03 
1.347100e-01 1.380062e+03 
1.359800e-01 1.358085e+03 
1.372100e-01 1.336118e+03 
1.384300e-01 1.314434e+03 
1.395700e-01 1.293664e+03 
1.407700e-01 1.272206e+03 
1.420300e-01 1.249316e+03 
1.432800e-01 1.227158e+03 
1.444500e-01 1.206535e+03 
1.456300e-01 1.186206e+03 
1.468900e-01 1.165214e+03 
1.480500e-01 1.146391e+03 
1.491700e-01 1.128915e+03 
1.503800e-01 1.110835e+03 
1.516400e-01 1.092634e+03 
1.528200e-01 1.076861e+03 
1.540200e-01 1.061151e+03 
1.551900e-01 1.047101e+03 
1.564300e-01 1.032742e+03 
1.576600e-01 1.019282e+03 
1.588700e-01 1.006894e+03 
1.600900e-01 9.946859e+02 
1.612700e-01 9.838725e+02 
1.625400e-01 9.724530e+02 
1.637600e-01 9.619337e+02 
1.649500e-01 9.520010e+02 
1.662200e-01 9.415931e+02 
1.674000e-01 9.320884e+02 
1.685000e-01 9.233765e+02 
1.697500e-01 9.134637e+02 
1.710300e-01 9.033176e+02 
1.722200e-01 8.940533e+02 
1.734400e-01 8.841827e+02 
1.746400e-01 8.746213e+02 
1.758700e-01 8.647974e+02 
1.770900e-01 8.548293e+02 
1.782700e-01 8.453545e+02 
1.794600e-01 8.356659e+02 
1.807000e-01 8.255477e+02 
1.819100e-01 8.158480e+02 
1.830100e-01 8.069130e+02 
1.842200e-01 7.972024e+02 
1.855000e-01 7.871075e+02 
1.867000e-01 7.776962e+02 
1.879200e-01 7.682922e+02 
1.890900e-01 7.594321e+02 
1.902800e-01 7.506033e+02 
1.915200e-01 7.415589e+02 
1.926900e-01 7.332079e+02 
1.939000e-01 7.248441e+02 
1.951700e-01 7.162132e+02 
1.963100e-01 7.086508e+02 
1.975100e-01 7.009728e+02 
1.987800e-01 6.929792e+02 
2.000100e-01 6.854302e+02 
2.012500e-01 6.780947e+02 
2.023400e-01 6.717430e+02 
2.036100e-01 6.644906e+02 
2.048900e-01 6.574417e+02 
2.060400e-01 6.512051e+02 
2.072200e-01 6.449072e+02 
2.084200e-01 6.387029e+02 
2.096900e-01 6.322359e+02 
2.109200e-01 6.260679e+02 
2.121100e-01 6.202331e+02 
2.132700e-01 6.146280e+02 
2.145200e-01 6.086749e+02 
2.157200e-01 6.030482e+02 
2.168800e-01 5.976872e+02 
2.180700e-01 5.922634e+02 
2.193400e-01 5.865512e+02 
2.206000e-01 5.809543e+02 
2.217500e-01 5.759172e+02 
2.229500e-01 5.707322e+02 
2.241400e-01 5.656317e+02 
2.253500e-01 5.605157e+02 
2.264900e-01 5.557600e+02 
2.277100e-01 5.507285e+02 
2.289900e-01 5.455126e+02 
2.301500e-01 5.408504e+02 
2.313600e-01 5.360513e+02 
2.325600e-01 5.313484e+02 
2.337700e-01 5.266695e+02 
2.350000e-01 5.219769e+02 
2.362000e-01 5.174618e+02 
2.374100e-01 5.129712e+02 
2.386500e-01 5.084302e+02 
2.399100e-01 5.038781e+02 
2.410400e-01 4.998666e+02 
2.422500e-01 4.956269e+02 
2.435000e-01 4.913041e+02 
2.447300e-01 4.871111e+02 
2.458700e-01 4.832934e+02 
2.470600e-01 4.793567e+02 
2.483300e-01 4.752089e+02 
2.495600e-01 4.712538e+02 
2.507600e-01 4.674572e+02 
2.519600e-01 4.637071e+02 
2.532200e-01 4.598187e+02 
2.543700e-01 4.563245e+02 
2.555500e-01 4.527888e+02 
2.568000e-01 4.490889e+02 
2.580100e-01 4.455513e+02 
2.592400e-01 4.420087e+02 
2.604100e-01 4.386830e+02 
2.616100e-01 4.353118e+02 
2.628400e-01 4.318973e+02 
2.640600e-01 4.285574e+02 
2.652200e-01 4.254208e+02 
2.664300e-01 4.221864e+02 
2.676500e-01 4.189633e+02 
2.688400e-01 4.158557e+02 
2.700700e-01 4.126806e+02 
2.712400e-01 4.096948e+02 
2.724800e-01 4.065662e+02 
2.736700e-01 4.035998e+02 
2.748800e-01 4.006191e+02 
2.761000e-01 3.976477e+02 
2.773200e-01 3.947099e+02 
2.785400e-01 3.918045e+02 
2.797000e-01 3.890707e+02 
2.808900e-01 3.862964e+02 
2.821400e-01 3.834147e+02 
2.833900e-01 3.805655e+02 
2.845500e-01 3.779467e+02 
2.857800e-01 3.751997e+02 
2.870300e-01 3.724392e+02 
2.882100e-01 3.698615e+02 
2.893900e-01 3.673102e+02 
2.906300e-01 3.646574e+02 
2.918900e-01 3.619916e+02 
2.930500e-01 3.595635e+02 
2.942500e-01 3.570772e+02 
2.954200e-01 3.546765e+02 
2.966500e-01 3.521790e+02 
2.978900e-01 3.496881e+02 
2.990400e-01 3.474019e+02 
3.002700e-01 3.449805e+02 
3.015100e-01 3.425648e+02 
3.026800e-01 3.403089e+02 
3.038500e-01 3.380754e+02 
3.050300e-01 3.358452e+02 
3.062600e-01 3.335431e+02 
3.075000e-01 3.312464e+02 
3.087000e-01 3.290465e+02 
3.099100e-01 3.268506e+02 
3.111200e-01 3.246777e+02 
3.123100e-01 3.225638e+02 
3.135300e-01 3.204181e+02 
3.147300e-01 3.183286e+02 
3.159900e-01 3.161567e+02 
3.171800e-01 3.141276e+02 
3.183700e-01 3.121193e+02 
3.196300e-01 3.100139e+02 
3.208400e-01 3.080122e+02 
3.220300e-01 3.060625e+02 
3.232000e-01 3.041676e+02 
3.244300e-01 3.021960e+02 
3.256700e-01 3.002279e+02 
3.269200e-01 2.982635e+02 
3.280800e-01 2.964578e+02 
3.292500e-01 2.946589e+02 
3.304800e-01 2.927872e+02 
3.317100e-01 2.909334e+02 
3.328900e-01 2.891717e+02 
3.340700e-01 2.874260e+02 
3.353600e-01 2.855427e+02 
3.365300e-01 2.838532e+02 
3.377100e-01 2.821646e+02 
3.389200e-01 2.804489e+02 
3.401600e-01 2.787070e+02 
3.413700e-01 2.770293e+02 
3.425300e-01 2.754398e+02 
3.437700e-01 2.737559e+02 
3.449800e-01 2.721279e+02 
3.461800e-01 2.705277e+02 
3.473600e-01 2.689714e+02 
3.485800e-01 2.673847e+02 
3.498100e-01 2.657994e+02 
3.510200e-01 2.642538e+02 
3.522000e-01 2.627596e+02 
3.533900e-01 2.612659e+02 
3.546400e-01 2.597215e+02 
3.558400e-01 2.582526e+02 
3.570600e-01 2.567723e+02 
3.582700e-01 2.553168e+02 
3.595000e-01 2.538503e+02 
3.607100e-01 2.524262e+02 
3.618900e-01 2.510541e+02 
3.631200e-01 2.496361e+02 
3.643200e-01 2.482644e+02 
3.655500e-01 2.468704e+02 
3.667300e-01 2.455444e+02 
3.679500e-01 2.441970e+02 
3.691900e-01 2.428392e+02 
3.703600e-01 2.415688e+02 
3.715700e-01 2.402656e+02 
3.727700e-01 2.389839e+02 
3.739900e-01 2.376955e+02 
3.752000e-01 2.364352e+02 
3.763900e-01 2.352058e+02 
3.775800e-01 2.339863e+02 
3.788200e-01 2.327259e+02 
3.800300e-01 2.315062e+02 
3.812100e-01 2.303320e+02 
3.824200e-01 2.291413e+02 
3.836100e-01 2.279796e+02 
3.848600e-01 2.267693e+02 
3.860400e-01 2.256359e+02 
3.872400e-01 2.244923e+02 
3.884600e-01 2.233460e+02 
3.896500e-01 2.222394e+02 
3.908700e-01 2.211137e+02 
3.920600e-01 2.200244e+02 
3.933100e-01 2.188891e+02 
3.945300e-01 2.177899e+02 
3.957200e-01 2.167332e+02 
3.969300e-01 2.156689e+02 
3.981700e-01 2.145868e+02 
3.993500e-01 2.135650e+02 
4.094840e-01 2.051329e+02 
4.272360e-01 1.917546e+02 
4.454600e-01 1.795568e+02 
4.630560e-01 1.690170e+02 
4.804610e-01 1.596127e+02 
4.980690e-01 1.509860e+02 
5.159230e-01 1.430296e+02 
5.317440e-01 1.365654e+02 
5.489640e-01 1.300869e+02 
5.671990e-01 1.237915e+02 
5.838690e-01 1.184902e+02 
6.018840e-01 1.131978e+02 
6.202330e-01 1.082334e+02 
6.379250e-01 1.038041e+02 
6.545410e-01 9.994436e+01 
6.714560e-01 9.627617e+01 
6.892080e-01 9.268966e+01 
7.066010e-01 8.941577e+01 
7.240540e-01 8.634110e+01 
7.420450e-01 8.338224e+01 
7.593780e-01 8.071307e+01 
7.764720e-01 7.823619e+01 
7.942840e-01 7.580921e+01 
8.116170e-01 7.358713e+01 
8.288310e-01 7.150624e+01 
8.462240e-01 6.951890e+01 
8.631980e-01 6.768217e+01 
8.810700e-01 6.584939e+01 
8.989410e-01 6.411280e+01 
9.166330e-01 6.248167e+01 
9.345640e-01 6.091121e+01 
9.515980e-01 5.949058e+01 
9.688720e-01 5.811517e+01 
9.865640e-01 5.677161e+01 
1.031870e+00 5.359203e+01 
1.063490e+00 5.157200e+01 
1.097920e+00 4.953657e+01 
1.134370e+00 4.754249e+01 
1.167730e+00 4.584832e+01 
1.203830e+00 4.413883e+01 
1.240470e+00 4.252207e+01 
1.275790e+00 4.106404e+01 
1.309140e+00 3.977072e+01 
1.342970e+00 3.853018e+01 
1.378420e+00 3.730439e+01 
1.413200e+00 3.616831e+01 
1.448110e+00 3.508710e+01 
1.484090e+00 3.403165e+01 
1.518820e+00 3.306382e+01 
1.552880e+00 3.216007e+01 
1.588630e+00 3.125551e+01 
1.623230e+00 3.042132e+01 
1.657720e+00 2.962642e+01 
1.692450e+00 2.886145e+01 
1.726400e+00 2.814398e+01 
1.762200e+00 2.741826e+01 
1.797880e+00 2.672606e+01 
1.833270e+00 2.606754e+01 
1.869070e+00 2.542744e+01 
1.903200e+00 2.484107e+01 
1.937740e+00 2.426942e+01 
1.973190e+00 2.370433e+01 
2.007440e+00 2.317819e+01 
2.042160e+00 2.266364e+01 
2.077900e+00 2.215244e+01 
2.112390e+00 2.167631e+01 
2.146220e+00 2.122417e+01 
2.181600e+00 2.076736e+01 
2.216930e+00 2.032608e+01 
2.250760e+00 1.991706e+01 
2.286500e+00 1.949869e+01 
2.321770e+00 1.909895e+01 
2.355950e+00 1.872361e+01 
2.391280e+00 1.834657e+01 
2.426240e+00 1.798479e+01 
2.460670e+00 1.763923e+01 
2.495640e+00 1.729878e+01 
2.531080e+00 1.696314e+01 
2.566220e+00 1.663975e+01 
2.600830e+00 1.633038e+01 
2.635080e+00 1.603290e+01 
2.670340e+00 1.573409e+01 
2.705970e+00 1.544072e+01 
2.740040e+00 1.516796e+01 
2.774520e+00 1.489868e+01 
2.809730e+00 1.463064e+01 
2.844390e+00 1.437386e+01 
2.879960e+00 1.411699e+01 
2.914860e+00 1.387117e+01 
2.949410e+00 1.363414e+01 
2.984440e+00 1.339944e+01 
3.019760e+00 1.316862e+01 
3.054730e+00 1.294597e+01 
3.089030e+00 1.273212e+01 
3.124060e+00 1.251920e+01 
3.159560e+00 1.230858e+01 
3.194710e+00 1.210480e+01 
3.229010e+00 1.191087e+01 
3.263320e+00 1.172043e+01 
3.297930e+00 1.153298e+01 
3.332830e+00 1.134814e+01 
3.368040e+00 1.116582e+01 
3.403300e+00 1.098748e+01 
3.438450e+00 1.081335e+01 
3.473060e+00 1.064601e+01 
3.508440e+00 1.047804e+01 
3.543110e+00 1.031737e+01 
3.577470e+00 1.016111e+01 
3.613040e+00 1.000305e+01 
3.648120e+00 9.850283e+00 
3.682910e+00 9.702045e+00 
3.718050e+00 9.555180e+00 
3.753320e+00 9.410951e+00 
3.787980e+00 9.272058e+00 
3.822290e+00 9.137396e+00 
3.857020e+00 9.003692e+00 
3.891920e+00 8.872077e+00 
3.926650e+00 8.743486e+00 
3.961970e+00 8.615450e+00 
3.997360e+00 8.489545e+00 
4.031670e+00 8.370071e+00 
4.066330e+00 8.251526e+00 
4.101420e+00 8.134094e+00 
4.136200e+00 8.019440e+00 
4.170810e+00 7.907782e+00 
4.206250e+00 7.795477e+00 
4.241580e+00 7.685847e+00 
4.276300e+00 7.579984e+00 
4.310970e+00 7.476245e+00 
4.346120e+00 7.373067e+00 
4.380600e+00 7.273627e+00 
4.414730e+00 7.177162e+00 
4.450350e+00 7.078068e+00 
4.485320e+00 6.982767e+00 
4.519810e+00 6.890314e+00 
4.555430e+00 6.796591e+00 
4.590870e+00 6.705104e+00 
4.625480e+00 6.617283e+00 
4.659910e+00 6.531605e+00 
4.695230e+00 6.445110e+00 
4.729960e+00 6.361656e+00 
4.764450e+00 6.280206e+00 
4.799530e+00 6.198688e+00 
4.834910e+00 6.118042e+00 
4.869700e+00 6.040013e+00 
4.904370e+00 5.963660e+00 
4.939450e+00 5.887773e+00 
4.973940e+00 5.814370e+00 
5.008430e+00 5.742297e+00 
5.043810e+00 5.669544e+00 
5.078840e+00 5.598729e+00 
5.113500e+00 5.529921e+00 
5.148890e+00 5.460689e+00 
5.184210e+00 5.392829e+00 
5.219060e+00 5.327029e+00 
5.253660e+00 5.262752e+00 
5.288570e+00 5.199027e+00 
5.323420e+00 5.136439e+00 
5.358440e+00 5.074550e+00 
5.393590e+00 5.013503e+00 
5.428310e+00 4.954145e+00 
5.462800e+00 4.896126e+00 
5.497640e+00 4.838503e+00 
5.532670e+00 4.781463e+00 
5.567280e+00 4.726022e+00 
5.602000e+00 4.671323e+00 
5.637270e+00 4.616609e+00 
5.672410e+00 4.562986e+00 
5.707020e+00 4.511034e+00 
5.742040e+00 4.459291e+00 
5.777430e+00 4.407848e+00 
5.812210e+00 4.358109e+00 
5.846820e+00 4.309342e+00 
5.881610e+00 4.261081e+00 
5.916510e+00 4.213433e+00 
5.951600e+00 4.166248e+00 
5.986560e+00 4.119961e+00 
6.021830e+00 4.073997e+00 
6.056490e+00 4.029531e+00 
6.091160e+00 3.985735e+00 
6.125830e+00 3.942607e+00 
6.161090e+00 3.899417e+00 
6.195760e+00 3.857596e+00 
6.230420e+00 3.816415e+00 
6.265690e+00 3.775141e+00 
6.300950e+00 3.734504e+00 
6.335620e+00 3.695143e+00 
6.370880e+00 3.655706e+00 
6.405550e+00 3.617520e+00 
6.440220e+00 3.579898e+00 
6.475480e+00 3.542194e+00 
6.510150e+00 3.505668e+00 
6.544810e+00 3.469693e+00 
6.580080e+00 3.433612e+00 
6.614750e+00 3.398653e+00 
6.649410e+00 3.364235e+00 
6.684080e+00 3.330299e+00 
6.719340e+00 3.296273e+00 
6.754010e+00 3.263304e+00 
6.788680e+00 3.230831e+00 
6.823940e+00 3.198265e+00 
6.859800e+00 3.165611e+00 
6.894470e+00 3.134513e+00 
6.929140e+00 3.103850e+00 
6.963800e+00 3.073612e+00 
6.999070e+00 3.043264e+00 
7.033730e+00 3.013912e+00 
7.068400e+00 2.984944e+00 
7.103660e+00 2.955878e+00 
7.138330e+00 2.927699e+00 
7.173600e+00 2.899454e+00 
7.208260e+00 2.872065e+00 
7.243530e+00 2.844561e+00 
7.277600e+00 2.818365e+00 
7.312860e+00 2.791630e+00 
7.348120e+00 2.765244e+00 
7.382790e+00 2.739636e+00 
7.417460e+00 2.714411e+00 
7.452720e+00 2.689114e+00 
7.487390e+00 2.664558e+00 
7.522650e+00 2.639901e+00 
7.557320e+00 2.616022e+00 
7.591990e+00 2.592464e+00 
7.627250e+00 2.568806e+00 
7.662510e+00 2.545444e+00 
7.697180e+00 2.522815e+00 
7.731850e+00 2.500484e+00 
7.766510e+00 2.478431e+00 
7.801180e+00 2.456641e+00 
7.836440e+00 2.434797e+00 
7.871110e+00 2.413608e+00 
7.906380e+00 2.392314e+00 
7.941040e+00 2.371640e+00 
7.976310e+00 2.350885e+00 
8.011570e+00 2.330424e+00 
8.046240e+00 2.310544e+00 
8.080900e+00 2.290903e+00 
8.115570e+00 2.271505e+00 
8.150830e+00 2.252083e+00 
8.185500e+00 2.233209e+00 
8.220770e+00 2.214232e+00 
8.255430e+00 2.195799e+00 
8.290100e+00 2.177639e+00 
8.324770e+00 2.159695e+00 
8.359430e+00 2.141959e+00 
8.394700e+00 2.124116e+00 
8.429960e+00 2.106525e+00 
8.464630e+00 2.089466e+00 
8.499890e+00 2.072312e+00 
8.534560e+00 2.055634e+00 
8.569200e+00 2.039154e+00 
