# Parameters:
# omega_b = 0.022980, omega_m = 0.137362, n_s = 0.975984, h = 57.125984, w = -1.000000, sigma_8 = 0.758268
# z = 1.500000
#
# k[1/Mpc] # P(k):
8.694000e-04 4.007270e+03 
2.077466e-03 8.626044e+03 
3.285532e-03 1.224420e+04 
4.493598e-03 1.503168e+04 
5.701664e-03 1.710393e+04 
6.909730e-03 1.857268e+04 
8.117797e-03 1.956632e+04 
9.325863e-03 2.015157e+04 
1.053393e-02 2.039679e+04 
1.174199e-02 2.036550e+04 
1.295006e-02 2.009759e+04 
1.415813e-02 1.964711e+04 
1.536619e-02 1.906268e+04 
1.657426e-02 1.837730e+04 
1.778233e-02 1.761951e+04 
1.899039e-02 1.683184e+04 
2.019846e-02 1.603759e+04 
2.140652e-02 1.525727e+04 
2.261459e-02 1.450212e+04 
2.382266e-02 1.378577e+04 
2.503072e-02 1.311786e+04 
2.623879e-02 1.250199e+04 
2.744685e-02 1.193944e+04 
2.865492e-02 1.143155e+04 
2.986299e-02 1.097566e+04 
3.100100e-02 1.059270e+04 
3.220400e-02 1.023281e+04 
3.288100e-02 1.005016e+04 
3.424300e-02 9.719526e+03 
3.555100e-02 9.441739e+03 
3.686000e-02 9.196954e+03 
3.795000e-02 9.013000e+03 
3.929100e-02 8.807011e+03 
4.039800e-02 8.647976e+03 
4.164000e-02 8.476993e+03 
4.294400e-02 8.298437e+03 
4.415000e-02 8.133718e+03 
4.542900e-02 7.951225e+03 
4.660900e-02 7.778879e+03 
4.782300e-02 7.587774e+03 
4.892900e-02 7.407861e+03 
5.031200e-02 7.172363e+03 
5.155900e-02 6.949652e+03 
5.238100e-02 6.799433e+03 
5.378200e-02 6.540256e+03 
5.513400e-02 6.289035e+03 
5.627600e-02 6.080431e+03 
5.735300e-02 5.890660e+03 
5.870100e-02 5.666925e+03 
5.988700e-02 5.485622e+03 
6.113500e-02 5.310729e+03 
6.225900e-02 5.166494e+03 
6.340100e-02 5.030379e+03 
6.480200e-02 4.873786e+03 
6.601100e-02 4.745917e+03 
6.725500e-02 4.619532e+03 
6.829100e-02 4.518608e+03 
6.958600e-02 4.398078e+03 
7.071100e-02 4.299606e+03 
7.192300e-02 4.200424e+03 
7.307400e-02 4.113065e+03 
7.412300e-02 4.039174e+03 
7.550400e-02 3.950442e+03 
7.663100e-02 3.883705e+03 
7.791200e-02 3.814472e+03 
7.912700e-02 3.753659e+03 
8.027600e-02 3.699279e+03 
8.138400e-02 3.648968e+03 
8.272200e-02 3.590146e+03 
8.406100e-02 3.532323e+03 
8.534100e-02 3.476569e+03 
8.653800e-02 3.423160e+03 
8.759800e-02 3.375009e+03 
8.900300e-02 3.309316e+03 
9.009000e-02 3.256513e+03 
9.113300e-02 3.203767e+03 
9.239600e-02 3.138775e+03 
9.358000e-02 3.076074e+03 
9.496100e-02 3.000468e+03 
9.608400e-02 2.938579e+03 
9.727500e-02 2.873113e+03 
9.852600e-02 2.803150e+03 
9.973800e-02 2.736684e+03 
1.009000e-01 2.674237e+03 
1.020900e-01 2.611670e+03 
1.034000e-01 2.545301e+03 
1.046000e-01 2.486798e+03 
1.057200e-01 2.435222e+03 
1.069100e-01 2.382671e+03 
1.082500e-01 2.327466e+03 
1.093900e-01 2.283593e+03 
1.105400e-01 2.241507e+03 
1.116900e-01 2.203135e+03 
1.129600e-01 2.162830e+03 
1.142000e-01 2.126955e+03 
1.153300e-01 2.096028e+03 
1.166400e-01 2.062536e+03 
1.177800e-01 2.035277e+03 
1.190000e-01 2.007350e+03 
1.201200e-01 1.983096e+03 
1.213400e-01 1.957439e+03 
1.227100e-01 1.929659e+03 
1.238900e-01 1.906257e+03 
1.250700e-01 1.883082e+03 
1.263200e-01 1.858837e+03 
1.275500e-01 1.834939e+03 
1.287500e-01 1.811698e+03 
1.299900e-01 1.787497e+03 
1.311300e-01 1.765197e+03 
1.323500e-01 1.741034e+03 
1.335900e-01 1.716447e+03 
1.347100e-01 1.693948e+03 
1.359800e-01 1.668551e+03 
1.372100e-01 1.643619e+03 
1.384300e-01 1.619136e+03 
1.395700e-01 1.596009e+03 
1.407700e-01 1.572121e+03 
1.420300e-01 1.546896e+03 
1.432800e-01 1.522448e+03 
1.444500e-01 1.499722e+03 
1.456300e-01 1.477292e+03 
1.468900e-01 1.453944e+03 
1.480500e-01 1.432937e+03 
1.491700e-01 1.413244e+03 
1.503800e-01 1.392631e+03 
1.516400e-01 1.371758e+03 
1.528200e-01 1.353189e+03 
1.540200e-01 1.334685e+03 
1.551900e-01 1.317615e+03 
1.564300e-01 1.300033e+03 
1.576600e-01 1.283271e+03 
1.588700e-01 1.267498e+03 
1.600900e-01 1.251931e+03 
1.612700e-01 1.237686e+03 
1.625400e-01 1.222645e+03 
1.637600e-01 1.208656e+03 
1.649500e-01 1.195367e+03 
1.662200e-01 1.181454e+03 
1.674000e-01 1.168792e+03 
1.685000e-01 1.157189e+03 
1.697500e-01 1.144137e+03 
1.710300e-01 1.130924e+03 
1.722200e-01 1.118862e+03 
1.734400e-01 1.106412e+03 
1.746400e-01 1.094368e+03 
1.758700e-01 1.082125e+03 
1.770900e-01 1.069964e+03 
1.782700e-01 1.058403e+03 
1.794600e-01 1.046768e+03 
1.807000e-01 1.034737e+03 
1.819100e-01 1.023200e+03 
1.830100e-01 1.012727e+03 
1.842200e-01 1.001367e+03 
1.855000e-01 9.895550e+02 
1.867000e-01 9.786225e+02 
1.879200e-01 9.676930e+02 
1.890900e-01 9.573898e+02 
1.902800e-01 9.471143e+02 
1.915200e-01 9.365828e+02 
1.926900e-01 9.268395e+02 
1.939000e-01 9.170296e+02 
1.951700e-01 9.069018e+02 
1.963100e-01 8.980010e+02 
1.975100e-01 8.888984e+02 
1.987800e-01 8.794183e+02 
2.000100e-01 8.704359e+02 
2.012500e-01 8.616430e+02 
2.023400e-01 8.540273e+02 
2.036100e-01 8.453142e+02 
2.048900e-01 8.367842e+02 
2.060400e-01 8.292353e+02 
2.072200e-01 8.216070e+02 
2.084200e-01 8.140441e+02 
2.096900e-01 8.061595e+02 
2.109200e-01 7.986380e+02 
2.121100e-01 7.914872e+02 
2.132700e-01 7.846150e+02 
2.145200e-01 7.773150e+02 
2.157200e-01 7.703910e+02 
2.168800e-01 7.637824e+02 
2.180700e-01 7.570955e+02 
2.193400e-01 7.500340e+02 
2.206000e-01 7.430811e+02 
2.217500e-01 7.368229e+02 
2.229500e-01 7.303803e+02 
2.241400e-01 7.239764e+02 
2.253500e-01 7.175509e+02 
2.264900e-01 7.115775e+02 
2.277100e-01 7.052132e+02 
2.289900e-01 6.985665e+02 
2.301500e-01 6.926252e+02 
2.313600e-01 6.865085e+02 
2.325600e-01 6.804123e+02 
2.337700e-01 6.743473e+02 
2.350000e-01 6.682650e+02 
2.362000e-01 6.623668e+02 
2.374100e-01 6.564468e+02 
2.386500e-01 6.504611e+02 
2.399100e-01 6.444616e+02 
2.410400e-01 6.391051e+02 
2.422500e-01 6.334361e+02 
2.435000e-01 6.276572e+02 
2.447300e-01 6.220434e+02 
2.458700e-01 6.168952e+02 
2.470600e-01 6.115876e+02 
2.483300e-01 6.059968e+02 
2.495600e-01 6.006630e+02 
2.507600e-01 5.955386e+02 
2.519600e-01 5.904783e+02 
2.532200e-01 5.852326e+02 
2.543700e-01 5.805368e+02 
2.555500e-01 5.757981e+02 
2.568000e-01 5.708404e+02 
2.580100e-01 5.661011e+02 
2.592400e-01 5.613966e+02 
2.604100e-01 5.569990e+02 
2.616100e-01 5.525417e+02 
2.628400e-01 5.480279e+02 
2.640600e-01 5.436653e+02 
2.652200e-01 5.395894e+02 
2.664300e-01 5.353866e+02 
2.676500e-01 5.311990e+02 
2.688400e-01 5.272061e+02 
2.700700e-01 5.231544e+02 
2.712400e-01 5.193443e+02 
2.724800e-01 5.153522e+02 
2.736700e-01 5.115974e+02 
2.748800e-01 5.078557e+02 
2.761000e-01 5.041257e+02 
2.773200e-01 5.004377e+02 
2.785400e-01 4.968051e+02 
2.797000e-01 4.934178e+02 
2.808900e-01 4.899801e+02 
2.821400e-01 4.864090e+02 
2.833900e-01 4.828792e+02 
2.845500e-01 4.796643e+02 
2.857800e-01 4.762918e+02 
2.870300e-01 4.729023e+02 
2.882100e-01 4.697369e+02 
2.893900e-01 4.666158e+02 
2.906300e-01 4.633770e+02 
2.918900e-01 4.601218e+02 
2.930500e-01 4.571564e+02 
2.942500e-01 4.541218e+02 
2.954200e-01 4.511985e+02 
2.966500e-01 4.481569e+02 
2.978900e-01 4.451229e+02 
2.990400e-01 4.423378e+02 
3.002700e-01 4.393899e+02 
3.015100e-01 4.364494e+02 
3.026800e-01 4.337031e+02 
3.038500e-01 4.309837e+02 
3.050300e-01 4.282679e+02 
3.062600e-01 4.254641e+02 
3.075000e-01 4.226664e+02 
3.087000e-01 4.199862e+02 
3.099100e-01 4.173104e+02 
3.111200e-01 4.146616e+02 
3.123100e-01 4.120826e+02 
3.135300e-01 4.094645e+02 
3.147300e-01 4.069146e+02 
3.159900e-01 4.042637e+02 
3.171800e-01 4.017848e+02 
3.183700e-01 3.993296e+02 
3.196300e-01 3.967553e+02 
3.208400e-01 3.943075e+02 
3.220300e-01 3.919230e+02 
3.232000e-01 3.896029e+02 
3.244300e-01 3.871876e+02 
3.256700e-01 3.847763e+02 
3.269200e-01 3.823692e+02 
3.280800e-01 3.801563e+02 
3.292500e-01 3.779494e+02 
3.304800e-01 3.756523e+02 
3.317100e-01 3.733770e+02 
3.328900e-01 3.712143e+02 
3.340700e-01 3.690712e+02 
3.353600e-01 3.667570e+02 
3.365300e-01 3.646803e+02 
3.377100e-01 3.626043e+02 
3.389200e-01 3.604948e+02 
3.401600e-01 3.583527e+02 
3.413700e-01 3.562888e+02 
3.425300e-01 3.543326e+02 
3.437700e-01 3.522600e+02 
3.449800e-01 3.502559e+02 
3.461800e-01 3.482859e+02 
3.473600e-01 3.463697e+02 
3.485800e-01 3.444158e+02 
3.498100e-01 3.424634e+02 
3.510200e-01 3.405598e+02 
3.522000e-01 3.387193e+02 
3.533900e-01 3.368790e+02 
3.546400e-01 3.349768e+02 
3.558400e-01 3.331674e+02 
3.570600e-01 3.313436e+02 
3.582700e-01 3.295504e+02 
3.595000e-01 3.277432e+02 
3.607100e-01 3.259892e+02 
3.618900e-01 3.242998e+02 
3.631200e-01 3.225536e+02 
3.643200e-01 3.208644e+02 
3.655500e-01 3.191475e+02 
3.667300e-01 3.175141e+02 
3.679500e-01 3.158562e+02 
3.691900e-01 3.141854e+02 
3.703600e-01 3.126218e+02 
3.715700e-01 3.110178e+02 
3.727700e-01 3.094401e+02 
3.739900e-01 3.078549e+02 
3.752000e-01 3.063058e+02 
3.763900e-01 3.047946e+02 
3.775800e-01 3.032953e+02 
3.788200e-01 3.017457e+02 
3.800300e-01 3.002459e+02 
3.812100e-01 2.988034e+02 
3.824200e-01 2.973417e+02 
3.836100e-01 2.959155e+02 
3.848600e-01 2.944294e+02 
3.860400e-01 2.930375e+02 
3.872400e-01 2.916330e+02 
3.884600e-01 2.902270e+02 
3.896500e-01 2.888701e+02 
3.908700e-01 2.874898e+02 
3.920600e-01 2.861539e+02 
3.933100e-01 2.847615e+02 
3.945300e-01 2.834132e+02 
3.957200e-01 2.821194e+02 
3.969300e-01 2.808171e+02 
3.981700e-01 2.794928e+02 
3.993500e-01 2.782422e+02 
4.094840e-01 2.679224e+02 
4.272360e-01 2.515848e+02 
4.454600e-01 2.366851e+02 
4.630560e-01 2.237856e+02 
4.804610e-01 2.122338e+02 
4.980690e-01 2.015877e+02 
5.159230e-01 1.917116e+02 
5.317440e-01 1.836477e+02 
5.489640e-01 1.755187e+02 
5.671990e-01 1.675751e+02 
5.838690e-01 1.608586e+02 
6.018840e-01 1.541286e+02 
6.202330e-01 1.477897e+02 
6.379250e-01 1.421195e+02 
6.545410e-01 1.371650e+02 
6.714560e-01 1.324492e+02 
6.892080e-01 1.278305e+02 
7.066010e-01 1.236101e+02 
7.240540e-01 1.196390e+02 
7.420450e-01 1.158152e+02 
7.593780e-01 1.123610e+02 
7.764720e-01 1.091528e+02 
7.942840e-01 1.060043e+02 
8.116170e-01 1.031199e+02 
8.288310e-01 1.004136e+02 
8.462240e-01 9.782729e+01 
8.631980e-01 9.543222e+01 
8.810700e-01 9.303805e+01 
8.989410e-01 9.076387e+01 
9.166330e-01 8.862423e+01 
9.345640e-01 8.656144e+01 
9.515980e-01 8.468982e+01 
9.688720e-01 8.287288e+01 
9.865640e-01 8.109372e+01 
1.031870e+00 7.686263e+01 
1.063490e+00 7.415758e+01 
1.097920e+00 7.141754e+01 
1.134370e+00 6.871655e+01 
1.167730e+00 6.640854e+01 
1.203830e+00 6.406242e+01 
1.240470e+00 6.183177e+01 
1.275790e+00 5.980745e+01 
1.309140e+00 5.800273e+01 
1.342970e+00 5.625893e+01 
1.378420e+00 5.452917e+01 
1.413200e+00 5.291682e+01 
1.448110e+00 5.137536e+01 
1.484090e+00 4.986321e+01 
1.518820e+00 4.847021e+01 
1.552880e+00 4.716381e+01 
1.588630e+00 4.585132e+01 
1.623230e+00 4.463658e+01 
1.657720e+00 4.347420e+01 
1.692450e+00 4.235270e+01 
1.726400e+00 4.129743e+01 
1.762200e+00 4.022670e+01 
1.797880e+00 3.920193e+01 
1.833270e+00 3.822524e+01 
1.869070e+00 3.727316e+01 
1.903200e+00 3.639876e+01 
1.937740e+00 3.554500e+01 
1.973190e+00 3.469963e+01 
2.007440e+00 3.391141e+01 
2.042160e+00 3.313860e+01 
2.077900e+00 3.236964e+01 
2.112390e+00 3.165290e+01 
2.146220e+00 3.097123e+01 
2.181600e+00 3.028154e+01 
2.216930e+00 2.961451e+01 
2.250760e+00 2.899590e+01 
2.286500e+00 2.836274e+01 
2.321770e+00 2.775727e+01 
2.355950e+00 2.718862e+01 
2.391280e+00 2.661636e+01 
2.426240e+00 2.606718e+01 
2.460670e+00 2.554266e+01 
2.495640e+00 2.502589e+01 
2.531080e+00 2.451603e+01 
2.566220e+00 2.402452e+01 
2.600830e+00 2.355430e+01 
2.635080e+00 2.310229e+01 
2.670340e+00 2.264838e+01 
2.705970e+00 2.220267e+01 
2.740040e+00 2.178829e+01 
2.774520e+00 2.137931e+01 
2.809730e+00 2.097216e+01 
2.844390e+00 2.058226e+01 
2.879960e+00 2.019269e+01 
2.914860e+00 1.981986e+01 
2.949410e+00 1.946047e+01 
2.984440e+00 1.910478e+01 
3.019760e+00 1.875500e+01 
3.054730e+00 1.841768e+01 
3.089030e+00 1.809426e+01 
3.124060e+00 1.777242e+01 
3.159560e+00 1.745428e+01 
3.194710e+00 1.714668e+01 
3.229010e+00 1.685411e+01 
3.263320e+00 1.656709e+01 
3.297930e+00 1.628475e+01 
3.332830e+00 1.600653e+01 
3.368040e+00 1.573248e+01 
3.403300e+00 1.546469e+01 
3.438450e+00 1.520344e+01 
3.473060e+00 1.495251e+01 
3.508440e+00 1.470094e+01 
3.543110e+00 1.446050e+01 
3.577470e+00 1.422723e+01 
3.613040e+00 1.399137e+01 
3.648120e+00 1.376346e+01 
3.682910e+00 1.354259e+01 
3.718050e+00 1.332421e+01 
3.753320e+00 1.310991e+01 
3.787980e+00 1.290370e+01 
3.822290e+00 1.270400e+01 
3.857020e+00 1.250600e+01 
3.891920e+00 1.231129e+01 
3.926650e+00 1.212132e+01 
3.961970e+00 1.193238e+01 
3.997360e+00 1.174698e+01 
4.031670e+00 1.157115e+01 
4.066330e+00 1.139688e+01 
4.101420e+00 1.122433e+01 
4.136200e+00 1.105632e+01 
4.170810e+00 1.089278e+01 
4.206250e+00 1.072857e+01 
4.241580e+00 1.056838e+01 
4.276300e+00 1.041399e+01 
4.310970e+00 1.026289e+01 
4.346120e+00 1.011275e+01 
4.380600e+00 9.968245e+00 
4.414730e+00 9.828135e+00 
4.450350e+00 9.684588e+00 
4.485320e+00 9.546592e+00 
4.519810e+00 9.412994e+00 
4.555430e+00 9.277713e+00 
4.590870e+00 9.145766e+00 
4.625480e+00 9.019271e+00 
4.659910e+00 8.895911e+00 
4.695230e+00 8.771751e+00 
4.729960e+00 8.652053e+00 
4.764450e+00 8.535368e+00 
4.799530e+00 8.418786e+00 
4.834910e+00 8.303495e+00 
4.869700e+00 8.192190e+00 
4.904370e+00 8.083349e+00 
4.939450e+00 7.975274e+00 
4.973940e+00 7.870933e+00 
5.008430e+00 7.768517e+00 
5.043810e+00 7.665306e+00 
5.078840e+00 7.564957e+00 
5.113500e+00 7.467486e+00 
5.148890e+00 7.369710e+00 
5.184210e+00 7.273914e+00 
5.219060e+00 7.181104e+00 
5.253660e+00 7.090602e+00 
5.288570e+00 7.000907e+00 
5.323420e+00 6.912923e+00 
5.358440e+00 6.826039e+00 
5.393590e+00 6.740364e+00 
5.428310e+00 6.657230e+00 
5.462800e+00 6.576073e+00 
5.497640e+00 6.495490e+00 
5.532670e+00 6.415901e+00 
5.567280e+00 6.338613e+00 
5.602000e+00 6.262380e+00 
5.637270e+00 6.186261e+00 
5.672410e+00 6.111703e+00 
5.707020e+00 6.039489e+00 
5.742040e+00 5.967735e+00 
5.777430e+00 5.896445e+00 
5.812210e+00 5.827534e+00 
5.846820e+00 5.760081e+00 
5.881610e+00 5.693368e+00 
5.916510e+00 5.627518e+00 
5.951600e+00 5.562435e+00 
5.986560e+00 5.498655e+00 
6.021830e+00 5.435333e+00 
6.056490e+00 5.374166e+00 
6.091160e+00 5.313998e+00 
6.125830e+00 5.254759e+00 
6.161090e+00 5.195477e+00 
6.195760e+00 5.138153e+00 
6.230420e+00 5.081716e+00 
6.265690e+00 5.025167e+00 
6.300950e+00 4.969626e+00 
6.335620e+00 4.915838e+00 
6.370880e+00 4.861955e+00 
6.405550e+00 4.809850e+00 
6.440220e+00 4.758546e+00 
6.475480e+00 4.707141e+00 
6.510150e+00 4.657383e+00 
6.544810e+00 4.608460e+00 
6.580080e+00 4.559401e+00 
6.614750e+00 4.511875e+00 
6.649410e+00 4.465150e+00 
6.684080e+00 4.419096e+00 
6.719340e+00 4.372928e+00 
6.754010e+00 4.328228e+00 
6.788680e+00 4.284274e+00 
6.823940e+00 4.240200e+00 
6.859800e+00 4.196013e+00 
6.894470e+00 4.153980e+00 
6.929140e+00 4.112556e+00 
6.963800e+00 4.071710e+00 
6.999070e+00 4.030725e+00 
7.033730e+00 3.991141e+00 
7.068400e+00 3.952080e+00 
7.103660e+00 3.912890e+00 
7.138330e+00 3.874919e+00 
7.173600e+00 3.836899e+00 
7.208260e+00 3.800034e+00 
7.243530e+00 3.763018e+00 
7.277600e+00 3.727790e+00 
7.312860e+00 3.691863e+00 
7.348120e+00 3.656409e+00 
7.382790e+00 3.622003e+00 
7.417460e+00 3.588159e+00 
7.452720e+00 3.554244e+00 
7.487390e+00 3.521325e+00 
7.522650e+00 3.488273e+00 
7.557320e+00 3.456282e+00 
7.591990e+00 3.424727e+00 
7.627250e+00 3.393040e+00 
7.662510e+00 3.361754e+00 
7.697180e+00 3.331477e+00 
7.731850e+00 3.301611e+00 
7.766510e+00 3.272121e+00 
7.801180e+00 3.242982e+00 
7.836440e+00 3.213784e+00 
7.871110e+00 3.185470e+00 
7.906380e+00 3.157016e+00 
7.941040e+00 3.129392e+00 
7.976310e+00 3.101678e+00 
8.011570e+00 3.074374e+00 
8.046240e+00 3.047848e+00 
8.080900e+00 3.021643e+00 
8.115570e+00 2.995766e+00 
8.150830e+00 2.969868e+00 
8.185500e+00 2.944702e+00 
8.220770e+00 2.919400e+00 
8.255430e+00 2.894825e+00 
8.290100e+00 2.870640e+00 
8.324770e+00 2.846746e+00 
8.359430e+00 2.823131e+00 
8.394700e+00 2.799376e+00 
8.429960e+00 2.775960e+00 
8.464630e+00 2.753258e+00 
8.499890e+00 2.730431e+00 
8.534560e+00 2.708238e+00 
8.569200e+00 2.686311e+00 
