# Parameters:
# omega_b = 0.022303, omega_m = 0.124134, n_s = 0.933465, h = 61.614173, w = -1.000000, sigma_8 = 0.818110
# z = 1.500000
#
# k[1/Mpc] # P(k):
8.694000e-04 7.514051e+03 
2.077466e-03 1.541469e+04 
3.285532e-03 2.120797e+04 
4.493598e-03 2.538609e+04 
5.701664e-03 2.826632e+04 
6.909730e-03 3.010825e+04 
8.117797e-03 3.116954e+04 
9.325863e-03 3.158444e+04 
1.053393e-02 3.148138e+04 
1.174199e-02 3.097368e+04 
1.295006e-02 3.013304e+04 
1.415813e-02 2.905119e+04 
1.536619e-02 2.780748e+04 
1.657426e-02 2.645542e+04 
1.778233e-02 2.504025e+04 
1.899039e-02 2.362647e+04 
2.019846e-02 2.224779e+04 
2.140652e-02 2.093174e+04 
2.261459e-02 1.969297e+04 
2.382266e-02 1.854718e+04 
2.503072e-02 1.750317e+04 
2.623879e-02 1.656133e+04 
2.744685e-02 1.572096e+04 
2.865492e-02 1.497728e+04 
2.986299e-02 1.432219e+04 
3.100100e-02 1.378232e+04 
3.220400e-02 1.328321e+04 
3.288100e-02 1.303333e+04 
3.424300e-02 1.258553e+04 
3.555100e-02 1.221265e+04 
3.686000e-02 1.188526e+04 
3.795000e-02 1.163855e+04 
3.929100e-02 1.135908e+04 
4.039800e-02 1.113948e+04 
4.164000e-02 1.089925e+04 
4.294400e-02 1.064133e+04 
4.415000e-02 1.039948e+04 
4.542900e-02 1.012671e+04 
4.660900e-02 9.867175e+03 
4.782300e-02 9.578101e+03 
4.892900e-02 9.306527e+03 
5.031200e-02 8.953026e+03 
5.155900e-02 8.622307e+03 
5.238100e-02 8.401452e+03 
5.378200e-02 8.024577e+03 
5.513400e-02 7.665067e+03 
5.627600e-02 7.370832e+03 
5.735300e-02 7.106285e+03 
5.870100e-02 6.798101e+03 
5.988700e-02 6.551224e+03 
6.113500e-02 6.316020e+03 
6.225900e-02 6.125179e+03 
6.340100e-02 5.948549e+03 
6.480200e-02 5.749788e+03 
6.601100e-02 5.592659e+03 
6.725500e-02 5.441708e+03 
6.829100e-02 5.324579e+03 
6.958600e-02 5.187312e+03 
7.071100e-02 5.077518e+03 
7.192300e-02 4.968503e+03 
7.307400e-02 4.873450e+03 
7.412300e-02 4.793436e+03 
7.550400e-02 4.697269e+03 
7.663100e-02 4.624409e+03 
7.791200e-02 4.547224e+03 
7.912700e-02 4.477170e+03 
8.027600e-02 4.412442e+03 
8.138400e-02 4.350617e+03 
8.272200e-02 4.275543e+03 
8.406100e-02 4.198913e+03 
8.534100e-02 4.122199e+03 
8.653800e-02 4.047020e+03 
8.759800e-02 3.978562e+03 
8.900300e-02 3.884526e+03 
9.009000e-02 3.808887e+03 
9.113300e-02 3.733817e+03 
9.239600e-02 3.642000e+03 
9.358000e-02 3.554493e+03 
9.496100e-02 3.451024e+03 
9.608400e-02 3.367719e+03 
9.727500e-02 3.280754e+03 
9.852600e-02 3.190706e+03 
9.973800e-02 3.106623e+03 
1.009000e-01 3.028820e+03 
1.020900e-01 2.953791e+03 
1.034000e-01 2.875614e+03 
1.046000e-01 2.808153e+03 
1.057200e-01 2.751046e+03 
1.069100e-01 2.693682e+03 
1.082500e-01 2.635759e+03 
1.093900e-01 2.591015e+03 
1.105400e-01 2.548854e+03 
1.116900e-01 2.511841e+03 
1.129600e-01 2.473329e+03 
1.142000e-01 2.439758e+03 
1.153300e-01 2.410724e+03 
1.166400e-01 2.379151e+03 
1.177800e-01 2.352623e+03 
1.190000e-01 2.325038e+03 
1.201200e-01 2.299225e+03 
1.213400e-01 2.271572e+03 
1.227100e-01 2.238343e+03 
1.238900e-01 2.209670e+03 
1.250700e-01 2.179103e+03 
1.263200e-01 2.146437e+03 
1.275500e-01 2.112724e+03 
1.287500e-01 2.079514e+03 
1.299900e-01 2.044274e+03 
1.311300e-01 2.011884e+03 
1.323500e-01 1.976896e+03 
1.335900e-01 1.941841e+03 
1.347100e-01 1.910438e+03 
1.359800e-01 1.875681e+03 
1.372100e-01 1.842856e+03 
1.384300e-01 1.811278e+03 
1.395700e-01 1.782916e+03 
1.407700e-01 1.753836e+03 
1.420300e-01 1.725089e+03 
1.432800e-01 1.697234e+03 
1.444500e-01 1.672967e+03 
1.456300e-01 1.649008e+03 
1.468900e-01 1.624861e+03 
1.480500e-01 1.603361e+03 
1.491700e-01 1.583380e+03 
1.503800e-01 1.562692e+03 
1.516400e-01 1.541704e+03 
1.528200e-01 1.522918e+03 
1.540200e-01 1.504186e+03 
1.551900e-01 1.486467e+03 
1.564300e-01 1.468097e+03 
1.576600e-01 1.450231e+03 
1.588700e-01 1.432990e+03 
1.600900e-01 1.415926e+03 
1.612700e-01 1.399517e+03 
1.625400e-01 1.382192e+03 
1.637600e-01 1.365654e+03 
1.649500e-01 1.349697e+03 
1.662200e-01 1.332924e+03 
1.674000e-01 1.317281e+03 
1.685000e-01 1.302951e+03 
1.697500e-01 1.286762e+03 
1.710300e-01 1.270307e+03 
1.722200e-01 1.255292e+03 
1.734400e-01 1.239889e+03 
1.746400e-01 1.224999e+03 
1.758700e-01 1.209959e+03 
1.770900e-01 1.195203e+03 
1.782700e-01 1.181182e+03 
1.794600e-01 1.167272e+03 
1.807000e-01 1.153024e+03 
1.819100e-01 1.139366e+03 
1.830100e-01 1.127236e+03 
1.842200e-01 1.114126e+03 
1.855000e-01 1.100510e+03 
1.867000e-01 1.088182e+03 
1.879200e-01 1.075857e+03 
1.890900e-01 1.064273e+03 
1.902800e-01 1.052890e+03 
1.915200e-01 1.041223e+03 
1.926900e-01 1.030457e+03 
1.939000e-01 1.019710e+03 
1.951700e-01 1.008613e+03 
1.963100e-01 9.988715e+02 
1.975100e-01 9.889381e+02 
1.987800e-01 9.785918e+02 
2.000100e-01 9.687802e+02 
2.012500e-01 9.591576e+02 
2.023400e-01 9.508228e+02 
2.036100e-01 9.412712e+02 
2.048900e-01 9.318614e+02 
2.060400e-01 9.235337e+02 
2.072200e-01 9.151111e+02 
2.084200e-01 9.066768e+02 
2.096900e-01 8.978837e+02 
2.109200e-01 8.894955e+02 
2.121100e-01 8.814366e+02 
2.132700e-01 8.736876e+02 
2.145200e-01 8.654567e+02 
2.157200e-01 8.576023e+02 
2.168800e-01 8.500842e+02 
2.180700e-01 8.424777e+02 
2.193400e-01 8.344290e+02 
2.206000e-01 8.264735e+02 
2.217500e-01 8.193138e+02 
2.229500e-01 8.119438e+02 
2.241400e-01 8.046033e+02 
2.253500e-01 7.972385e+02 
2.264900e-01 7.903927e+02 
2.277100e-01 7.831032e+02 
2.289900e-01 7.754950e+02 
2.301500e-01 7.686951e+02 
2.313600e-01 7.616957e+02 
2.325600e-01 7.547457e+02 
2.337700e-01 7.478321e+02 
2.350000e-01 7.408997e+02 
2.362000e-01 7.341926e+02 
2.374100e-01 7.274786e+02 
2.386500e-01 7.206909e+02 
2.399100e-01 7.138882e+02 
2.410400e-01 7.078447e+02 
2.422500e-01 7.014528e+02 
2.435000e-01 6.949376e+02 
2.447300e-01 6.886150e+02 
2.458700e-01 6.828408e+02 
2.470600e-01 6.768882e+02 
2.483300e-01 6.706184e+02 
2.495600e-01 6.646477e+02 
2.507600e-01 6.589259e+02 
2.519600e-01 6.532759e+02 
2.532200e-01 6.474192e+02 
2.543700e-01 6.421860e+02 
2.555500e-01 6.369113e+02 
2.568000e-01 6.313929e+02 
2.580100e-01 6.261179e+02 
2.592400e-01 6.208885e+02 
2.604100e-01 6.160032e+02 
2.616100e-01 6.110518e+02 
2.628400e-01 6.060377e+02 
2.640600e-01 6.011934e+02 
2.652200e-01 5.966681e+02 
2.664300e-01 5.920022e+02 
2.676500e-01 5.873531e+02 
2.688400e-01 5.829194e+02 
2.700700e-01 5.784199e+02 
2.712400e-01 5.741888e+02 
2.724800e-01 5.697556e+02 
2.736700e-01 5.655847e+02 
2.748800e-01 5.614269e+02 
2.761000e-01 5.572822e+02 
2.773200e-01 5.531842e+02 
2.785400e-01 5.491469e+02 
2.797000e-01 5.453805e+02 
2.808900e-01 5.415580e+02 
2.821400e-01 5.375872e+02 
2.833900e-01 5.336624e+02 
2.845500e-01 5.300858e+02 
2.857800e-01 5.263337e+02 
2.870300e-01 5.225628e+02 
2.882100e-01 5.190414e+02 
2.893900e-01 5.155692e+02 
2.906300e-01 5.119659e+02 
2.918900e-01 5.083445e+02 
2.930500e-01 5.050457e+02 
2.942500e-01 5.016703e+02 
2.954200e-01 4.984200e+02 
2.966500e-01 4.950384e+02 
2.978900e-01 4.916652e+02 
2.990400e-01 4.885689e+02 
3.002700e-01 4.852937e+02 
3.015100e-01 4.820278e+02 
3.026800e-01 4.789777e+02 
3.038500e-01 4.759575e+02 
3.050300e-01 4.729415e+02 
3.062600e-01 4.698315e+02 
3.075000e-01 4.667284e+02 
3.087000e-01 4.637557e+02 
3.099100e-01 4.607879e+02 
3.111200e-01 4.578513e+02 
3.123100e-01 4.549943e+02 
3.135300e-01 4.520941e+02 
3.147300e-01 4.492694e+02 
3.159900e-01 4.463329e+02 
3.171800e-01 4.435893e+02 
3.183700e-01 4.408733e+02 
3.196300e-01 4.380258e+02 
3.208400e-01 4.353180e+02 
3.220300e-01 4.326804e+02 
3.232000e-01 4.301154e+02 
3.244300e-01 4.274459e+02 
3.256700e-01 4.247807e+02 
3.269200e-01 4.221202e+02 
3.280800e-01 4.196743e+02 
3.292500e-01 4.172362e+02 
3.304800e-01 4.146988e+02 
3.317100e-01 4.121854e+02 
3.328900e-01 4.097964e+02 
3.340700e-01 4.074290e+02 
3.353600e-01 4.048729e+02 
3.365300e-01 4.025792e+02 
3.377100e-01 4.002863e+02 
3.389200e-01 3.979563e+02 
3.401600e-01 3.955905e+02 
3.413700e-01 3.933103e+02 
3.425300e-01 3.911486e+02 
3.437700e-01 3.888584e+02 
3.449800e-01 3.866438e+02 
3.461800e-01 3.844669e+02 
3.473600e-01 3.823490e+02 
3.485800e-01 3.801882e+02 
3.498100e-01 3.780291e+02 
3.510200e-01 3.759238e+02 
3.522000e-01 3.738885e+02 
3.533900e-01 3.718534e+02 
3.546400e-01 3.697466e+02 
3.558400e-01 3.677424e+02 
3.570600e-01 3.657223e+02 
3.582700e-01 3.637361e+02 
3.595000e-01 3.617344e+02 
3.607100e-01 3.597900e+02 
3.618900e-01 3.579158e+02 
3.631200e-01 3.559786e+02 
3.643200e-01 3.541047e+02 
3.655500e-01 3.522000e+02 
3.667300e-01 3.503881e+02 
3.679500e-01 3.485451e+02 
3.691900e-01 3.466877e+02 
3.703600e-01 3.449496e+02 
3.715700e-01 3.431666e+02 
3.727700e-01 3.414128e+02 
3.739900e-01 3.396493e+02 
3.752000e-01 3.379232e+02 
3.763900e-01 3.362393e+02 
3.775800e-01 3.345689e+02 
3.788200e-01 3.328423e+02 
3.800300e-01 3.311713e+02 
3.812100e-01 3.295621e+02 
3.824200e-01 3.279300e+02 
3.836100e-01 3.263376e+02 
3.848600e-01 3.246782e+02 
3.860400e-01 3.231242e+02 
3.872400e-01 3.215562e+02 
3.884600e-01 3.199837e+02 
3.896500e-01 3.184653e+02 
3.908700e-01 3.169206e+02 
3.920600e-01 3.154257e+02 
3.933100e-01 3.138676e+02 
3.945300e-01 3.123589e+02 
3.957200e-01 3.109085e+02 
3.969300e-01 3.094479e+02 
3.981700e-01 3.079625e+02 
3.993500e-01 3.065599e+02 
4.094840e-01 2.949763e+02 
4.272360e-01 2.765882e+02 
4.454600e-01 2.598046e+02 
4.630560e-01 2.452892e+02 
4.804610e-01 2.323223e+02 
4.980690e-01 2.204170e+02 
5.159230e-01 2.094158e+02 
5.317440e-01 2.004697e+02 
5.489640e-01 1.914859e+02 
5.671990e-01 1.827420e+02 
5.838690e-01 1.753732e+02 
6.018840e-01 1.680122e+02 
6.202330e-01 1.610969e+02 
6.379250e-01 1.549210e+02 
6.545410e-01 1.495340e+02 
6.714560e-01 1.444114e+02 
6.892080e-01 1.393979e+02 
7.066010e-01 1.348201e+02 
7.240540e-01 1.305122e+02 
7.420450e-01 1.263646e+02 
7.593780e-01 1.226157e+02 
7.764720e-01 1.191337e+02 
7.942840e-01 1.157131e+02 
8.116170e-01 1.125782e+02 
8.288310e-01 1.096336e+02 
8.462240e-01 1.068182e+02 
8.631980e-01 1.042084e+02 
8.810700e-01 1.015966e+02 
8.989410e-01 9.911219e+01 
9.166330e-01 9.677261e+01 
9.345640e-01 9.451658e+01 
9.515980e-01 9.246631e+01 
9.688720e-01 9.047339e+01 
9.865640e-01 8.852003e+01 
1.031870e+00 8.386635e+01 
1.063490e+00 8.088596e+01 
1.097920e+00 7.786209e+01 
1.134370e+00 7.487685e+01 
1.167730e+00 7.232271e+01 
1.203830e+00 6.972208e+01 
1.240470e+00 6.724744e+01 
1.275790e+00 6.500050e+01 
1.309140e+00 6.299538e+01 
1.342970e+00 6.105607e+01 
1.378420e+00 5.913235e+01 
1.413200e+00 5.733840e+01 
1.448110e+00 5.562359e+01 
1.484090e+00 5.394027e+01 
1.518820e+00 5.238979e+01 
1.552880e+00 5.093621e+01 
1.588630e+00 4.947604e+01 
1.623230e+00 4.812491e+01 
1.657720e+00 4.683142e+01 
1.692450e+00 4.558456e+01 
1.726400e+00 4.441220e+01 
1.762200e+00 4.322295e+01 
1.797880e+00 4.208458e+01 
1.833270e+00 4.100067e+01 
1.869070e+00 3.994447e+01 
1.903200e+00 3.897466e+01 
1.937740e+00 3.802870e+01 
1.973190e+00 3.709268e+01 
2.007440e+00 3.622065e+01 
2.042160e+00 3.536571e+01 
2.077900e+00 3.451554e+01 
2.112390e+00 3.372405e+01 
2.146220e+00 3.297172e+01 
2.181600e+00 3.221099e+01 
2.216930e+00 3.147567e+01 
2.250760e+00 3.079429e+01 
2.286500e+00 3.009748e+01 
2.321770e+00 2.943164e+01 
2.355950e+00 2.880690e+01 
2.391280e+00 2.817832e+01 
2.426240e+00 2.757563e+01 
2.460670e+00 2.700050e+01 
2.495640e+00 2.643430e+01 
2.531080e+00 2.587620e+01 
2.566220e+00 2.533836e+01 
2.600830e+00 2.482422e+01 
2.635080e+00 2.433045e+01 
2.670340e+00 2.383524e+01 
2.705970e+00 2.334916e+01 
2.740040e+00 2.289748e+01 
2.774520e+00 2.245219e+01 
2.809730e+00 2.200914e+01 
2.844390e+00 2.158514e+01 
2.879960e+00 2.116207e+01 
2.914860e+00 2.075740e+01 
2.949410e+00 2.036752e+01 
2.984440e+00 1.998204e+01 
3.019760e+00 1.960313e+01 
3.054730e+00 1.923789e+01 
3.089030e+00 1.888827e+01 
3.124060e+00 1.854055e+01 
3.159560e+00 1.819708e+01 
3.194710e+00 1.786529e+01 
3.229010e+00 1.754987e+01 
3.263320e+00 1.724070e+01 
3.297930e+00 1.693672e+01 
3.332830e+00 1.663745e+01 
3.368040e+00 1.634292e+01 
3.403300e+00 1.605534e+01 
3.438450e+00 1.577505e+01 
3.473060e+00 1.550594e+01 
3.508440e+00 1.523632e+01 
3.543110e+00 1.497877e+01 
3.577470e+00 1.472936e+01 
3.613040e+00 1.447723e+01 
3.648120e+00 1.423364e+01 
3.682910e+00 1.399778e+01 
3.718050e+00 1.376489e+01 
3.753320e+00 1.353644e+01 
3.787980e+00 1.331673e+01 
3.822290e+00 1.310408e+01 
3.857020e+00 1.289342e+01 
3.891920e+00 1.268637e+01 
3.926650e+00 1.248454e+01 
3.961970e+00 1.228394e+01 
3.997360e+00 1.208734e+01 
4.031670e+00 1.190095e+01 
4.066330e+00 1.171628e+01 
4.101420e+00 1.153349e+01 
4.136200e+00 1.135575e+01 
4.170810e+00 1.118279e+01 
4.206250e+00 1.100927e+01 
4.241580e+00 1.084006e+01 
4.276300e+00 1.067713e+01 
4.310970e+00 1.051777e+01 
4.346120e+00 1.035951e+01 
4.380600e+00 1.020730e+01 
4.414730e+00 1.005975e+01 
4.450350e+00 9.908748e+00 
4.485320e+00 9.763622e+00 
4.519810e+00 9.623245e+00 
4.555430e+00 9.481172e+00 
4.590870e+00 9.342658e+00 
4.625480e+00 9.209950e+00 
4.659910e+00 9.080559e+00 
4.695230e+00 8.950502e+00 
4.729960e+00 8.825169e+00 
4.764450e+00 8.703061e+00 
4.799530e+00 8.581164e+00 
4.834910e+00 8.460641e+00 
4.869700e+00 8.344374e+00 
4.904370e+00 8.230715e+00 
4.939450e+00 8.117902e+00 
4.973940e+00 8.009072e+00 
5.008430e+00 7.902271e+00 
5.043810e+00 7.794715e+00 
5.078840e+00 7.690194e+00 
5.113500e+00 7.588689e+00 
5.148890e+00 7.486998e+00 
5.184210e+00 7.387390e+00 
5.219060e+00 7.290922e+00 
5.253660e+00 7.196922e+00 
5.288570e+00 7.103775e+00 
5.323420e+00 7.012448e+00 
5.358440e+00 6.922305e+00 
5.393590e+00 6.833433e+00 
5.428310e+00 6.747273e+00 
5.462800e+00 6.663209e+00 
5.497640e+00 6.579754e+00 
5.532670e+00 6.497405e+00 
5.567280e+00 6.417472e+00 
5.602000e+00 6.338642e+00 
5.637270e+00 6.259985e+00 
5.672410e+00 6.182963e+00 
5.707020e+00 6.108373e+00 
5.742040e+00 6.034332e+00 
5.777430e+00 5.960795e+00 
5.812210e+00 5.889721e+00 
5.846820e+00 5.820188e+00 
5.881610e+00 5.751435e+00 
5.916510e+00 5.683581e+00 
5.951600e+00 5.616572e+00 
5.986560e+00 5.550936e+00 
6.021830e+00 5.485780e+00 
6.056490e+00 5.422886e+00 
6.091160e+00 5.361059e+00 
6.125830e+00 5.300195e+00 
6.161090e+00 5.239303e+00 
6.195760e+00 5.180445e+00 
6.230420e+00 5.122506e+00 
6.265690e+00 5.064462e+00 
6.300950e+00 5.007527e+00 
6.335620e+00 4.952396e+00 
6.370880e+00 4.897175e+00 
6.405550e+00 4.843795e+00 
6.440220e+00 4.791248e+00 
6.475480e+00 4.738603e+00 
6.510150e+00 4.687667e+00 
6.544810e+00 4.637629e+00 
6.580080e+00 4.587456e+00 
6.614750e+00 4.538857e+00 
6.649410e+00 4.491108e+00 
6.684080e+00 4.444055e+00 
6.719340e+00 4.396889e+00 
6.754010e+00 4.351242e+00 
6.788680e+00 4.306392e+00 
6.823940e+00 4.261424e+00 
6.859800e+00 4.216346e+00 
6.894470e+00 4.173492e+00 
6.929140e+00 4.131272e+00 
6.963800e+00 4.089645e+00 
6.999070e+00 4.047881e+00 
7.033730e+00 4.007572e+00 
7.068400e+00 3.967797e+00 
7.103660e+00 3.927896e+00 
7.138330e+00 3.889246e+00 
7.173600e+00 3.850565e+00 
7.208260e+00 3.813063e+00 
7.243530e+00 3.775410e+00 
7.277600e+00 3.739595e+00 
7.312860e+00 3.703086e+00 
7.348120e+00 3.667062e+00 
7.382790e+00 3.632105e+00 
7.417460e+00 3.597748e+00 
7.452720e+00 3.563337e+00 
7.487390e+00 3.529939e+00 
7.522650e+00 3.496408e+00 
7.557320e+00 3.463962e+00 
7.591990e+00 3.431964e+00 
7.627250e+00 3.399834e+00 
7.662510e+00 3.368113e+00 
7.697180e+00 3.337434e+00 
7.731850e+00 3.307182e+00 
7.766510e+00 3.277312e+00 
7.801180e+00 3.247800e+00 
7.836440e+00 3.218237e+00 
7.871110e+00 3.189575e+00 
7.906380e+00 3.160773e+00 
7.941040e+00 3.132815e+00 
7.976310e+00 3.104777e+00 
8.011570e+00 3.077171e+00 
8.046240e+00 3.050353e+00 
8.080900e+00 3.023860e+00 
8.115570e+00 2.997703e+00 
8.150830e+00 2.971534e+00 
8.185500e+00 2.946107e+00 
8.220770e+00 2.920543e+00 
8.255430e+00 2.895715e+00 
8.290100e+00 2.871306e+00 
8.324770e+00 2.847194e+00 
8.359430e+00 2.823364e+00 
8.394700e+00 2.799394e+00 
8.429960e+00 2.775776e+00 
8.464630e+00 2.752886e+00 
8.499890e+00 2.729871e+00 
8.534560e+00 2.707496e+00 
8.569200e+00 2.685391e+00 
