# Parameters:
# omega_b = 0.021831, omega_m = 0.151969, n_s = 1.023228, h = 55.944882, w = -1.000000, sigma_8 = 0.843307
# z = 1.500000
#
# k[1/Mpc] # P(k):
8.694000e-04 2.765503e+03 
2.077466e-03 6.260942e+03 
3.285532e-03 9.189683e+03 
4.493598e-03 1.158229e+04 
5.701664e-03 1.348234e+04 
6.909730e-03 1.493940e+04 
8.117797e-03 1.602821e+04 
9.325863e-03 1.678769e+04 
1.053393e-02 1.726369e+04 
1.174199e-02 1.750273e+04 
1.295006e-02 1.753230e+04 
1.415813e-02 1.739274e+04 
1.536619e-02 1.712146e+04 
1.657426e-02 1.674286e+04 
1.778233e-02 1.627864e+04 
1.899039e-02 1.576355e+04 
2.019846e-02 1.521747e+04 
2.140652e-02 1.465867e+04 
2.261459e-02 1.409707e+04 
2.382266e-02 1.354632e+04 
2.503072e-02 1.301809e+04 
2.623879e-02 1.251827e+04 
2.744685e-02 1.204919e+04 
2.865492e-02 1.161597e+04 
2.986299e-02 1.121881e+04 
3.100100e-02 1.087798e+04 
3.220400e-02 1.055156e+04 
3.288100e-02 1.038320e+04 
3.424300e-02 1.007399e+04 
3.555100e-02 9.809954e+03 
3.686000e-02 9.574009e+03 
3.795000e-02 9.395182e+03 
3.929100e-02 9.194025e+03 
4.039800e-02 9.039189e+03 
4.164000e-02 8.873676e+03 
4.294400e-02 8.703553e+03 
4.415000e-02 8.548727e+03 
4.542900e-02 8.380500e+03 
4.660900e-02 8.223532e+03 
4.782300e-02 8.051956e+03 
4.892900e-02 7.891274e+03 
5.031200e-02 7.681857e+03 
5.155900e-02 7.483613e+03 
5.238100e-02 7.349403e+03 
5.378200e-02 7.116335e+03 
5.513400e-02 6.887548e+03 
5.627600e-02 6.694780e+03 
5.735300e-02 6.516495e+03 
5.870100e-02 6.301526e+03 
5.988700e-02 6.122427e+03 
6.113500e-02 5.944006e+03 
6.225900e-02 5.791517e+03 
6.340100e-02 5.642707e+03 
6.480200e-02 5.466601e+03 
6.601100e-02 5.318992e+03 
6.725500e-02 5.171203e+03 
6.829100e-02 5.052205e+03 
6.958600e-02 4.909924e+03 
7.071100e-02 4.793552e+03 
7.192300e-02 4.676424e+03 
7.307400e-02 4.573498e+03 
7.412300e-02 4.486782e+03 
7.550400e-02 4.383517e+03 
7.663100e-02 4.306687e+03 
7.791200e-02 4.228736e+03 
7.912700e-02 4.162349e+03 
8.027600e-02 4.104795e+03 
8.138400e-02 4.053175e+03 
8.272200e-02 3.995100e+03 
8.406100e-02 3.940256e+03 
8.534100e-02 3.889534e+03 
8.653800e-02 3.842176e+03 
8.759800e-02 3.799946e+03 
8.900300e-02 3.742705e+03 
9.009000e-02 3.696604e+03 
9.113300e-02 3.650033e+03 
9.239600e-02 3.592013e+03 
9.358000e-02 3.535024e+03 
9.496100e-02 3.464388e+03 
9.608400e-02 3.405296e+03 
9.727500e-02 3.341733e+03 
9.852600e-02 3.271040e+03 
9.973800e-02 3.202494e+03 
1.009000e-01 3.136949e+03 
1.020900e-01 3.068424e+03 
1.034000e-01 2.994341e+03 
1.046000e-01 2.927598e+03 
1.057200e-01 2.866420e+03 
1.069100e-01 2.803267e+03 
1.082500e-01 2.734623e+03 
1.093900e-01 2.678819e+03 
1.105400e-01 2.624563e+03 
1.116900e-01 2.573734e+03 
1.129600e-01 2.520035e+03 
1.142000e-01 2.471628e+03 
1.153300e-01 2.430042e+03 
1.166400e-01 2.385202e+03 
1.177800e-01 2.349581e+03 
1.190000e-01 2.313515e+03 
1.201200e-01 2.284032e+03 
1.213400e-01 2.253184e+03 
1.227100e-01 2.223002e+03 
1.238900e-01 2.198239e+03 
1.250700e-01 2.175841e+03 
1.263200e-01 2.153100e+03 
1.275500e-01 2.132200e+03 
1.287500e-01 2.112331e+03 
1.299900e-01 2.092347e+03 
1.311300e-01 2.073900e+03 
1.323500e-01 2.053856e+03 
1.335900e-01 2.032967e+03 
1.347100e-01 2.013209e+03 
1.359800e-01 1.990236e+03 
1.372100e-01 1.966374e+03 
1.384300e-01 1.942283e+03 
1.395700e-01 1.917998e+03 
1.407700e-01 1.892695e+03 
1.420300e-01 1.863912e+03 
1.432800e-01 1.836004e+03 
1.444500e-01 1.808350e+03 
1.456300e-01 1.781058e+03 
1.468900e-01 1.751817e+03 
1.480500e-01 1.725269e+03 
1.491700e-01 1.700204e+03 
1.503800e-01 1.673739e+03 
1.516400e-01 1.646981e+03 
1.528200e-01 1.623305e+03 
1.540200e-01 1.599723e+03 
1.551900e-01 1.578438e+03 
1.564300e-01 1.556633e+03 
1.576600e-01 1.536214e+03 
1.588700e-01 1.517447e+03 
1.600900e-01 1.498968e+03 
1.612700e-01 1.482880e+03 
1.625400e-01 1.465889e+03 
1.637600e-01 1.450520e+03 
1.649500e-01 1.436174e+03 
1.662200e-01 1.421219e+03 
1.674000e-01 1.407997e+03 
1.685000e-01 1.395875e+03 
1.697500e-01 1.382306e+03 
1.710300e-01 1.368635e+03 
1.722200e-01 1.356148e+03 
1.734400e-01 1.343149e+03 
1.746400e-01 1.330563e+03 
1.758700e-01 1.317665e+03 
1.770900e-01 1.304649e+03 
1.782700e-01 1.292270e+03 
1.794600e-01 1.279591e+03 
1.807000e-01 1.266333e+03 
1.819100e-01 1.253614e+03 
1.830100e-01 1.241772e+03 
1.842200e-01 1.228872e+03 
1.855000e-01 1.215442e+03 
1.867000e-01 1.202715e+03 
1.879200e-01 1.189988e+03 
1.890900e-01 1.177951e+03 
1.902800e-01 1.165761e+03 
1.915200e-01 1.153265e+03 
1.926900e-01 1.141671e+03 
1.939000e-01 1.129895e+03 
1.951700e-01 1.117735e+03 
1.963100e-01 1.107035e+03 
1.975100e-01 1.096055e+03 
1.987800e-01 1.084619e+03 
2.000100e-01 1.073789e+03 
2.012500e-01 1.063200e+03 
2.023400e-01 1.054028e+03 
2.036100e-01 1.043548e+03 
2.048900e-01 1.033343e+03 
2.060400e-01 1.024311e+03 
2.072200e-01 1.015190e+03 
2.084200e-01 1.006230e+03 
2.096900e-01 9.968881e+02 
2.109200e-01 9.879747e+02 
2.121100e-01 9.795883e+02 
2.132700e-01 9.715319e+02 
2.145200e-01 9.629723e+02 
2.157200e-01 9.549093e+02 
2.168800e-01 9.472382e+02 
2.180700e-01 9.394747e+02 
2.193400e-01 9.312968e+02 
2.206000e-01 9.232835e+02 
2.217500e-01 9.160691e+02 
2.229500e-01 9.086402e+02 
2.241400e-01 9.012944e+02 
2.253500e-01 8.939227e+02 
2.264900e-01 8.870677e+02 
2.277100e-01 8.797708e+02 
2.289900e-01 8.721576e+02 
2.301500e-01 8.653501e+02 
2.313600e-01 8.583395e+02 
2.325600e-01 8.513528e+02 
2.337700e-01 8.443996e+02 
2.350000e-01 8.374241e+02 
2.362000e-01 8.306540e+02 
2.374100e-01 8.238525e+02 
2.386500e-01 8.169732e+02 
2.399100e-01 8.100753e+02 
2.410400e-01 8.038984e+02 
2.422500e-01 7.973570e+02 
2.435000e-01 7.906863e+02 
2.447300e-01 7.842000e+02 
2.458700e-01 7.782339e+02 
2.470600e-01 7.720812e+02 
2.483300e-01 7.655978e+02 
2.495600e-01 7.593999e+02 
2.507600e-01 7.534292e+02 
2.519600e-01 7.475312e+02 
2.532200e-01 7.414151e+02 
2.543700e-01 7.359247e+02 
2.555500e-01 7.303732e+02 
2.568000e-01 7.245632e+02 
2.580100e-01 7.190076e+02 
2.592400e-01 7.134770e+02 
2.604100e-01 7.082996e+02 
2.616100e-01 7.030505e+02 
2.628400e-01 6.977334e+02 
2.640600e-01 6.925815e+02 
2.652200e-01 6.877624e+02 
2.664300e-01 6.827921e+02 
2.676500e-01 6.778384e+02 
2.688400e-01 6.731080e+02 
2.700700e-01 6.683032e+02 
2.712400e-01 6.637837e+02 
2.724800e-01 6.590473e+02 
2.736700e-01 6.545887e+02 
2.748800e-01 6.501419e+02 
2.761000e-01 6.457079e+02 
2.773200e-01 6.413230e+02 
2.785400e-01 6.370022e+02 
2.797000e-01 6.329709e+02 
2.808900e-01 6.288787e+02 
2.821400e-01 6.246269e+02 
2.833900e-01 6.204234e+02 
2.845500e-01 6.165955e+02 
2.857800e-01 6.125790e+02 
2.870300e-01 6.085414e+02 
2.882100e-01 6.047701e+02 
2.893900e-01 6.010515e+02 
2.906300e-01 5.971922e+02 
2.918900e-01 5.933126e+02 
2.930500e-01 5.897778e+02 
2.942500e-01 5.861597e+02 
2.954200e-01 5.826735e+02 
2.966500e-01 5.790457e+02 
2.978900e-01 5.754262e+02 
2.990400e-01 5.721029e+02 
3.002700e-01 5.685836e+02 
3.015100e-01 5.650721e+02 
3.026800e-01 5.617917e+02 
3.038500e-01 5.585429e+02 
3.050300e-01 5.552978e+02 
3.062600e-01 5.519453e+02 
3.075000e-01 5.485995e+02 
3.087000e-01 5.453935e+02 
3.099100e-01 5.421923e+02 
3.111200e-01 5.390216e+02 
3.123100e-01 5.359321e+02 
3.135300e-01 5.327951e+02 
3.147300e-01 5.297392e+02 
3.159900e-01 5.265618e+02 
3.171800e-01 5.235874e+02 
3.183700e-01 5.206392e+02 
3.196300e-01 5.175475e+02 
3.208400e-01 5.146070e+02 
3.220300e-01 5.117421e+02 
3.232000e-01 5.089517e+02 
3.244300e-01 5.060454e+02 
3.256700e-01 5.031433e+02 
3.269200e-01 5.002457e+02 
3.280800e-01 4.975814e+02 
3.292500e-01 4.949217e+02 
3.304800e-01 4.921521e+02 
3.317100e-01 4.894083e+02 
3.328900e-01 4.867998e+02 
3.340700e-01 4.842143e+02 
3.353600e-01 4.814196e+02 
3.365300e-01 4.789102e+02 
3.377100e-01 4.764014e+02 
3.389200e-01 4.738514e+02 
3.401600e-01 4.712617e+02 
3.413700e-01 4.687646e+02 
3.425300e-01 4.663965e+02 
3.437700e-01 4.638871e+02 
3.449800e-01 4.614601e+02 
3.461800e-01 4.590741e+02 
3.473600e-01 4.567524e+02 
3.485800e-01 4.543836e+02 
3.498100e-01 4.520162e+02 
3.510200e-01 4.497075e+02 
3.522000e-01 4.474750e+02 
3.533900e-01 4.452425e+02 
3.546400e-01 4.429332e+02 
3.558400e-01 4.407362e+02 
3.570600e-01 4.385214e+02 
3.582700e-01 4.363433e+02 
3.595000e-01 4.341479e+02 
3.607100e-01 4.320168e+02 
3.618900e-01 4.299637e+02 
3.631200e-01 4.278413e+02 
3.643200e-01 4.257878e+02 
3.655500e-01 4.237003e+02 
3.667300e-01 4.217140e+02 
3.679500e-01 4.196976e+02 
3.691900e-01 4.176649e+02 
3.703600e-01 4.157626e+02 
3.715700e-01 4.138108e+02 
3.727700e-01 4.118906e+02 
3.739900e-01 4.099614e+02 
3.752000e-01 4.080764e+02 
3.763900e-01 4.062372e+02 
3.775800e-01 4.044123e+02 
3.788200e-01 4.025259e+02 
3.800300e-01 4.006998e+02 
3.812100e-01 3.989436e+02 
3.824200e-01 3.971640e+02 
3.836100e-01 3.954273e+02 
3.848600e-01 3.936173e+02 
3.860400e-01 3.919220e+02 
3.872400e-01 3.902111e+02 
3.884600e-01 3.884984e+02 
3.896500e-01 3.868456e+02 
3.908700e-01 3.851641e+02 
3.920600e-01 3.835363e+02 
3.933100e-01 3.818395e+02 
3.945300e-01 3.801963e+02 
3.957200e-01 3.786205e+02 
3.969300e-01 3.770343e+02 
3.981700e-01 3.754211e+02 
3.993500e-01 3.738975e+02 
4.094840e-01 3.613152e+02 
4.272360e-01 3.413776e+02 
4.454600e-01 3.231436e+02 
4.630560e-01 3.072947e+02 
4.804610e-01 2.930295e+02 
4.980690e-01 2.798080e+02 
5.159230e-01 2.674615e+02 
5.317440e-01 2.573238e+02 
5.489640e-01 2.470381e+02 
5.671990e-01 2.369242e+02 
5.838690e-01 2.283321e+02 
6.018840e-01 2.196854e+02 
6.202330e-01 2.115014e+02 
6.379250e-01 2.041576e+02 
6.545410e-01 1.977185e+02 
6.714560e-01 1.915778e+02 
6.892080e-01 1.855496e+02 
7.066010e-01 1.800332e+02 
7.240540e-01 1.748298e+02 
7.420450e-01 1.698154e+02 
7.593780e-01 1.652777e+02 
7.764720e-01 1.610583e+02 
7.942840e-01 1.569097e+02 
8.116170e-01 1.531065e+02 
8.288310e-01 1.495302e+02 
8.462240e-01 1.461102e+02 
8.631980e-01 1.429358e+02 
8.810700e-01 1.397565e+02 
8.989410e-01 1.367282e+02 
9.166330e-01 1.338739e+02 
9.345640e-01 1.311178e+02 
9.515980e-01 1.286088e+02 
9.688720e-01 1.261656e+02 
9.865640e-01 1.237669e+02 
1.031870e+00 1.180295e+02 
1.063490e+00 1.143335e+02 
1.097920e+00 1.105672e+02 
1.134370e+00 1.068261e+02 
1.167730e+00 1.036071e+02 
1.203830e+00 1.003048e+02 
1.240470e+00 9.714415e+01 
1.275790e+00 9.425257e+01 
1.309140e+00 9.165849e+01 
1.342970e+00 8.912807e+01 
1.378420e+00 8.660499e+01 
1.413200e+00 8.423564e+01 
1.448110e+00 8.195627e+01 
1.484090e+00 7.970605e+01 
1.518820e+00 7.761994e+01 
1.552880e+00 7.565162e+01 
1.588630e+00 7.366368e+01 
1.623230e+00 7.181438e+01 
1.657720e+00 7.003510e+01 
1.692450e+00 6.831127e+01 
1.726400e+00 6.668119e+01 
1.762200e+00 6.501963e+01 
1.797880e+00 6.342197e+01 
1.833270e+00 6.189440e+01 
1.869070e+00 6.039876e+01 
1.903200e+00 5.901986e+01 
1.937740e+00 5.766975e+01 
1.973190e+00 5.632887e+01 
2.007440e+00 5.507522e+01 
2.042160e+00 5.384148e+01 
2.077900e+00 5.261052e+01 
2.112390e+00 5.146087e+01 
2.146220e+00 5.036435e+01 
2.181600e+00 4.925214e+01 
2.216930e+00 4.817394e+01 
2.250760e+00 4.717231e+01 
2.286500e+00 4.614535e+01 
2.321770e+00 4.516136e+01 
2.355950e+00 4.423602e+01 
2.391280e+00 4.330198e+01 
2.426240e+00 4.240455e+01 
2.460670e+00 4.154665e+01 
2.495640e+00 4.070067e+01 
2.531080e+00 3.986416e+01 
2.566220e+00 3.905667e+01 
2.600830e+00 3.828346e+01 
2.635080e+00 3.753963e+01 
2.670340e+00 3.679193e+01 
2.705970e+00 3.605707e+01 
2.740040e+00 3.537334e+01 
2.774520e+00 3.469794e+01 
2.809730e+00 3.402483e+01 
2.844390e+00 3.338002e+01 
2.879960e+00 3.273582e+01 
2.914860e+00 3.211867e+01 
2.949410e+00 3.152353e+01 
2.984440e+00 3.093419e+01 
3.019760e+00 3.035419e+01 
3.054730e+00 2.979466e+01 
3.089030e+00 2.925837e+01 
3.124060e+00 2.872466e+01 
3.159560e+00 2.819704e+01 
3.194710e+00 2.768669e+01 
3.229010e+00 2.720130e+01 
3.263320e+00 2.672510e+01 
3.297930e+00 2.625665e+01 
3.332830e+00 2.579495e+01 
3.368040e+00 2.534036e+01 
3.403300e+00 2.489634e+01 
3.438450e+00 2.446304e+01 
3.473060e+00 2.404692e+01 
3.508440e+00 2.362982e+01 
3.543110e+00 2.323132e+01 
3.577470e+00 2.284510e+01 
3.613040e+00 2.245460e+01 
3.648120e+00 2.207709e+01 
3.682910e+00 2.171149e+01 
3.718050e+00 2.135036e+01 
3.753320e+00 2.099602e+01 
3.787980e+00 2.065511e+01 
3.822290e+00 2.032511e+01 
3.857020e+00 1.999814e+01 
3.891920e+00 1.967671e+01 
3.926650e+00 1.936328e+01 
3.961970e+00 1.905174e+01 
3.997360e+00 1.874637e+01 
4.031670e+00 1.845685e+01 
4.066330e+00 1.816993e+01 
4.101420e+00 1.788595e+01 
4.136200e+00 1.760985e+01 
4.170810e+00 1.734115e+01 
4.206250e+00 1.707155e+01 
4.241580e+00 1.680864e+01 
4.276300e+00 1.655552e+01 
4.310970e+00 1.630796e+01 
4.346120e+00 1.606209e+01 
4.380600e+00 1.582558e+01 
4.414730e+00 1.559632e+01 
4.450350e+00 1.536180e+01 
4.485320e+00 1.513641e+01 
4.519810e+00 1.491845e+01 
4.555430e+00 1.469790e+01 
4.590870e+00 1.448285e+01 
4.625480e+00 1.427679e+01 
4.659910e+00 1.407589e+01 
4.695230e+00 1.387408e+01 
4.729960e+00 1.367962e+01 
4.764450e+00 1.349017e+01 
4.799530e+00 1.330107e+01 
4.834910e+00 1.311410e+01 
4.869700e+00 1.293383e+01 
4.904370e+00 1.275762e+01 
4.939450e+00 1.258275e+01 
4.973940e+00 1.241409e+01 
5.008430e+00 1.224858e+01 
5.043810e+00 1.208194e+01 
5.078840e+00 1.192002e+01 
5.113500e+00 1.176277e+01 
5.148890e+00 1.160533e+01 
5.184210e+00 1.145113e+01 
5.219060e+00 1.130179e+01 
5.253660e+00 1.115631e+01 
5.288570e+00 1.101216e+01 
5.323420e+00 1.087085e+01 
5.358440e+00 1.073143e+01 
5.393590e+00 1.059396e+01 
5.428310e+00 1.046075e+01 
5.462800e+00 1.033080e+01 
5.497640e+00 1.020179e+01 
5.532670e+00 1.007455e+01 
5.567280e+00 9.951057e+00 
5.602000e+00 9.829266e+00 
5.637270e+00 9.707769e+00 
5.672410e+00 9.588802e+00 
5.707020e+00 9.473587e+00 
5.742040e+00 9.359277e+00 
5.777430e+00 9.245752e+00 
5.812210e+00 9.136028e+00 
5.846820e+00 9.028725e+00 
5.881610e+00 8.922635e+00 
5.916510e+00 8.817927e+00 
5.951600e+00 8.714564e+00 
5.986560e+00 8.613332e+00 
6.021830e+00 8.512835e+00 
6.056490e+00 8.415842e+00 
6.091160e+00 8.320505e+00 
6.125830e+00 8.226648e+00 
6.161090e+00 8.132758e+00 
6.195760e+00 8.042036e+00 
6.230420e+00 7.952725e+00 
6.265690e+00 7.863248e+00 
6.300950e+00 7.775480e+00 
6.335620e+00 7.690488e+00 
6.370880e+00 7.605352e+00 
6.405550e+00 7.523083e+00 
6.440220e+00 7.442107e+00 
6.475480e+00 7.360974e+00 
6.510150e+00 7.282479e+00 
6.544810e+00 7.205379e+00 
6.580080e+00 7.128068e+00 
6.614750e+00 7.053178e+00 
6.649410e+00 6.979591e+00 
6.684080e+00 6.907074e+00 
6.719340e+00 6.834378e+00 
6.754010e+00 6.764025e+00 
6.788680e+00 6.694913e+00 
6.823940e+00 6.625615e+00 
6.859800e+00 6.556143e+00 
6.894470e+00 6.490082e+00 
6.929140e+00 6.424989e+00 
6.963800e+00 6.360806e+00 
6.999070e+00 6.296408e+00 
7.033730e+00 6.234250e+00 
7.068400e+00 6.172912e+00 
7.103660e+00 6.111376e+00 
7.138330e+00 6.051765e+00 
7.173600e+00 5.992104e+00 
7.208260e+00 5.934257e+00 
7.243530e+00 5.876174e+00 
7.277600e+00 5.820908e+00 
7.312860e+00 5.764553e+00 
7.348120e+00 5.708943e+00 
7.382790e+00 5.654977e+00 
7.417460e+00 5.601929e+00 
7.452720e+00 5.548790e+00 
7.487390e+00 5.497212e+00 
7.522650e+00 5.445428e+00 
7.557320e+00 5.395295e+00 
7.591990e+00 5.345843e+00 
7.627250e+00 5.296185e+00 
7.662510e+00 5.247156e+00 
7.697180e+00 5.199719e+00 
7.731850e+00 5.152932e+00 
7.766510e+00 5.106734e+00 
7.801180e+00 5.061088e+00 
7.836440e+00 5.015337e+00 
7.871110e+00 4.970964e+00 
7.906380e+00 4.926374e+00 
7.941040e+00 4.883087e+00 
7.976310e+00 4.839661e+00 
8.011570e+00 4.796883e+00 
8.046240e+00 4.755324e+00 
8.080900e+00 4.714269e+00 
8.115570e+00 4.673726e+00 
8.150830e+00 4.633136e+00 
8.185500e+00 4.593695e+00 
8.220770e+00 4.554042e+00 
8.255430e+00 4.515530e+00 
8.290100e+00 4.477631e+00 
8.324770e+00 4.440188e+00 
8.359430e+00 4.403183e+00 
8.394700e+00 4.365959e+00 
8.429960e+00 4.329255e+00 
8.464630e+00 4.293660e+00 
8.499890e+00 4.257868e+00 
8.534560e+00 4.223073e+00 
8.569200e+00 4.188695e+00 
