# Parameters:
# omega_b = 0.023138, omega_m = 0.154173, n_s = 0.960236, h = 58.779528, w = -1.000000, sigma_8 = 0.863780
# z = 1.500000
#
# k[1/Mpc] # P(k):
8.694000e-04 3.754813e+03 
2.077466e-03 8.049070e+03 
3.285532e-03 1.147748e+04 
4.493598e-03 1.419854e+04 
5.701664e-03 1.629188e+04 
6.909730e-03 1.784672e+04 
8.117797e-03 1.897145e+04 
9.325863e-03 1.972103e+04 
1.053393e-02 2.015192e+04 
1.174199e-02 2.031701e+04 
1.295006e-02 2.024960e+04 
1.415813e-02 1.999700e+04 
1.536619e-02 1.960128e+04 
1.657426e-02 1.909083e+04 
1.778233e-02 1.849121e+04 
1.899039e-02 1.784202e+04 
2.019846e-02 1.716493e+04 
2.140652e-02 1.647992e+04 
2.261459e-02 1.579769e+04 
2.382266e-02 1.513269e+04 
2.503072e-02 1.449674e+04 
2.623879e-02 1.389550e+04 
2.744685e-02 1.333060e+04 
2.865492e-02 1.280792e+04 
2.986299e-02 1.232748e+04 
3.100100e-02 1.191357e+04 
3.220400e-02 1.151576e+04 
3.288100e-02 1.130998e+04 
3.424300e-02 1.093167e+04 
3.555100e-02 1.060893e+04 
3.686000e-02 1.032171e+04 
3.795000e-02 1.010549e+04 
3.929100e-02 9.865354e+03 
4.039800e-02 9.683274e+03 
4.164000e-02 9.491661e+03 
4.294400e-02 9.299414e+03 
4.415000e-02 9.127042e+03 
4.542900e-02 8.943067e+03 
4.660900e-02 8.773048e+03 
4.782300e-02 8.588963e+03 
4.892900e-02 8.417149e+03 
5.031200e-02 8.193404e+03 
5.155900e-02 7.981371e+03 
5.238100e-02 7.837439e+03 
5.378200e-02 7.586547e+03 
5.513400e-02 7.338211e+03 
5.627600e-02 7.126576e+03 
5.735300e-02 6.928375e+03 
5.870100e-02 6.685439e+03 
5.988700e-02 6.479581e+03 
6.113500e-02 6.271934e+03 
6.225900e-02 6.093436e+03 
6.340100e-02 5.920080e+03 
6.480200e-02 5.717761e+03 
6.601100e-02 5.551902e+03 
6.725500e-02 5.389402e+03 
6.829100e-02 5.261029e+03 
6.958600e-02 5.109358e+03 
7.071100e-02 4.986548e+03 
7.192300e-02 4.863567e+03 
7.307400e-02 4.755752e+03 
7.412300e-02 4.664921e+03 
7.550400e-02 4.556513e+03 
7.663100e-02 4.475580e+03 
7.791200e-02 4.392867e+03 
7.912700e-02 4.321742e+03 
8.027600e-02 4.259491e+03 
8.138400e-02 4.203131e+03 
8.272200e-02 4.138991e+03 
8.406100e-02 4.077701e+03 
8.534100e-02 4.020347e+03 
8.653800e-02 3.966468e+03 
8.759800e-02 3.918341e+03 
8.900300e-02 3.853132e+03 
9.009000e-02 3.800811e+03 
9.113300e-02 3.748330e+03 
9.239600e-02 3.683339e+03 
9.358000e-02 3.620077e+03 
9.496100e-02 3.542665e+03 
9.608400e-02 3.478518e+03 
9.727500e-02 3.410005e+03 
9.852600e-02 3.335022e+03 
9.973800e-02 3.262853e+03 
1.009000e-01 3.194276e+03 
1.020900e-01 3.123567e+03 
1.034000e-01 3.047529e+03 
1.046000e-01 2.979431e+03 
1.057200e-01 2.917573e+03 
1.069100e-01 2.853882e+03 
1.082500e-01 2.785069e+03 
1.093900e-01 2.729284e+03 
1.105400e-01 2.675134e+03 
1.116900e-01 2.624472e+03 
1.129600e-01 2.570928e+03 
1.142000e-01 2.522553e+03 
1.153300e-01 2.480866e+03 
1.166400e-01 2.435722e+03 
1.177800e-01 2.399548e+03 
1.190000e-01 2.362766e+03 
1.201200e-01 2.332201e+03 
1.213400e-01 2.300125e+03 
1.227100e-01 2.267939e+03 
1.238900e-01 2.241365e+03 
1.250700e-01 2.216790e+03 
1.263200e-01 2.191664e+03 
1.275500e-01 2.168182e+03 
1.287500e-01 2.145761e+03 
1.299900e-01 2.123057e+03 
1.311300e-01 2.102165e+03 
1.323500e-01 2.079565e+03 
1.335900e-01 2.056228e+03 
1.347100e-01 2.034431e+03 
1.359800e-01 2.009328e+03 
1.372100e-01 1.983718e+03 
1.384300e-01 1.958066e+03 
1.395700e-01 1.932677e+03 
1.407700e-01 1.906283e+03 
1.420300e-01 1.876817e+03 
1.432800e-01 1.848252e+03 
1.444500e-01 1.820349e+03 
1.456300e-01 1.792813e+03 
1.468900e-01 1.763472e+03 
1.480500e-01 1.736879e+03 
1.491700e-01 1.711788e+03 
1.503800e-01 1.685318e+03 
1.516400e-01 1.658535e+03 
1.528200e-01 1.634759e+03 
1.540200e-01 1.611077e+03 
1.551900e-01 1.589551e+03 
1.564300e-01 1.567462e+03 
1.576600e-01 1.546672e+03 
1.588700e-01 1.527434e+03 
1.600900e-01 1.508482e+03 
1.612700e-01 1.491762e+03 
1.625400e-01 1.474106e+03 
1.637600e-01 1.458032e+03 
1.649500e-01 1.442967e+03 
1.662200e-01 1.427251e+03 
1.674000e-01 1.413285e+03 
1.685000e-01 1.400482e+03 
1.697500e-01 1.386164e+03 
1.710300e-01 1.371752e+03 
1.722200e-01 1.358589e+03 
1.734400e-01 1.344984e+03 
1.746400e-01 1.331817e+03 
1.758700e-01 1.318371e+03 
1.770900e-01 1.304894e+03 
1.782700e-01 1.292079e+03 
1.794600e-01 1.279035e+03 
1.807000e-01 1.265449e+03 
1.819100e-01 1.252416e+03 
1.830100e-01 1.240372e+03 
1.842200e-01 1.227269e+03 
1.855000e-01 1.213631e+03 
1.867000e-01 1.200780e+03 
1.879200e-01 1.187930e+03 
1.890900e-01 1.175784e+03 
1.902800e-01 1.163516e+03 
1.915200e-01 1.150940e+03 
1.926900e-01 1.139274e+03 
1.939000e-01 1.127432e+03 
1.951700e-01 1.115205e+03 
1.963100e-01 1.104442e+03 
1.975100e-01 1.093390e+03 
1.987800e-01 1.081879e+03 
2.000100e-01 1.070969e+03 
2.012500e-01 1.060285e+03 
2.023400e-01 1.051030e+03 
2.036100e-01 1.040449e+03 
2.048900e-01 1.030120e+03 
2.060400e-01 1.020979e+03 
2.072200e-01 1.011745e+03 
2.084200e-01 1.002648e+03 
2.096900e-01 9.931631e+02 
2.109200e-01 9.841142e+02 
2.121100e-01 9.755787e+02 
2.132700e-01 9.673783e+02 
2.145200e-01 9.586665e+02 
2.157200e-01 9.504492e+02 
2.168800e-01 9.426268e+02 
2.180700e-01 9.347105e+02 
2.193400e-01 9.263687e+02 
2.206000e-01 9.181889e+02 
2.217500e-01 9.108252e+02 
2.229500e-01 9.032431e+02 
2.241400e-01 8.957415e+02 
2.253500e-01 8.882140e+02 
2.264900e-01 8.812148e+02 
2.277100e-01 8.737635e+02 
2.289900e-01 8.659884e+02 
2.301500e-01 8.590367e+02 
2.313600e-01 8.518784e+02 
2.325600e-01 8.447438e+02 
2.337700e-01 8.376441e+02 
2.350000e-01 8.305224e+02 
2.362000e-01 8.236103e+02 
2.374100e-01 8.166659e+02 
2.386500e-01 8.096427e+02 
2.399100e-01 8.026014e+02 
2.410400e-01 7.962977e+02 
2.422500e-01 7.896227e+02 
2.435000e-01 7.828166e+02 
2.447300e-01 7.761998e+02 
2.458700e-01 7.701163e+02 
2.470600e-01 7.638431e+02 
2.483300e-01 7.572336e+02 
2.495600e-01 7.509184e+02 
2.507600e-01 7.448390e+02 
2.519600e-01 7.388342e+02 
2.532200e-01 7.326081e+02 
2.543700e-01 7.270247e+02 
2.555500e-01 7.213830e+02 
2.568000e-01 7.154794e+02 
2.580100e-01 7.098348e+02 
2.592400e-01 7.042236e+02 
2.604100e-01 6.989744e+02 
2.616100e-01 6.936530e+02 
2.628400e-01 6.882632e+02 
2.640600e-01 6.830490e+02 
2.652200e-01 6.781750e+02 
2.664300e-01 6.731486e+02 
2.676500e-01 6.681392e+02 
2.688400e-01 6.633618e+02 
2.700700e-01 6.585129e+02 
2.712400e-01 6.539525e+02 
2.724800e-01 6.491733e+02 
2.736700e-01 6.446786e+02 
2.748800e-01 6.401999e+02 
2.761000e-01 6.357343e+02 
2.773200e-01 6.313185e+02 
2.785400e-01 6.269691e+02 
2.797000e-01 6.229152e+02 
2.808900e-01 6.188001e+02 
2.821400e-01 6.145247e+02 
2.833900e-01 6.102984e+02 
2.845500e-01 6.064526e+02 
2.857800e-01 6.024176e+02 
2.870300e-01 5.983615e+02 
2.882100e-01 5.945732e+02 
2.893900e-01 5.908393e+02 
2.906300e-01 5.869651e+02 
2.918900e-01 5.830707e+02 
2.930500e-01 5.795225e+02 
2.942500e-01 5.758913e+02 
2.954200e-01 5.723939e+02 
2.966500e-01 5.687545e+02 
2.978900e-01 5.651236e+02 
2.990400e-01 5.617901e+02 
3.002700e-01 5.582611e+02 
3.015100e-01 5.547405e+02 
3.026800e-01 5.514519e+02 
3.038500e-01 5.481950e+02 
3.050300e-01 5.449420e+02 
3.062600e-01 5.415827e+02 
3.075000e-01 5.382301e+02 
3.087000e-01 5.350179e+02 
3.099100e-01 5.318105e+02 
3.111200e-01 5.286342e+02 
3.123100e-01 5.255401e+02 
3.135300e-01 5.223986e+02 
3.147300e-01 5.193384e+02 
3.159900e-01 5.161566e+02 
3.171800e-01 5.131792e+02 
3.183700e-01 5.102286e+02 
3.196300e-01 5.071346e+02 
3.208400e-01 5.041921e+02 
3.220300e-01 5.013253e+02 
3.232000e-01 4.985336e+02 
3.244300e-01 4.956264e+02 
3.256700e-01 4.927235e+02 
3.269200e-01 4.898252e+02 
3.280800e-01 4.871603e+02 
3.292500e-01 4.845007e+02 
3.304800e-01 4.817315e+02 
3.317100e-01 4.789881e+02 
3.328900e-01 4.763801e+02 
3.340700e-01 4.737953e+02 
3.353600e-01 4.710019e+02 
3.365300e-01 4.684940e+02 
3.377100e-01 4.659867e+02 
3.389200e-01 4.634384e+02 
3.401600e-01 4.608506e+02 
3.413700e-01 4.583555e+02 
3.425300e-01 4.559895e+02 
3.437700e-01 4.534825e+02 
3.449800e-01 4.510578e+02 
3.461800e-01 4.486742e+02 
3.473600e-01 4.463550e+02 
3.485800e-01 4.439889e+02 
3.498100e-01 4.416244e+02 
3.510200e-01 4.393185e+02 
3.522000e-01 4.370889e+02 
3.533900e-01 4.348593e+02 
3.546400e-01 4.325529e+02 
3.558400e-01 4.303587e+02 
3.570600e-01 4.281469e+02 
3.582700e-01 4.259718e+02 
3.595000e-01 4.237795e+02 
3.607100e-01 4.216513e+02 
3.618900e-01 4.196011e+02 
3.631200e-01 4.174818e+02 
3.643200e-01 4.154313e+02 
3.655500e-01 4.133470e+02 
3.667300e-01 4.113638e+02 
3.679500e-01 4.093503e+02 
3.691900e-01 4.073207e+02 
3.703600e-01 4.054212e+02 
3.715700e-01 4.034725e+02 
3.727700e-01 4.015554e+02 
3.739900e-01 3.996290e+02 
3.752000e-01 3.977466e+02 
3.763900e-01 3.959100e+02 
3.775800e-01 3.940878e+02 
3.788200e-01 3.922041e+02 
3.800300e-01 3.903808e+02 
3.812100e-01 3.886272e+02 
3.824200e-01 3.868501e+02 
3.836100e-01 3.851160e+02 
3.848600e-01 3.833088e+02 
3.860400e-01 3.816161e+02 
3.872400e-01 3.799078e+02 
3.884600e-01 3.781977e+02 
3.896500e-01 3.765473e+02 
3.908700e-01 3.748682e+02 
3.920600e-01 3.732429e+02 
3.933100e-01 3.715487e+02 
3.945300e-01 3.699081e+02 
3.957200e-01 3.683345e+02 
3.969300e-01 3.667506e+02 
3.981700e-01 3.651398e+02 
3.993500e-01 3.636184e+02 
4.094840e-01 3.510565e+02 
4.272360e-01 3.311582e+02 
4.454600e-01 3.129766e+02 
4.630560e-01 2.971945e+02 
4.804610e-01 2.830128e+02 
4.980690e-01 2.698941e+02 
5.159230e-01 2.576681e+02 
5.317440e-01 2.476482e+02 
5.489640e-01 2.375015e+02 
5.671990e-01 2.275434e+02 
5.838690e-01 2.190972e+02 
6.018840e-01 2.106097e+02 
6.202330e-01 2.025881e+02 
6.379250e-01 1.953971e+02 
6.545410e-01 1.890988e+02 
6.714560e-01 1.830960e+02 
6.892080e-01 1.772071e+02 
7.066010e-01 1.718210e+02 
7.240540e-01 1.667428e+02 
7.420450e-01 1.618503e+02 
7.593780e-01 1.574238e+02 
7.764720e-01 1.533090e+02 
7.942840e-01 1.492636e+02 
8.116170e-01 1.455552e+02 
8.288310e-01 1.420685e+02 
8.462240e-01 1.387342e+02 
8.631980e-01 1.356398e+02 
8.810700e-01 1.325408e+02 
8.989410e-01 1.295891e+02 
9.166330e-01 1.268073e+02 
9.345640e-01 1.241218e+02 
9.515980e-01 1.216773e+02 
9.688720e-01 1.192973e+02 
9.865640e-01 1.169611e+02 
1.031870e+00 1.113760e+02 
1.063490e+00 1.077812e+02 
1.097920e+00 1.041201e+02 
1.134370e+00 1.004871e+02 
1.167730e+00 9.736377e+01 
1.203830e+00 9.416366e+01 
1.240470e+00 9.110382e+01 
1.275790e+00 8.830839e+01 
1.309140e+00 8.580281e+01 
1.342970e+00 8.336262e+01 
1.378420e+00 8.093198e+01 
1.413200e+00 7.865249e+01 
1.448110e+00 7.646246e+01 
1.484090e+00 7.430276e+01 
1.518820e+00 7.230328e+01 
1.552880e+00 7.041931e+01 
1.588630e+00 6.851874e+01 
1.623230e+00 6.675276e+01 
1.657720e+00 6.505536e+01 
1.692450e+00 6.341280e+01 
1.726400e+00 6.186165e+01 
1.762200e+00 6.028227e+01 
1.797880e+00 5.876510e+01 
1.833270e+00 5.731599e+01 
1.869070e+00 5.589878e+01 
1.903200e+00 5.459341e+01 
1.937740e+00 5.331654e+01 
1.973190e+00 5.204961e+01 
2.007440e+00 5.086618e+01 
2.042160e+00 4.970259e+01 
2.077900e+00 4.854262e+01 
2.112390e+00 4.746023e+01 
2.146220e+00 4.642879e+01 
2.181600e+00 4.538344e+01 
2.216930e+00 4.437084e+01 
2.250760e+00 4.343085e+01 
2.286500e+00 4.246780e+01 
2.321770e+00 4.154576e+01 
2.355950e+00 4.067926e+01 
2.391280e+00 3.980536e+01 
2.426240e+00 3.896625e+01 
2.460670e+00 3.816457e+01 
2.495640e+00 3.737445e+01 
2.531080e+00 3.659389e+01 
2.566220e+00 3.584079e+01 
2.600830e+00 3.512007e+01 
2.635080e+00 3.442713e+01 
2.670340e+00 3.373113e+01 
2.705970e+00 3.304737e+01 
2.740040e+00 3.241147e+01 
2.774520e+00 3.178374e+01 
2.809730e+00 3.115848e+01 
2.844390e+00 3.055975e+01 
2.879960e+00 2.996191e+01 
2.914860e+00 2.938949e+01 
2.949410e+00 2.883767e+01 
2.984440e+00 2.829157e+01 
3.019760e+00 2.775434e+01 
3.054730e+00 2.723625e+01 
3.089030e+00 2.673998e+01 
3.124060e+00 2.624626e+01 
3.159560e+00 2.575837e+01 
3.194710e+00 2.528669e+01 
3.229010e+00 2.483819e+01 
3.263320e+00 2.439838e+01 
3.297930e+00 2.396585e+01 
3.332830e+00 2.353975e+01 
3.368040e+00 2.312036e+01 
3.403300e+00 2.271083e+01 
3.438450e+00 2.231141e+01 
3.473060e+00 2.192789e+01 
3.508440e+00 2.154360e+01 
3.543110e+00 2.117651e+01 
3.577470e+00 2.082095e+01 
3.613040e+00 2.046149e+01 
3.648120e+00 2.011410e+01 
3.682910e+00 1.977775e+01 
3.718050e+00 1.944565e+01 
3.753320e+00 1.911985e+01 
3.787980e+00 1.880649e+01 
3.822290e+00 1.850322e+01 
3.857020e+00 1.820282e+01 
3.891920e+00 1.790758e+01 
3.926650e+00 1.761977e+01 
3.961970e+00 1.733376e+01 
3.997360e+00 1.705351e+01 
4.031670e+00 1.678783e+01 
4.066330e+00 1.652461e+01 
4.101420e+00 1.626410e+01 
4.136200e+00 1.601091e+01 
4.170810e+00 1.576454e+01 
4.206250e+00 1.551741e+01 
4.241580e+00 1.527645e+01 
4.276300e+00 1.504451e+01 
4.310970e+00 1.481771e+01 
4.346120e+00 1.459249e+01 
4.380600e+00 1.437591e+01 
4.414730e+00 1.416598e+01 
4.450350e+00 1.395129e+01 
4.485320e+00 1.374497e+01 
4.519810e+00 1.354549e+01 
4.555430e+00 1.334367e+01 
4.590870e+00 1.314692e+01 
4.625480e+00 1.295843e+01 
4.659910e+00 1.277467e+01 
4.695230e+00 1.259013e+01 
4.729960e+00 1.241232e+01 
4.764450e+00 1.223913e+01 
4.799530e+00 1.206628e+01 
4.834910e+00 1.189540e+01 
4.869700e+00 1.173067e+01 
4.904370e+00 1.156967e+01 
4.939450e+00 1.140989e+01 
4.973940e+00 1.125584e+01 
5.008430e+00 1.110466e+01 
5.043810e+00 1.095247e+01 
5.078840e+00 1.080462e+01 
5.113500e+00 1.066105e+01 
5.148890e+00 1.051733e+01 
5.184210e+00 1.037657e+01 
5.219060e+00 1.024028e+01 
5.253660e+00 1.010753e+01 
5.288570e+00 9.975988e+00 
5.323420e+00 9.847068e+00 
5.358440e+00 9.719874e+00 
5.393590e+00 9.594479e+00 
5.428310e+00 9.472981e+00 
5.462800e+00 9.354475e+00 
5.497640e+00 9.236833e+00 
5.532670e+00 9.120824e+00 
5.567280e+00 9.008244e+00 
5.602000e+00 8.897220e+00 
5.637270e+00 8.786487e+00 
5.672410e+00 8.678069e+00 
5.707020e+00 8.573076e+00 
5.742040e+00 8.468928e+00 
5.777430e+00 8.365504e+00 
5.812210e+00 8.265546e+00 
5.846820e+00 8.167809e+00 
5.881610e+00 8.071183e+00 
5.916510e+00 7.975821e+00 
5.951600e+00 7.881700e+00 
5.986560e+00 7.789529e+00 
6.021830e+00 7.698033e+00 
6.056490e+00 7.609741e+00 
6.091160e+00 7.522970e+00 
6.125830e+00 7.437550e+00 
6.161090e+00 7.352107e+00 
6.195760e+00 7.269557e+00 
6.230420e+00 7.188295e+00 
6.265690e+00 7.106886e+00 
6.300950e+00 7.027060e+00 
6.335620e+00 6.949763e+00 
6.370880e+00 6.872339e+00 
6.405550e+00 6.797530e+00 
6.440220e+00 6.723902e+00 
6.475480e+00 6.650135e+00 
6.510150e+00 6.578775e+00 
6.544810e+00 6.508697e+00 
6.580080e+00 6.438431e+00 
6.614750e+00 6.370367e+00 
6.649410e+00 6.303505e+00 
6.684080e+00 6.237620e+00 
6.719340e+00 6.171576e+00 
6.754010e+00 6.107667e+00 
6.788680e+00 6.044897e+00 
6.823940e+00 5.981961e+00 
6.859800e+00 5.918870e+00 
6.894470e+00 5.858892e+00 
6.929140e+00 5.799801e+00 
6.963800e+00 5.741537e+00 
6.999070e+00 5.683083e+00 
7.033730e+00 5.626675e+00 
7.068400e+00 5.571014e+00 
7.103660e+00 5.515174e+00 
7.138330e+00 5.461089e+00 
7.173600e+00 5.406967e+00 
7.208260e+00 5.354494e+00 
7.243530e+00 5.301808e+00 
7.277600e+00 5.251689e+00 
7.312860e+00 5.200594e+00 
7.348120e+00 5.150175e+00 
7.382790e+00 5.101248e+00 
7.417460e+00 5.053166e+00 
7.452720e+00 5.005009e+00 
7.487390e+00 4.958268e+00 
7.522650e+00 4.911341e+00 
7.557320e+00 4.865923e+00 
7.591990e+00 4.821127e+00 
7.627250e+00 4.776145e+00 
7.662510e+00 4.731734e+00 
7.697180e+00 4.688778e+00 
7.731850e+00 4.646415e+00 
7.766510e+00 4.604587e+00 
7.801180e+00 4.563259e+00 
7.836440e+00 4.521847e+00 
7.871110e+00 4.481691e+00 
7.906380e+00 4.441337e+00 
7.941040e+00 4.402164e+00 
7.976310e+00 4.362874e+00 
8.011570e+00 4.324180e+00 
8.046240e+00 4.286589e+00 
8.080900e+00 4.249454e+00 
8.115570e+00 4.212787e+00 
8.150830e+00 4.176088e+00 
8.185500e+00 4.140429e+00 
8.220770e+00 4.104578e+00 
8.255430e+00 4.069759e+00 
8.290100e+00 4.035511e+00 
8.324770e+00 4.001677e+00 
8.359430e+00 3.968239e+00 
8.394700e+00 3.934604e+00 
8.429960e+00 3.901448e+00 
8.464630e+00 3.869301e+00 
8.499890e+00 3.836978e+00 
8.534560e+00 3.805554e+00 
8.569200e+00 3.774508e+00 
