# Parameters:
# omega_b = 0.023343, omega_m = 0.136260, n_s = 0.905118, h = 64.212598, w = -1.000000, sigma_8 = 0.791339
# z = 1.500000
#
# k[1/Mpc] # P(k):
8.694000e-04 5.827332e+03 
2.077466e-03 1.180025e+04 
3.285532e-03 1.619825e+04 
4.493598e-03 1.943082e+04 
5.701664e-03 2.170993e+04 
6.909730e-03 2.322406e+04 
8.117797e-03 2.416165e+04 
9.325863e-03 2.461868e+04 
1.053393e-02 2.468502e+04 
1.174199e-02 2.443891e+04 
1.295006e-02 2.393132e+04 
1.415813e-02 2.322841e+04 
1.536619e-02 2.238677e+04 
1.657426e-02 2.144500e+04 
1.778233e-02 2.043703e+04 
1.899039e-02 1.941211e+04 
2.019846e-02 1.839585e+04 
2.140652e-02 1.741026e+04 
2.261459e-02 1.646713e+04 
2.382266e-02 1.558040e+04 
2.503072e-02 1.475906e+04 
2.623879e-02 1.400552e+04 
2.744685e-02 1.331979e+04 
2.865492e-02 1.270221e+04 
2.986299e-02 1.214866e+04 
3.100100e-02 1.168372e+04 
3.220400e-02 1.124661e+04 
3.288100e-02 1.102462e+04 
3.424300e-02 1.062261e+04 
3.555100e-02 1.028493e+04 
3.686000e-02 9.987752e+03 
3.795000e-02 9.765022e+03 
3.929100e-02 9.517003e+03 
4.039800e-02 9.326872e+03 
4.164000e-02 9.124113e+03 
4.294400e-02 8.915110e+03 
4.415000e-02 8.723969e+03 
4.542900e-02 8.514551e+03 
4.660900e-02 8.318124e+03 
4.782300e-02 8.102156e+03 
4.892900e-02 7.899748e+03 
5.031200e-02 7.635842e+03 
5.155900e-02 7.387220e+03 
5.238100e-02 7.219761e+03 
5.378200e-02 6.930855e+03 
5.513400e-02 6.649735e+03 
5.627600e-02 6.414260e+03 
5.735300e-02 6.197269e+03 
5.870100e-02 5.936256e+03 
5.988700e-02 5.719471e+03 
6.113500e-02 5.505558e+03 
6.225900e-02 5.326282e+03 
6.340100e-02 5.156820e+03 
6.480200e-02 4.964469e+03 
6.601100e-02 4.812412e+03 
6.725500e-02 4.667833e+03 
6.829100e-02 4.557034e+03 
6.958600e-02 4.428661e+03 
7.071100e-02 4.327039e+03 
7.192300e-02 4.226890e+03 
7.307400e-02 4.140155e+03 
7.412300e-02 4.067586e+03 
7.550400e-02 3.981144e+03 
7.663100e-02 3.916279e+03 
7.791200e-02 3.848745e+03 
7.912700e-02 3.788748e+03 
8.027600e-02 3.734357e+03 
8.138400e-02 3.683289e+03 
8.272200e-02 3.622440e+03 
8.406100e-02 3.561394e+03 
8.534100e-02 3.501219e+03 
8.653800e-02 3.442699e+03 
8.759800e-02 3.389535e+03 
8.900300e-02 3.316540e+03 
9.009000e-02 3.257669e+03 
9.113300e-02 3.198904e+03 
9.239600e-02 3.126638e+03 
9.358000e-02 3.057200e+03 
9.496100e-02 2.974087e+03 
9.608400e-02 2.906502e+03 
9.727500e-02 2.835395e+03 
9.852600e-02 2.760360e+03 
9.973800e-02 2.689596e+03 
1.009000e-01 2.623543e+03 
1.020900e-01 2.558390e+03 
1.034000e-01 2.489816e+03 
1.046000e-01 2.429917e+03 
1.057200e-01 2.378012e+03 
1.069100e-01 2.325464e+03 
1.082500e-01 2.271202e+03 
1.093900e-01 2.228639e+03 
1.105400e-01 2.188144e+03 
1.116900e-01 2.151906e+03 
1.129600e-01 2.114049e+03 
1.142000e-01 2.080820e+03 
1.153300e-01 2.052249e+03 
1.166400e-01 2.021434e+03 
1.177800e-01 1.996239e+03 
1.190000e-01 1.970368e+03 
1.201200e-01 1.947444e+03 
1.213400e-01 1.923109e+03 
1.227100e-01 1.895801e+03 
1.238900e-01 1.872576e+03 
1.250700e-01 1.848867e+03 
1.263200e-01 1.823804e+03 
1.275500e-01 1.798531e+03 
1.287500e-01 1.773737e+03 
1.299900e-01 1.747586e+03 
1.311300e-01 1.723413e+03 
1.323500e-01 1.697109e+03 
1.335900e-01 1.670409e+03 
1.347100e-01 1.646053e+03 
1.359800e-01 1.618699e+03 
1.372100e-01 1.592104e+03 
1.384300e-01 1.566150e+03 
1.395700e-01 1.541987e+03 
1.407700e-01 1.517096e+03 
1.420300e-01 1.491340e+03 
1.432800e-01 1.466392e+03 
1.444500e-01 1.443701e+03 
1.456300e-01 1.421314e+03 
1.468900e-01 1.398325e+03 
1.480500e-01 1.377737e+03 
1.491700e-01 1.358557e+03 
1.503800e-01 1.338635e+03 
1.516400e-01 1.318491e+03 
1.528200e-01 1.300701e+03 
1.540200e-01 1.282973e+03 
1.551900e-01 1.266661e+03 
1.564300e-01 1.249867e+03 
1.576600e-01 1.233841e+03 
1.588700e-01 1.218741e+03 
1.600900e-01 1.203832e+03 
1.612700e-01 1.190090e+03 
1.625400e-01 1.175582e+03 
1.637600e-01 1.162002e+03 
1.649500e-01 1.149053e+03 
1.662200e-01 1.135472e+03 
1.674000e-01 1.122990e+03 
1.685000e-01 1.111552e+03 
1.697500e-01 1.098623e+03 
1.710300e-01 1.085474e+03 
1.722200e-01 1.073473e+03 
1.734400e-01 1.060998e+03 
1.746400e-01 1.048929e+03 
1.758700e-01 1.036651e+03 
1.770900e-01 1.024432e+03 
1.782700e-01 1.012819e+03 
1.794600e-01 1.001134e+03 
1.807000e-01 9.890551e+02 
1.819100e-01 9.774753e+02 
1.830100e-01 9.669946e+02 
1.842200e-01 9.556337e+02 
1.855000e-01 9.438273e+02 
1.867000e-01 9.329542e+02 
1.879200e-01 9.220868e+02 
1.890900e-01 9.118542e+02 
1.902800e-01 9.017012e+02 
1.915200e-01 8.912975e+02 
1.926900e-01 8.816869e+02 
1.939000e-01 8.720536e+02 
1.951700e-01 8.621100e+02 
1.963100e-01 8.533830e+02 
1.975100e-01 8.444873e+02 
1.987800e-01 8.352241e+02 
2.000100e-01 8.264545e+02 
2.012500e-01 8.178855e+02 
2.023400e-01 8.104645e+02 
2.036100e-01 8.019759e+02 
2.048900e-01 7.936696e+02 
2.060400e-01 7.863195e+02 
2.072200e-01 7.788922e+02 
2.084200e-01 7.715226e+02 
2.096900e-01 7.638403e+02 
2.109200e-01 7.565125e+02 
2.121100e-01 7.495381e+02 
2.132700e-01 7.428357e+02 
2.145200e-01 7.357169e+02 
2.157200e-01 7.289635e+02 
2.168800e-01 7.225175e+02 
2.180700e-01 7.159959e+02 
2.193400e-01 7.091137e+02 
2.206000e-01 7.023452e+02 
2.217500e-01 6.962538e+02 
2.229500e-01 6.899835e+02 
2.241400e-01 6.837771e+02 
2.253500e-01 6.775512e+02 
2.264900e-01 6.717638e+02 
2.277100e-01 6.656181e+02 
2.289900e-01 6.592220e+02 
2.301500e-01 6.535052e+02 
2.313600e-01 6.476206e+02 
2.325600e-01 6.418049e+02 
2.337700e-01 6.360193e+02 
2.350000e-01 6.302175e+02 
2.362000e-01 6.246138e+02 
2.374100e-01 6.190154e+02 
2.386500e-01 6.133551e+02 
2.399100e-01 6.076818e+02 
2.410400e-01 6.026516e+02 
2.422500e-01 5.973324e+02 
2.435000e-01 5.919099e+02 
2.447300e-01 5.866474e+02 
2.458700e-01 5.818421e+02 
2.470600e-01 5.768878e+02 
2.483300e-01 5.716689e+02 
2.495600e-01 5.666943e+02 
2.507600e-01 5.619210e+02 
2.519600e-01 5.572072e+02 
2.532200e-01 5.523203e+02 
2.543700e-01 5.479422e+02 
2.555500e-01 5.435215e+02 
2.568000e-01 5.388963e+02 
2.580100e-01 5.344746e+02 
2.592400e-01 5.300728e+02 
2.604100e-01 5.259523e+02 
2.616100e-01 5.217759e+02 
2.628400e-01 5.175464e+02 
2.640600e-01 5.134402e+02 
2.652200e-01 5.095965e+02 
2.664300e-01 5.056333e+02 
2.676500e-01 5.016842e+02 
2.688400e-01 4.979023e+02 
2.700700e-01 4.940544e+02 
2.712400e-01 4.904360e+02 
2.724800e-01 4.866448e+02 
2.736700e-01 4.830675e+02 
2.748800e-01 4.794908e+02 
2.761000e-01 4.759253e+02 
2.773200e-01 4.724002e+02 
2.785400e-01 4.689223e+02 
2.797000e-01 4.656674e+02 
2.808900e-01 4.623642e+02 
2.821400e-01 4.589330e+02 
2.833900e-01 4.555412e+02 
2.845500e-01 4.524403e+02 
2.857800e-01 4.491876e+02 
2.870300e-01 4.459186e+02 
2.882100e-01 4.428661e+02 
2.893900e-01 4.398518e+02 
2.906300e-01 4.367213e+02 
2.918900e-01 4.335754e+02 
2.930500e-01 4.307098e+02 
2.942500e-01 4.277767e+02 
2.954200e-01 4.249491e+02 
2.966500e-01 4.220074e+02 
2.978900e-01 4.190733e+02 
2.990400e-01 4.163800e+02 
3.002700e-01 4.135294e+02 
3.015100e-01 4.106861e+02 
3.026800e-01 4.080307e+02 
3.038500e-01 4.054016e+02 
3.050300e-01 4.027762e+02 
3.062600e-01 4.000670e+02 
3.075000e-01 3.973639e+02 
3.087000e-01 3.947746e+02 
3.099100e-01 3.921898e+02 
3.111200e-01 3.896318e+02 
3.123100e-01 3.871427e+02 
3.135300e-01 3.846160e+02 
3.147300e-01 3.821553e+02 
3.159900e-01 3.795974e+02 
3.171800e-01 3.772071e+02 
3.183700e-01 3.748407e+02 
3.196300e-01 3.723598e+02 
3.208400e-01 3.700010e+02 
3.220300e-01 3.677033e+02 
3.232000e-01 3.654690e+02 
3.244300e-01 3.631438e+02 
3.256700e-01 3.608226e+02 
3.269200e-01 3.585055e+02 
3.280800e-01 3.563756e+02 
3.292500e-01 3.542526e+02 
3.304800e-01 3.520434e+02 
3.317100e-01 3.498552e+02 
3.328900e-01 3.477755e+02 
3.340700e-01 3.457147e+02 
3.353600e-01 3.434904e+02 
3.365300e-01 3.414947e+02 
3.377100e-01 3.394999e+02 
3.389200e-01 3.374729e+02 
3.401600e-01 3.354149e+02 
3.413700e-01 3.334322e+02 
3.425300e-01 3.315532e+02 
3.437700e-01 3.295625e+02 
3.449800e-01 3.276377e+02 
3.461800e-01 3.257459e+02 
3.473600e-01 3.239057e+02 
3.485800e-01 3.220292e+02 
3.498100e-01 3.201543e+02 
3.510200e-01 3.183262e+02 
3.522000e-01 3.165590e+02 
3.533900e-01 3.147921e+02 
3.546400e-01 3.129649e+02 
3.558400e-01 3.112269e+02 
3.570600e-01 3.094753e+02 
3.582700e-01 3.077530e+02 
3.595000e-01 3.060175e+02 
3.607100e-01 3.043325e+02 
3.618900e-01 3.027091e+02 
3.631200e-01 3.010312e+02 
3.643200e-01 2.994081e+02 
3.655500e-01 2.977586e+02 
3.667300e-01 2.961894e+02 
3.679500e-01 2.945953e+02 
3.691900e-01 2.929887e+02 
3.703600e-01 2.914855e+02 
3.715700e-01 2.899435e+02 
3.727700e-01 2.884268e+02 
3.739900e-01 2.869023e+02 
3.752000e-01 2.854114e+02 
3.763900e-01 2.839571e+02 
3.775800e-01 2.825144e+02 
3.788200e-01 2.810233e+02 
3.800300e-01 2.795802e+02 
3.812100e-01 2.781914e+02 
3.824200e-01 2.767835e+02 
3.836100e-01 2.754099e+02 
3.848600e-01 2.739786e+02 
3.860400e-01 2.726383e+02 
3.872400e-01 2.712858e+02 
3.884600e-01 2.699307e+02 
3.896500e-01 2.686227e+02 
3.908700e-01 2.672921e+02 
3.920600e-01 2.660043e+02 
3.933100e-01 2.646623e+02 
3.945300e-01 2.633628e+02 
3.957200e-01 2.621145e+02 
3.969300e-01 2.608576e+02 
3.981700e-01 2.595796e+02 
3.993500e-01 2.583727e+02 
4.094840e-01 2.484132e+02 
4.272360e-01 2.326295e+02 
4.454600e-01 2.182419e+02 
4.630560e-01 2.058070e+02 
4.804610e-01 1.947017e+02 
4.980690e-01 1.845029e+02 
5.159230e-01 1.750788e+02 
5.317440e-01 1.674118e+02 
5.489640e-01 1.597127e+02 
5.671990e-01 1.522177e+02 
5.838690e-01 1.458996e+02 
6.018840e-01 1.395861e+02 
6.202330e-01 1.336560e+02 
6.379250e-01 1.283607e+02 
6.545410e-01 1.237426e+02 
6.714560e-01 1.193519e+02 
6.892080e-01 1.150563e+02 
7.066010e-01 1.111344e+02 
7.240540e-01 1.074473e+02 
7.420450e-01 1.038985e+02 
7.593780e-01 1.006941e+02 
7.764720e-01 9.771929e+01 
7.942840e-01 9.480084e+01 
8.116170e-01 9.212768e+01 
8.288310e-01 8.962073e+01 
8.462240e-01 8.722520e+01 
8.631980e-01 8.500797e+01 
8.810700e-01 8.279234e+01 
8.989410e-01 8.068885e+01 
9.166330e-01 7.871054e+01 
9.345640e-01 7.680433e+01 
9.515980e-01 7.507590e+01 
9.688720e-01 7.339906e+01 
9.865640e-01 7.175815e+01 
1.031870e+00 6.786141e+01 
1.063490e+00 6.537526e+01 
1.097920e+00 6.286094e+01 
1.134370e+00 6.038768e+01 
1.167730e+00 5.827846e+01 
1.203830e+00 5.613985e+01 
1.240470e+00 5.411060e+01 
1.275790e+00 5.227375e+01 
1.309140e+00 5.063915e+01 
1.342970e+00 4.906422e+01 
1.378420e+00 4.750471e+01 
1.413200e+00 4.605449e+01 
1.448110e+00 4.467101e+01 
1.484090e+00 4.331643e+01 
1.518820e+00 4.207129e+01 
1.552880e+00 4.090608e+01 
1.588630e+00 3.973754e+01 
1.623230e+00 3.865795e+01 
1.657720e+00 3.762665e+01 
1.692450e+00 3.663328e+01 
1.726400e+00 3.570034e+01 
1.762200e+00 3.475525e+01 
1.797880e+00 3.385210e+01 
1.833270e+00 3.299251e+01 
1.869070e+00 3.215589e+01 
1.903200e+00 3.138856e+01 
1.937740e+00 3.064030e+01 
1.973190e+00 2.990028e+01 
2.007440e+00 2.921108e+01 
2.042160e+00 2.853621e+01 
2.077900e+00 2.786543e+01 
2.112390e+00 2.724084e+01 
2.146220e+00 2.664747e+01 
2.181600e+00 2.604774e+01 
2.216930e+00 2.546825e+01 
2.250760e+00 2.493125e+01 
2.286500e+00 2.438208e+01 
2.321770e+00 2.385737e+01 
2.355950e+00 2.336494e+01 
2.391280e+00 2.286989e+01 
2.426240e+00 2.239511e+01 
2.460670e+00 2.194189e+01 
2.495640e+00 2.149559e+01 
2.531080e+00 2.105570e+01 
2.566220e+00 2.063185e+01 
2.600830e+00 2.022658e+01 
2.635080e+00 1.983719e+01 
2.670340e+00 1.944643e+01 
2.705970e+00 1.906288e+01 
2.740040e+00 1.870641e+01 
2.774520e+00 1.835481e+01 
2.809730e+00 1.800495e+01 
2.844390e+00 1.767000e+01 
2.879960e+00 1.733545e+01 
2.914860e+00 1.701541e+01 
2.949410e+00 1.670699e+01 
2.984440e+00 1.640188e+01 
3.019760e+00 1.610193e+01 
3.054730e+00 1.581274e+01 
3.089030e+00 1.553555e+01 
3.124060e+00 1.525975e+01 
3.159560e+00 1.498718e+01 
3.194710e+00 1.472372e+01 
3.229010e+00 1.447316e+01 
3.263320e+00 1.422741e+01 
3.297930e+00 1.398568e+01 
3.332830e+00 1.374755e+01 
3.368040e+00 1.351300e+01 
3.403300e+00 1.328381e+01 
3.438450e+00 1.306029e+01 
3.473060e+00 1.284561e+01 
3.508440e+00 1.263039e+01 
3.543110e+00 1.242469e+01 
3.577470e+00 1.222514e+01 
3.613040e+00 1.202337e+01 
3.648120e+00 1.182843e+01 
3.682910e+00 1.163952e+01 
3.718050e+00 1.145273e+01 
3.753320e+00 1.126942e+01 
3.787980e+00 1.109305e+01 
3.822290e+00 1.092224e+01 
3.857020e+00 1.075287e+01 
3.891920e+00 1.058631e+01 
3.926650e+00 1.042380e+01 
3.961970e+00 1.026217e+01 
3.997360e+00 1.010355e+01 
4.031670e+00 9.953118e+00 
4.066330e+00 9.804002e+00 
4.101420e+00 9.656358e+00 
4.136200e+00 9.512564e+00 
4.170810e+00 9.372585e+00 
4.206250e+00 9.232025e+00 
4.241580e+00 9.094900e+00 
4.276300e+00 8.962716e+00 
4.310970e+00 8.833334e+00 
4.346120e+00 8.704768e+00 
4.380600e+00 8.581021e+00 
4.414730e+00 8.461028e+00 
4.450350e+00 8.338051e+00 
4.485320e+00 8.219825e+00 
4.519810e+00 8.105338e+00 
4.555430e+00 7.989394e+00 
4.590870e+00 7.876303e+00 
4.625480e+00 7.767876e+00 
4.659910e+00 7.662133e+00 
4.695230e+00 7.555659e+00 
4.729960e+00 7.453003e+00 
4.764450e+00 7.352920e+00 
4.799530e+00 7.252911e+00 
4.834910e+00 7.154005e+00 
4.869700e+00 7.058485e+00 
4.904370e+00 6.965071e+00 
4.939450e+00 6.872305e+00 
4.973940e+00 6.782722e+00 
5.008430e+00 6.694791e+00 
5.043810e+00 6.606159e+00 
5.078840e+00 6.519973e+00 
5.113500e+00 6.436257e+00 
5.148890e+00 6.352243e+00 
5.184210e+00 6.269927e+00 
5.219060e+00 6.190171e+00 
5.253660e+00 6.112379e+00 
5.288570e+00 6.035280e+00 
5.323420e+00 5.959638e+00 
5.358440e+00 5.884924e+00 
5.393590e+00 5.811250e+00 
5.428310e+00 5.739741e+00 
5.462800e+00 5.669921e+00 
5.497640e+00 5.600594e+00 
5.532670e+00 5.532101e+00 
5.567280e+00 5.465582e+00 
5.602000e+00 5.399969e+00 
5.637270e+00 5.334440e+00 
5.672410e+00 5.270252e+00 
5.707020e+00 5.208080e+00 
5.742040e+00 5.146284e+00 
5.777430e+00 5.084885e+00 
5.812210e+00 5.025532e+00 
5.846820e+00 4.967420e+00 
5.881610e+00 4.909941e+00 
5.916510e+00 4.853205e+00 
5.951600e+00 4.797115e+00 
5.986560e+00 4.742142e+00 
6.021830e+00 4.687562e+00 
6.056490e+00 4.634833e+00 
6.091160e+00 4.582958e+00 
6.125830e+00 4.531884e+00 
6.161090e+00 4.480768e+00 
6.195760e+00 4.431329e+00 
6.230420e+00 4.382655e+00 
6.265690e+00 4.333884e+00 
6.300950e+00 4.285974e+00 
6.335620e+00 4.239577e+00 
6.370880e+00 4.193098e+00 
6.405550e+00 4.148142e+00 
6.440220e+00 4.103874e+00 
6.475480e+00 4.059518e+00 
6.510150e+00 4.016581e+00 
6.544810e+00 3.974357e+00 
6.580080e+00 3.932015e+00 
6.614750e+00 3.890997e+00 
6.649410e+00 3.850666e+00 
6.684080e+00 3.810914e+00 
6.719340e+00 3.771063e+00 
6.754010e+00 3.732477e+00 
6.788680e+00 3.694528e+00 
6.823940e+00 3.656476e+00 
6.859800e+00 3.618327e+00 
6.894470e+00 3.582037e+00 
6.929140e+00 3.546272e+00 
6.963800e+00 3.511007e+00 
6.999070e+00 3.475622e+00 
7.033730e+00 3.441443e+00 
7.068400e+00 3.407715e+00 
7.103660e+00 3.373877e+00 
7.138330e+00 3.341090e+00 
7.173600e+00 3.308258e+00 
7.208260e+00 3.276424e+00 
7.243530e+00 3.244460e+00 
7.277600e+00 3.214042e+00 
7.312860e+00 3.183020e+00 
7.348120e+00 3.152408e+00 
7.382790e+00 3.122700e+00 
7.417460e+00 3.093477e+00 
7.452720e+00 3.064192e+00 
7.487390e+00 3.035767e+00 
7.522650e+00 3.007228e+00 
7.557320e+00 2.979607e+00 
7.591990e+00 2.952364e+00 
7.627250e+00 2.925007e+00 
7.662510e+00 2.897995e+00 
7.697180e+00 2.871857e+00 
7.731850e+00 2.846075e+00 
7.766510e+00 2.820616e+00 
7.801180e+00 2.795462e+00 
7.836440e+00 2.770259e+00 
7.871110e+00 2.745821e+00 
7.906380e+00 2.721262e+00 
7.941040e+00 2.697421e+00 
7.976310e+00 2.673503e+00 
8.011570e+00 2.649942e+00 
8.046240e+00 2.627051e+00 
8.080900e+00 2.604437e+00 
8.115570e+00 2.582109e+00 
8.150830e+00 2.559764e+00 
8.185500e+00 2.538052e+00 
8.220770e+00 2.516223e+00 
8.255430e+00 2.495021e+00 
8.290100e+00 2.474160e+00 
8.324770e+00 2.453550e+00 
8.359430e+00 2.433181e+00 
8.394700e+00 2.412691e+00 
8.429960e+00 2.392498e+00 
8.464630e+00 2.372923e+00 
8.499890e+00 2.353241e+00 
8.534560e+00 2.334106e+00 
8.569200e+00 2.315200e+00 
