# Parameters:
# omega_b = 0.021815, omega_m = 0.149488, n_s = 0.953937, h = 77.913386, w = -1.000000, sigma_8 = 0.857480
# z = 1.500000
#
# k[1/Mpc] # P(k):
8.694000e-04 3.444993e+03 
2.077466e-03 7.331885e+03 
3.285532e-03 1.039513e+04 
4.493598e-03 1.278565e+04 
5.701664e-03 1.459624e+04 
6.909730e-03 1.591661e+04 
8.117797e-03 1.684942e+04 
9.325863e-03 1.744800e+04 
1.053393e-02 1.776613e+04 
1.174199e-02 1.785323e+04 
1.295006e-02 1.774104e+04 
1.415813e-02 1.747276e+04 
1.536619e-02 1.708452e+04 
1.657426e-02 1.660007e+04 
1.778233e-02 1.604267e+04 
1.899039e-02 1.544758e+04 
2.019846e-02 1.483388e+04 
2.140652e-02 1.421852e+04 
2.261459e-02 1.361086e+04 
2.382266e-02 1.302340e+04 
2.503072e-02 1.246600e+04 
2.623879e-02 1.194307e+04 
2.744685e-02 1.145580e+04 
2.865492e-02 1.100795e+04 
2.986299e-02 1.059863e+04 
3.100100e-02 1.024781e+04 
3.220400e-02 9.911824e+03 
3.288100e-02 9.738351e+03 
3.424300e-02 9.419309e+03 
3.555100e-02 9.146256e+03 
3.686000e-02 8.901613e+03 
3.795000e-02 8.715840e+03 
3.929100e-02 8.506587e+03 
4.039800e-02 8.345449e+03 
4.164000e-02 8.173473e+03 
4.294400e-02 7.997457e+03 
4.415000e-02 7.837934e+03 
4.542900e-02 7.665832e+03 
4.660900e-02 7.506183e+03 
4.782300e-02 7.333513e+03 
4.892900e-02 7.172888e+03 
5.031200e-02 6.965079e+03 
5.155900e-02 6.770173e+03 
5.238100e-02 6.638762e+03 
5.378200e-02 6.410556e+03 
5.513400e-02 6.184064e+03 
5.627600e-02 5.988518e+03 
5.735300e-02 5.800981e+03 
5.870100e-02 5.562273e+03 
5.988700e-02 5.350667e+03 
6.113500e-02 5.128687e+03 
6.225900e-02 4.933005e+03 
6.340100e-02 4.742562e+03 
6.480200e-02 4.524806e+03 
6.601100e-02 4.355577e+03 
6.725500e-02 4.200519e+03 
6.829100e-02 4.087345e+03 
6.958600e-02 3.961924e+03 
7.071100e-02 3.867650e+03 
7.192300e-02 3.778547e+03 
7.307400e-02 3.704279e+03 
7.412300e-02 3.644028e+03 
7.550400e-02 3.574677e+03 
7.663100e-02 3.523945e+03 
7.791200e-02 3.472699e+03 
7.912700e-02 3.428162e+03 
8.027600e-02 3.388255e+03 
8.138400e-02 3.350976e+03 
8.272200e-02 3.306518e+03 
8.406100e-02 3.261504e+03 
8.534100e-02 3.216262e+03 
8.653800e-02 3.171233e+03 
8.759800e-02 3.129593e+03 
8.900300e-02 3.071193e+03 
9.009000e-02 3.023005e+03 
9.113300e-02 2.973896e+03 
9.239600e-02 2.912633e+03 
9.358000e-02 2.852718e+03 
9.496100e-02 2.779571e+03 
9.608400e-02 2.719311e+03 
9.727500e-02 2.655311e+03 
9.852600e-02 2.586483e+03 
9.973800e-02 2.521053e+03 
1.009000e-01 2.459559e+03 
1.020900e-01 2.398018e+03 
1.034000e-01 2.332915e+03 
1.046000e-01 2.275711e+03 
1.057200e-01 2.225716e+03 
1.069100e-01 2.175004e+03 
1.082500e-01 2.122392e+03 
1.093900e-01 2.081116e+03 
1.105400e-01 2.041843e+03 
1.116900e-01 2.006906e+03 
1.129600e-01 1.970549e+03 
1.142000e-01 1.939128e+03 
1.153300e-01 1.912448e+03 
1.166400e-01 1.884207e+03 
1.177800e-01 1.861815e+03 
1.190000e-01 1.839160e+03 
1.201200e-01 1.819982e+03 
1.213400e-01 1.799787e+03 
1.227100e-01 1.778231e+03 
1.238900e-01 1.760054e+03 
1.250700e-01 1.741950e+03 
1.263200e-01 1.722854e+03 
1.275500e-01 1.703684e+03 
1.287500e-01 1.684724e+03 
1.299900e-01 1.664490e+03 
1.311300e-01 1.645442e+03 
1.323500e-01 1.624210e+03 
1.335900e-01 1.602156e+03 
1.347100e-01 1.581396e+03 
1.359800e-01 1.557616e+03 
1.372100e-01 1.533594e+03 
1.384300e-01 1.509780e+03 
1.395700e-01 1.486750e+03 
1.407700e-01 1.462927e+03 
1.420300e-01 1.437286e+03 
1.432800e-01 1.412457e+03 
1.444500e-01 1.389222e+03 
1.456300e-01 1.366311e+03 
1.468900e-01 1.342640e+03 
1.480500e-01 1.321407e+03 
1.491700e-01 1.301729e+03 
1.503800e-01 1.281417e+03 
1.516400e-01 1.260994e+03 
1.528200e-01 1.243427e+03 
1.540200e-01 1.225925e+03 
1.551900e-01 1.210441e+03 
1.564300e-01 1.194655e+03 
1.576600e-01 1.179949e+03 
1.588700e-01 1.166532e+03 
1.600900e-01 1.153314e+03 
1.612700e-01 1.141768e+03 
1.625400e-01 1.129572e+03 
1.637600e-01 1.118383e+03 
1.649500e-01 1.107843e+03 
1.662200e-01 1.096795e+03 
1.674000e-01 1.086688e+03 
1.685000e-01 1.077423e+03 
1.697500e-01 1.066820e+03 
1.710300e-01 1.055907e+03 
1.722200e-01 1.045940e+03 
1.734400e-01 1.035167e+03 
1.746400e-01 1.024722e+03 
1.758700e-01 1.013936e+03 
1.770900e-01 1.002885e+03 
1.782700e-01 9.923786e+02 
1.794600e-01 9.815605e+02 
1.807000e-01 9.702130e+02 
1.819100e-01 9.593317e+02 
1.830100e-01 9.492440e+02 
1.842200e-01 9.382674e+02 
1.855000e-01 9.268524e+02 
1.867000e-01 9.161795e+02 
1.879200e-01 9.055122e+02 
1.890900e-01 8.954602e+02 
1.902800e-01 8.854455e+02 
1.915200e-01 8.751838e+02 
1.926900e-01 8.657124e+02 
1.939000e-01 8.562439e+02 
1.951700e-01 8.464705e+02 
1.963100e-01 8.379138e+02 
1.975100e-01 8.292479e+02 
1.987800e-01 8.202236e+02 
2.000100e-01 8.117083e+02 
2.012500e-01 8.034536e+02 
2.023400e-01 7.963042e+02 
2.036100e-01 7.881433e+02 
2.048900e-01 7.802253e+02 
2.060400e-01 7.732180e+02 
2.072200e-01 7.661408e+02 
2.084200e-01 7.591735e+02 
2.096900e-01 7.519095e+02 
2.109200e-01 7.449796e+02 
2.121100e-01 7.384186e+02 
2.132700e-01 7.321143e+02 
2.145200e-01 7.254171e+02 
2.157200e-01 7.190814e+02 
2.168800e-01 7.130418e+02 
2.180700e-01 7.069301e+02 
2.193400e-01 7.004890e+02 
2.206000e-01 6.941709e+02 
2.217500e-01 6.884836e+02 
2.229500e-01 6.826280e+02 
2.241400e-01 6.768648e+02 
2.253500e-01 6.710828e+02 
2.264900e-01 6.657069e+02 
2.277100e-01 6.600195e+02 
2.289900e-01 6.541242e+02 
2.301500e-01 6.488534e+02 
2.313600e-01 6.434268e+02 
2.325600e-01 6.381165e+02 
2.337700e-01 6.328319e+02 
2.350000e-01 6.275307e+02 
2.362000e-01 6.224341e+02 
2.374100e-01 6.173706e+02 
2.386500e-01 6.122490e+02 
2.399100e-01 6.071135e+02 
2.410400e-01 6.025942e+02 
2.422500e-01 5.978178e+02 
2.435000e-01 5.929465e+02 
2.447300e-01 5.882216e+02 
2.458700e-01 5.839240e+02 
2.470600e-01 5.794914e+02 
2.483300e-01 5.748199e+02 
2.495600e-01 5.703644e+02 
2.507600e-01 5.660866e+02 
2.519600e-01 5.618602e+02 
2.532200e-01 5.574768e+02 
2.543700e-01 5.535337e+02 
2.555500e-01 5.495409e+02 
2.568000e-01 5.453617e+02 
2.580100e-01 5.413648e+02 
2.592400e-01 5.373550e+02 
2.604100e-01 5.335873e+02 
2.616100e-01 5.297671e+02 
2.628400e-01 5.258970e+02 
2.640600e-01 5.221024e+02 
2.652200e-01 5.185349e+02 
2.664300e-01 5.148553e+02 
2.676500e-01 5.111878e+02 
2.688400e-01 5.076446e+02 
2.700700e-01 5.040197e+02 
2.712400e-01 5.006102e+02 
2.724800e-01 4.970369e+02 
2.736700e-01 4.936436e+02 
2.748800e-01 4.902288e+02 
2.761000e-01 4.868239e+02 
2.773200e-01 4.834569e+02 
2.785400e-01 4.801242e+02 
2.797000e-01 4.769834e+02 
2.808900e-01 4.737953e+02 
2.821400e-01 4.704832e+02 
2.833900e-01 4.672076e+02 
2.845500e-01 4.641935e+02 
2.857800e-01 4.610314e+02 
2.870300e-01 4.578529e+02 
2.882100e-01 4.548844e+02 
2.893900e-01 4.519448e+02 
2.906300e-01 4.488873e+02 
2.918900e-01 4.458142e+02 
2.930500e-01 4.430145e+02 
2.942500e-01 4.401471e+02 
2.954200e-01 4.373777e+02 
2.966500e-01 4.344962e+02 
2.978900e-01 4.316217e+02 
2.990400e-01 4.289828e+02 
3.002700e-01 4.261879e+02 
3.015100e-01 4.233990e+02 
3.026800e-01 4.207940e+02 
3.038500e-01 4.182145e+02 
3.050300e-01 4.156383e+02 
3.062600e-01 4.129800e+02 
3.075000e-01 4.103274e+02 
3.087000e-01 4.077860e+02 
3.099100e-01 4.052487e+02 
3.111200e-01 4.027380e+02 
3.123100e-01 4.002955e+02 
3.135300e-01 3.978159e+02 
3.147300e-01 3.954006e+02 
3.159900e-01 3.928896e+02 
3.171800e-01 3.905434e+02 
3.183700e-01 3.882208e+02 
3.196300e-01 3.857855e+02 
3.208400e-01 3.834696e+02 
3.220300e-01 3.812135e+02 
3.232000e-01 3.790204e+02 
3.244300e-01 3.767383e+02 
3.256700e-01 3.744598e+02 
3.269200e-01 3.721850e+02 
3.280800e-01 3.700936e+02 
3.292500e-01 3.680095e+02 
3.304800e-01 3.658406e+02 
3.317100e-01 3.636921e+02 
3.328900e-01 3.616498e+02 
3.340700e-01 3.596257e+02 
3.353600e-01 3.574405e+02 
3.365300e-01 3.554795e+02 
3.377100e-01 3.535191e+02 
3.389200e-01 3.515268e+02 
3.401600e-01 3.495037e+02 
3.413700e-01 3.475538e+02 
3.425300e-01 3.457052e+02 
3.437700e-01 3.437465e+02 
3.449800e-01 3.418524e+02 
3.461800e-01 3.399904e+02 
3.473600e-01 3.381785e+02 
3.485800e-01 3.363292e+02 
3.498100e-01 3.344812e+02 
3.510200e-01 3.326792e+02 
3.522000e-01 3.309369e+02 
3.533900e-01 3.291947e+02 
3.546400e-01 3.273902e+02 
3.558400e-01 3.256736e+02 
3.570600e-01 3.239432e+02 
3.582700e-01 3.222416e+02 
3.595000e-01 3.205267e+02 
3.607100e-01 3.188597e+02 
3.618900e-01 3.172520e+02 
3.631200e-01 3.155901e+02 
3.643200e-01 3.139823e+02 
3.655500e-01 3.123481e+02 
3.667300e-01 3.107933e+02 
3.679500e-01 3.092098e+02 
3.691900e-01 3.076137e+02 
3.703600e-01 3.061200e+02 
3.715700e-01 3.045877e+02 
3.727700e-01 3.030804e+02 
3.739900e-01 3.015639e+02 
3.752000e-01 3.000783e+02 
3.763900e-01 2.986289e+02 
3.775800e-01 2.971909e+02 
3.788200e-01 2.957046e+02 
3.800300e-01 2.942660e+02 
3.812100e-01 2.928788e+02 
3.824200e-01 2.914707e+02 
3.836100e-01 2.900968e+02 
3.848600e-01 2.886650e+02 
3.860400e-01 2.873241e+02 
3.872400e-01 2.859710e+02 
3.884600e-01 2.846121e+02 
3.896500e-01 2.832992e+02 
3.908700e-01 2.819636e+02 
3.920600e-01 2.806709e+02 
3.933100e-01 2.793235e+02 
3.945300e-01 2.780188e+02 
3.957200e-01 2.767620e+02 
3.969300e-01 2.754954e+02 
3.981700e-01 2.742075e+02 
3.993500e-01 2.729911e+02 
4.094840e-01 2.629350e+02 
4.272360e-01 2.468936e+02 
4.454600e-01 2.321923e+02 
4.630560e-01 2.194354e+02 
4.804610e-01 2.080139e+02 
4.980690e-01 1.975089e+02 
5.159230e-01 1.877945e+02 
5.317440e-01 1.798865e+02 
5.489640e-01 1.719428e+02 
5.671990e-01 1.642070e+02 
5.838690e-01 1.576805e+02 
6.018840e-01 1.511537e+02 
6.202330e-01 1.450173e+02 
6.379250e-01 1.395320e+02 
6.545410e-01 1.347427e+02 
6.714560e-01 1.301843e+02 
6.892080e-01 1.257195e+02 
7.066010e-01 1.216380e+02 
7.240540e-01 1.177961e+02 
7.420450e-01 1.140946e+02 
7.593780e-01 1.107491e+02 
7.764720e-01 1.076399e+02 
7.942840e-01 1.045873e+02 
8.116170e-01 1.017890e+02 
8.288310e-01 9.916250e+01 
8.462240e-01 9.665136e+01 
8.631980e-01 9.432537e+01 
8.810700e-01 9.199993e+01 
8.989410e-01 8.979113e+01 
9.166330e-01 8.771290e+01 
9.345640e-01 8.570885e+01 
9.515980e-01 8.389112e+01 
9.688720e-01 8.212701e+01 
9.865640e-01 8.040014e+01 
1.031870e+00 7.629546e+01 
1.063490e+00 7.367318e+01 
1.097920e+00 7.101959e+01 
1.134370e+00 6.840573e+01 
1.167730e+00 6.617427e+01 
1.203830e+00 6.390840e+01 
1.240470e+00 6.175537e+01 
1.275790e+00 5.980301e+01 
1.309140e+00 5.806353e+01 
1.342970e+00 5.638398e+01 
1.378420e+00 5.471827e+01 
1.413200e+00 5.316635e+01 
1.448110e+00 5.168282e+01 
1.484090e+00 5.022788e+01 
1.518820e+00 4.888754e+01 
1.552880e+00 4.763038e+01 
1.588630e+00 4.636708e+01 
1.623230e+00 4.519756e+01 
1.657720e+00 4.407843e+01 
1.692450e+00 4.299805e+01 
1.726400e+00 4.198081e+01 
1.762200e+00 4.094812e+01 
1.797880e+00 3.995948e+01 
1.833270e+00 3.901652e+01 
1.869070e+00 3.809657e+01 
1.903200e+00 3.725115e+01 
1.937740e+00 3.642505e+01 
1.973190e+00 3.560632e+01 
2.007440e+00 3.484223e+01 
2.042160e+00 3.409251e+01 
2.077900e+00 3.334586e+01 
2.112390e+00 3.264922e+01 
2.146220e+00 3.198596e+01 
2.181600e+00 3.131431e+01 
2.216930e+00 3.066404e+01 
2.250760e+00 3.006034e+01 
2.286500e+00 2.944180e+01 
2.321770e+00 2.884966e+01 
2.355950e+00 2.829295e+01 
2.391280e+00 2.773204e+01 
2.426240e+00 2.719315e+01 
2.460670e+00 2.667792e+01 
2.495640e+00 2.616976e+01 
2.531080e+00 2.566768e+01 
2.566220e+00 2.518317e+01 
2.600830e+00 2.471916e+01 
2.635080e+00 2.427259e+01 
2.670340e+00 2.382345e+01 
2.705970e+00 2.338198e+01 
2.740040e+00 2.297113e+01 
2.774520e+00 2.256506e+01 
2.809730e+00 2.216033e+01 
2.844390e+00 2.177235e+01 
2.879960e+00 2.138416e+01 
2.914860e+00 2.101214e+01 
2.949410e+00 2.065319e+01 
2.984440e+00 2.029744e+01 
3.019760e+00 1.994721e+01 
3.054730e+00 1.960915e+01 
3.089030e+00 1.928440e+01 
3.124060e+00 1.896093e+01 
3.159560e+00 1.864081e+01 
3.194710e+00 1.833083e+01 
3.229010e+00 1.803577e+01 
3.263320e+00 1.774583e+01 
3.297930e+00 1.746036e+01 
3.332830e+00 1.717869e+01 
3.368040e+00 1.690086e+01 
3.403300e+00 1.662909e+01 
3.438450e+00 1.636355e+01 
3.473060e+00 1.610833e+01 
3.508440e+00 1.585202e+01 
3.543110e+00 1.560688e+01 
3.577470e+00 1.536856e+01 
3.613040e+00 1.512743e+01 
3.648120e+00 1.489416e+01 
3.682910e+00 1.466785e+01 
3.718050e+00 1.444374e+01 
3.753320e+00 1.422361e+01 
3.787980e+00 1.401154e+01 
3.822290e+00 1.380595e+01 
3.857020e+00 1.360184e+01 
3.891920e+00 1.340092e+01 
3.926650e+00 1.320462e+01 
3.961970e+00 1.300921e+01 
3.997360e+00 1.281715e+01 
4.031670e+00 1.263490e+01 
4.066330e+00 1.245398e+01 
4.101420e+00 1.227477e+01 
4.136200e+00 1.209994e+01 
4.170810e+00 1.192968e+01 
4.206250e+00 1.175845e+01 
4.241580e+00 1.159130e+01 
4.276300e+00 1.142997e+01 
4.310970e+00 1.127192e+01 
4.346120e+00 1.111474e+01 
4.380600e+00 1.096325e+01 
4.414730e+00 1.081631e+01 
4.450350e+00 1.066547e+01 
4.485320e+00 1.052041e+01 
4.519810e+00 1.037977e+01 
4.555430e+00 1.023723e+01 
4.590870e+00 1.009809e+01 
4.625480e+00 9.964520e+00 
4.659910e+00 9.834217e+00 
4.695230e+00 9.702824e+00 
4.729960e+00 9.576083e+00 
4.764450e+00 9.452411e+00 
4.799530e+00 9.328679e+00 
4.834910e+00 9.206277e+00 
4.869700e+00 9.087918e+00 
4.904370e+00 8.972118e+00 
4.939450e+00 8.857046e+00 
4.973940e+00 8.745785e+00 
5.008430e+00 8.636544e+00 
5.043810e+00 8.526313e+00 
5.078840e+00 8.419043e+00 
5.113500e+00 8.314818e+00 
5.148890e+00 8.210064e+00 
5.184210e+00 8.107394e+00 
5.219060e+00 8.007856e+00 
5.253660e+00 7.910652e+00 
5.288570e+00 7.814289e+00 
5.323420e+00 7.719671e+00 
5.358440e+00 7.626134e+00 
5.393590e+00 7.533875e+00 
5.428310e+00 7.444229e+00 
5.462800e+00 7.356639e+00 
5.497640e+00 7.269648e+00 
5.532670e+00 7.183603e+00 
5.567280e+00 7.099991e+00 
5.602000e+00 7.017500e+00 
5.637270e+00 6.935008e+00 
5.672410e+00 6.854165e+00 
5.707020e+00 6.775844e+00 
5.742040e+00 6.697896e+00 
5.777430e+00 6.620413e+00 
5.812210e+00 6.545499e+00 
5.846820e+00 6.472069e+00 
5.881610e+00 6.399408e+00 
5.916510e+00 6.327671e+00 
5.951600e+00 6.256672e+00 
5.986560e+00 6.187043e+00 
6.021830e+00 6.117900e+00 
6.056490e+00 6.051037e+00 
6.091160e+00 5.985205e+00 
6.125830e+00 5.920377e+00 
6.161090e+00 5.855461e+00 
6.195760e+00 5.792614e+00 
6.230420e+00 5.730729e+00 
6.265690e+00 5.668704e+00 
6.300950e+00 5.607672e+00 
6.335620e+00 5.548555e+00 
6.370880e+00 5.489325e+00 
6.405550e+00 5.431982e+00 
6.440220e+00 5.375488e+00 
6.475480e+00 5.318873e+00 
6.510150e+00 5.264037e+00 
6.544810e+00 5.210051e+00 
6.580080e+00 5.155906e+00 
6.614750e+00 5.103445e+00 
6.649410e+00 5.051796e+00 
6.684080e+00 5.000869e+00 
6.719340e+00 4.949807e+00 
6.754010e+00 4.900338e+00 
6.788680e+00 4.851635e+00 
6.823940e+00 4.802791e+00 
6.859800e+00 4.753816e+00 
6.894470e+00 4.707169e+00 
6.929140e+00 4.661173e+00 
6.963800e+00 4.615812e+00 
6.999070e+00 4.570287e+00 
7.033730e+00 4.526256e+00 
7.068400e+00 4.482799e+00 
7.103660e+00 4.439195e+00 
7.138330e+00 4.396921e+00 
7.173600e+00 4.354547e+00 
7.208260e+00 4.313456e+00 
7.243530e+00 4.272191e+00 
7.277600e+00 4.232885e+00 
7.312860e+00 4.192765e+00 
7.348120e+00 4.153170e+00 
7.382790e+00 4.114741e+00 
7.417460e+00 4.076895e+00 
7.452720e+00 4.038946e+00 
7.487390e+00 4.002108e+00 
7.522650e+00 3.965118e+00 
7.557320e+00 3.929276e+00 
7.591990e+00 3.893908e+00 
7.627250e+00 3.858388e+00 
7.662510e+00 3.823314e+00 
7.697180e+00 3.789334e+00 
7.731850e+00 3.755800e+00 
7.766510e+00 3.722684e+00 
7.801180e+00 3.689962e+00 
7.836440e+00 3.657142e+00 
7.871110e+00 3.625296e+00 
7.906380e+00 3.593291e+00 
7.941040e+00 3.562219e+00 
7.976310e+00 3.531021e+00 
8.011570e+00 3.500259e+00 
8.046240e+00 3.470370e+00 
8.080900e+00 3.440842e+00 
8.115570e+00 3.411674e+00 
8.150830e+00 3.382451e+00 
8.185500e+00 3.354053e+00 
8.220770e+00 3.325500e+00 
8.255430e+00 3.297767e+00 
8.290100e+00 3.270434e+00 
8.324770e+00 3.243423e+00 
8.359430e+00 3.216727e+00 
8.394700e+00 3.189872e+00 
8.429960e+00 3.163381e+00 
8.464630e+00 3.137680e+00 
8.499890e+00 3.111836e+00 
8.534560e+00 3.086710e+00 
8.569200e+00 3.061884e+00 
