# Parameters:
# omega_b = 0.021736, omega_m = 0.131850, n_s = 0.930315, h = 71.535433, w = -1.000000, sigma_8 = 0.740945
# z = 1.500000
#
# k[1/Mpc] # P(k):
8.694000e-04 4.613783e+03 
2.077466e-03 9.498329e+03 
3.285532e-03 1.314261e+04 
4.493598e-03 1.582407e+04 
5.701664e-03 1.772586e+04 
6.909730e-03 1.899555e+04 
8.117797e-03 1.978297e+04 
9.325863e-03 2.016696e+04 
1.053393e-02 2.022415e+04 
1.174199e-02 2.002283e+04 
1.295006e-02 1.960617e+04 
1.415813e-02 1.902967e+04 
1.536619e-02 1.834045e+04 
1.657426e-02 1.756959e+04 
1.778233e-02 1.674513e+04 
1.899039e-02 1.590784e+04 
2.019846e-02 1.507935e+04 
2.140652e-02 1.427772e+04 
2.261459e-02 1.351275e+04 
2.382266e-02 1.279607e+04 
2.503072e-02 1.213524e+04 
2.623879e-02 1.153211e+04 
2.744685e-02 1.098697e+04 
2.865492e-02 1.049889e+04 
2.986299e-02 1.006390e+04 
3.100100e-02 9.700806e+03 
3.220400e-02 9.361047e+03 
3.288100e-02 9.189034e+03 
3.424300e-02 8.877593e+03 
3.555100e-02 8.615134e+03 
3.686000e-02 8.382246e+03 
3.795000e-02 8.205642e+03 
3.929100e-02 8.005074e+03 
4.039800e-02 7.847975e+03 
4.164000e-02 7.677133e+03 
4.294400e-02 7.496237e+03 
4.415000e-02 7.328457e+03 
4.542900e-02 7.142096e+03 
4.660900e-02 6.966435e+03 
4.782300e-02 6.773150e+03 
4.892900e-02 6.592476e+03 
5.031200e-02 6.358351e+03 
5.155900e-02 6.139798e+03 
5.238100e-02 5.993668e+03 
5.378200e-02 5.743221e+03 
5.513400e-02 5.501264e+03 
5.627600e-02 5.299357e+03 
5.735300e-02 5.113040e+03 
5.870100e-02 4.887469e+03 
5.988700e-02 4.697966e+03 
6.113500e-02 4.508554e+03 
6.225900e-02 4.348110e+03 
6.340100e-02 4.195699e+03 
6.480200e-02 4.023084e+03 
6.601100e-02 3.888731e+03 
6.725500e-02 3.763893e+03 
6.829100e-02 3.671104e+03 
6.958600e-02 3.566388e+03 
7.071100e-02 3.486127e+03 
7.192300e-02 3.409086e+03 
7.307400e-02 3.343932e+03 
7.412300e-02 3.290396e+03 
7.550400e-02 3.227712e+03 
7.663100e-02 3.181102e+03 
7.791200e-02 3.132739e+03 
7.912700e-02 3.089421e+03 
8.027600e-02 3.049609e+03 
8.138400e-02 3.011608e+03 
8.272200e-02 2.965290e+03 
8.406100e-02 2.917602e+03 
8.534100e-02 2.869170e+03 
8.653800e-02 2.820962e+03 
8.759800e-02 2.776562e+03 
8.900300e-02 2.714760e+03 
9.009000e-02 2.664344e+03 
9.113300e-02 2.613656e+03 
9.239600e-02 2.551099e+03 
9.358000e-02 2.490807e+03 
9.496100e-02 2.418585e+03 
9.608400e-02 2.359926e+03 
9.727500e-02 2.298301e+03 
9.852600e-02 2.233600e+03 
9.973800e-02 2.172846e+03 
1.009000e-01 2.116359e+03 
1.020900e-01 2.061256e+03 
1.034000e-01 2.003641e+03 
1.046000e-01 1.953710e+03 
1.057200e-01 1.911167e+03 
1.069100e-01 1.868391e+03 
1.082500e-01 1.825080e+03 
1.093900e-01 1.791676e+03 
1.105400e-01 1.760235e+03 
1.116900e-01 1.732893e+03 
1.129600e-01 1.704593e+03 
1.142000e-01 1.680409e+03 
1.153300e-01 1.659797e+03 
1.166400e-01 1.637861e+03 
1.177800e-01 1.619989e+03 
1.190000e-01 1.601670e+03 
1.201200e-01 1.585152e+03 
1.213400e-01 1.567567e+03 
1.227100e-01 1.547035e+03 
1.238900e-01 1.529370e+03 
1.250700e-01 1.510671e+03 
1.263200e-01 1.490634e+03 
1.275500e-01 1.469839e+03 
1.287500e-01 1.449164e+03 
1.299900e-01 1.426937e+03 
1.311300e-01 1.406213e+03 
1.323500e-01 1.383400e+03 
1.335900e-01 1.360158e+03 
1.347100e-01 1.338846e+03 
1.359800e-01 1.314917e+03 
1.372100e-01 1.291650e+03 
1.384300e-01 1.269001e+03 
1.395700e-01 1.248022e+03 
1.407700e-01 1.226448e+03 
1.420300e-01 1.204373e+03 
1.432800e-01 1.183003e+03 
1.444500e-01 1.163883e+03 
1.456300e-01 1.145026e+03 
1.468900e-01 1.125929e+03 
1.480500e-01 1.108910e+03 
1.491700e-01 1.093196e+03 
1.503800e-01 1.077055e+03 
1.516400e-01 1.060790e+03 
1.528200e-01 1.046667e+03 
1.540200e-01 1.032592e+03 
1.551900e-01 1.019826e+03 
1.564300e-01 1.006729e+03 
1.576600e-01 9.942946e+02 
1.588700e-01 9.826591e+02 
1.600900e-01 9.711701e+02 
1.612700e-01 9.606214e+02 
1.625400e-01 9.494812e+02 
1.637600e-01 9.390082e+02 
1.649500e-01 9.289937e+02 
1.662200e-01 9.184660e+02 
1.674000e-01 9.086578e+02 
1.685000e-01 8.996693e+02 
1.697500e-01 8.894038e+02 
1.710300e-01 8.788603e+02 
1.722200e-01 8.692358e+02 
1.734400e-01 8.590303e+02 
1.746400e-01 8.491492e+02 
1.758700e-01 8.390447e+02 
1.770900e-01 8.288841e+02 
1.782700e-01 8.192291e+02 
1.794600e-01 8.094573e+02 
1.807000e-01 7.993188e+02 
1.819100e-01 7.896018e+02 
1.830100e-01 7.807846e+02 
1.842200e-01 7.712253e+02 
1.855000e-01 7.612950e+02 
1.867000e-01 7.521745e+02 
1.879200e-01 7.430613e+02 
1.890900e-01 7.344923e+02 
1.902800e-01 7.260421e+02 
1.915200e-01 7.173850e+02 
1.926900e-01 7.094072e+02 
1.939000e-01 7.014693e+02 
1.951700e-01 6.932768e+02 
1.963100e-01 6.861061e+02 
1.975100e-01 6.788471e+02 
1.987800e-01 6.712888e+02 
2.000100e-01 6.641493e+02 
2.012500e-01 6.572093e+02 
2.023400e-01 6.511993e+02 
2.036100e-01 6.443303e+02 
2.048900e-01 6.376295e+02 
2.060400e-01 6.317003e+02 
2.072200e-01 6.257090e+02 
2.084200e-01 6.197655e+02 
2.096900e-01 6.135700e+02 
2.109200e-01 6.076606e+02 
2.121100e-01 6.020229e+02 
2.132700e-01 5.966045e+02 
2.145200e-01 5.908497e+02 
2.157200e-01 5.853785e+02 
2.168800e-01 5.801511e+02 
2.180700e-01 5.748626e+02 
2.193400e-01 5.692786e+02 
2.206000e-01 5.637809e+02 
2.217500e-01 5.588334e+02 
2.229500e-01 5.537408e+02 
2.241400e-01 5.487021e+02 
2.253500e-01 5.436478e+02 
2.264900e-01 5.389498e+02 
2.277100e-01 5.339699e+02 
2.289900e-01 5.287971e+02 
2.301500e-01 5.241739e+02 
2.313600e-01 5.194153e+02 
2.325600e-01 5.147404e+02 
2.337700e-01 5.100899e+02 
2.350000e-01 5.054263e+02 
2.362000e-01 5.009371e+02 
2.374100e-01 4.964700e+02 
2.386500e-01 4.919533e+02 
2.399100e-01 4.874261e+02 
2.410400e-01 4.834378e+02 
2.422500e-01 4.792233e+02 
2.435000e-01 4.749268e+02 
2.447300e-01 4.707608e+02 
2.458700e-01 4.669724e+02 
2.470600e-01 4.630664e+02 
2.483300e-01 4.589514e+02 
2.495600e-01 4.550320e+02 
2.507600e-01 4.512757e+02 
2.519600e-01 4.475658e+02 
2.532200e-01 4.437195e+02 
2.543700e-01 4.402702e+02 
2.555500e-01 4.367850e+02 
2.568000e-01 4.331382e+02 
2.580100e-01 4.296517e+02 
2.592400e-01 4.261689e+02 
2.604100e-01 4.229035e+02 
2.616100e-01 4.195935e+02 
2.628400e-01 4.162412e+02 
2.640600e-01 4.129702e+02 
2.652200e-01 4.099017e+02 
2.664300e-01 4.067376e+02 
2.676500e-01 4.035847e+02 
2.688400e-01 4.005501e+02 
2.700700e-01 3.974531e+02 
2.712400e-01 3.945407e+02 
2.724800e-01 3.914893e+02 
2.736700e-01 3.885991e+02 
2.748800e-01 3.856979e+02 
2.761000e-01 3.828061e+02 
2.773200e-01 3.799470e+02 
2.785400e-01 3.771207e+02 
2.797000e-01 3.744639e+02 
2.808900e-01 3.717678e+02 
2.821400e-01 3.689674e+02 
2.833900e-01 3.661987e+02 
2.845500e-01 3.636559e+02 
2.857800e-01 3.609888e+02 
2.870300e-01 3.583085e+02 
2.882100e-01 3.558058e+02 
2.893900e-01 3.533296e+02 
2.906300e-01 3.507556e+02 
2.918900e-01 3.481689e+02 
2.930500e-01 3.458129e+02 
2.942500e-01 3.434008e+02 
2.954200e-01 3.410725e+02 
2.966500e-01 3.386504e+02 
2.978900e-01 3.362349e+02 
2.990400e-01 3.340178e+02 
3.002700e-01 3.316705e+02 
3.015100e-01 3.293292e+02 
3.026800e-01 3.271427e+02 
3.038500e-01 3.249781e+02 
3.050300e-01 3.228167e+02 
3.062600e-01 3.205869e+02 
3.075000e-01 3.183623e+02 
3.087000e-01 3.162315e+02 
3.099100e-01 3.141046e+02 
3.111200e-01 3.120006e+02 
3.123100e-01 3.099544e+02 
3.135300e-01 3.078776e+02 
3.147300e-01 3.058551e+02 
3.159900e-01 3.037530e+02 
3.171800e-01 3.017899e+02 
3.183700e-01 2.998474e+02 
3.196300e-01 2.978111e+02 
3.208400e-01 2.958751e+02 
3.220300e-01 2.939895e+02 
3.232000e-01 2.921575e+02 
3.244300e-01 2.902518e+02 
3.256700e-01 2.883494e+02 
3.269200e-01 2.864507e+02 
3.280800e-01 2.847054e+02 
3.292500e-01 2.829672e+02 
3.304800e-01 2.811589e+02 
3.317100e-01 2.793680e+02 
3.328900e-01 2.776659e+02 
3.340700e-01 2.759795e+02 
3.353600e-01 2.741603e+02 
3.365300e-01 2.725287e+02 
3.377100e-01 2.708979e+02 
3.389200e-01 2.692408e+02 
3.401600e-01 2.675586e+02 
3.413700e-01 2.659384e+02 
3.425300e-01 2.644034e+02 
3.437700e-01 2.627773e+02 
3.449800e-01 2.612051e+02 
3.461800e-01 2.596599e+02 
3.473600e-01 2.581570e+02 
3.485800e-01 2.566245e+02 
3.498100e-01 2.550934e+02 
3.510200e-01 2.536006e+02 
3.522000e-01 2.521577e+02 
3.533900e-01 2.507150e+02 
3.546400e-01 2.492229e+02 
3.558400e-01 2.478038e+02 
3.570600e-01 2.463736e+02 
3.582700e-01 2.449675e+02 
3.595000e-01 2.435506e+02 
3.607100e-01 2.421744e+02 
3.618900e-01 2.408480e+02 
3.631200e-01 2.394772e+02 
3.643200e-01 2.381513e+02 
3.655500e-01 2.368038e+02 
3.667300e-01 2.355221e+02 
3.679500e-01 2.342187e+02 
3.691900e-01 2.329052e+02 
3.703600e-01 2.316762e+02 
3.715700e-01 2.304156e+02 
3.727700e-01 2.291759e+02 
3.739900e-01 2.279292e+02 
3.752000e-01 2.267090e+02 
3.763900e-01 2.255187e+02 
3.775800e-01 2.243380e+02 
3.788200e-01 2.231179e+02 
3.800300e-01 2.219371e+02 
3.812100e-01 2.207996e+02 
3.824200e-01 2.196458e+02 
3.836100e-01 2.185202e+02 
3.848600e-01 2.173473e+02 
3.860400e-01 2.162491e+02 
3.872400e-01 2.151410e+02 
3.884600e-01 2.140295e+02 
3.896500e-01 2.129562e+02 
3.908700e-01 2.118645e+02 
3.920600e-01 2.108080e+02 
3.933100e-01 2.097070e+02 
3.945300e-01 2.086410e+02 
3.957200e-01 2.076152e+02 
3.969300e-01 2.065819e+02 
3.981700e-01 2.055313e+02 
3.993500e-01 2.045392e+02 
4.094840e-01 1.963505e+02 
4.272360e-01 1.833407e+02 
4.454600e-01 1.714743e+02 
4.630560e-01 1.612249e+02 
4.804610e-01 1.520898e+02 
4.980690e-01 1.437232e+02 
5.159230e-01 1.360215e+02 
5.317440e-01 1.297752e+02 
5.489640e-01 1.235272e+02 
5.671990e-01 1.174670e+02 
5.838690e-01 1.123711e+02 
6.018840e-01 1.072904e+02 
6.202330e-01 1.025306e+02 
6.379250e-01 9.828716e+01 
6.545410e-01 9.459242e+01 
6.714560e-01 9.108253e+01 
6.892080e-01 8.765231e+01 
7.066010e-01 8.452193e+01 
7.240540e-01 8.158301e+01 
7.420450e-01 7.875508e+01 
7.593780e-01 7.620448e+01 
7.764720e-01 7.383790e+01 
7.942840e-01 7.151943e+01 
8.116170e-01 6.939677e+01 
8.288310e-01 6.740942e+01 
8.462240e-01 6.551153e+01 
8.631980e-01 6.375793e+01 
8.810700e-01 6.200847e+01 
8.989410e-01 6.035137e+01 
9.166330e-01 5.879528e+01 
9.345640e-01 5.729739e+01 
9.515980e-01 5.594299e+01 
9.688720e-01 5.463224e+01 
9.865640e-01 5.335233e+01 
1.031870e+00 5.032578e+01 
1.063490e+00 4.840506e+01 
1.097920e+00 4.647148e+01 
1.134370e+00 4.457921e+01 
1.167730e+00 4.297324e+01 
1.203830e+00 4.135488e+01 
1.240470e+00 3.982581e+01 
1.275790e+00 3.844855e+01 
1.309140e+00 3.722800e+01 
1.342970e+00 3.605888e+01 
1.378420e+00 3.490455e+01 
1.413200e+00 3.383587e+01 
1.448110e+00 3.281976e+01 
1.484090e+00 3.182876e+01 
1.518820e+00 3.092087e+01 
1.552880e+00 3.007384e+01 
1.588630e+00 2.922669e+01 
1.623230e+00 2.844600e+01 
1.657720e+00 2.770266e+01 
1.692450e+00 2.698774e+01 
1.726400e+00 2.631766e+01 
1.762200e+00 2.564030e+01 
1.797880e+00 2.499464e+01 
1.833270e+00 2.438067e+01 
1.869070e+00 2.378419e+01 
1.903200e+00 2.323807e+01 
1.937740e+00 2.270584e+01 
1.973190e+00 2.217991e+01 
2.007440e+00 2.169040e+01 
2.042160e+00 2.121188e+01 
2.077900e+00 2.073663e+01 
2.112390e+00 2.029407e+01 
2.146220e+00 1.987396e+01 
2.181600e+00 1.944961e+01 
2.216930e+00 1.903979e+01 
2.250760e+00 1.865999e+01 
2.286500e+00 1.827157e+01 
2.321770e+00 1.790050e+01 
2.355950e+00 1.755211e+01 
2.391280e+00 1.720225e+01 
2.426240e+00 1.686657e+01 
2.460670e+00 1.654595e+01 
2.495640e+00 1.623006e+01 
2.531080e+00 1.591870e+01 
2.566220e+00 1.561872e+01 
2.600830e+00 1.533174e+01 
2.635080e+00 1.505579e+01 
2.670340e+00 1.477859e+01 
2.705970e+00 1.450644e+01 
2.740040e+00 1.425340e+01 
2.774520e+00 1.400358e+01 
2.809730e+00 1.375492e+01 
2.844390e+00 1.351667e+01 
2.879960e+00 1.327831e+01 
2.914860e+00 1.305018e+01 
2.949410e+00 1.283020e+01 
2.984440e+00 1.261235e+01 
3.019760e+00 1.239810e+01 
3.054730e+00 1.219142e+01 
3.089030e+00 1.199285e+01 
3.124060e+00 1.179511e+01 
3.159560e+00 1.159948e+01 
3.194710e+00 1.141017e+01 
3.229010e+00 1.122999e+01 
3.263320e+00 1.105301e+01 
3.297930e+00 1.087878e+01 
3.332830e+00 1.070696e+01 
3.368040e+00 1.053743e+01 
3.403300e+00 1.037156e+01 
3.438450e+00 1.020958e+01 
3.473060e+00 1.005389e+01 
3.508440e+00 9.897577e+00 
3.543110e+00 9.748030e+00 
3.577470e+00 9.602514e+00 
3.613040e+00 9.455308e+00 
3.648120e+00 9.313008e+00 
3.682910e+00 9.174893e+00 
3.718050e+00 9.038003e+00 
3.753320e+00 8.903546e+00 
3.787980e+00 8.774036e+00 
3.822290e+00 8.648440e+00 
3.857020e+00 8.523696e+00 
3.891920e+00 8.400875e+00 
3.926650e+00 8.280839e+00 
3.961970e+00 8.161292e+00 
3.997360e+00 8.043683e+00 
4.031670e+00 7.932066e+00 
4.066330e+00 7.821282e+00 
4.101420e+00 7.711527e+00 
4.136200e+00 7.604304e+00 
4.170810e+00 7.499875e+00 
4.206250e+00 7.394797e+00 
4.241580e+00 7.292205e+00 
4.276300e+00 7.193098e+00 
4.310970e+00 7.095954e+00 
4.346120e+00 6.999312e+00 
4.380600e+00 6.906141e+00 
4.414730e+00 6.815748e+00 
4.450350e+00 6.722836e+00 
4.485320e+00 6.633472e+00 
4.519810e+00 6.546740e+00 
4.555430e+00 6.458793e+00 
4.590870e+00 6.372928e+00 
4.625480e+00 6.290478e+00 
4.659910e+00 6.210032e+00 
4.695230e+00 6.128767e+00 
4.729960e+00 6.050346e+00 
4.764450e+00 5.973787e+00 
4.799530e+00 5.897135e+00 
4.834910e+00 5.821296e+00 
4.869700e+00 5.747881e+00 
4.904370e+00 5.676032e+00 
4.939450e+00 5.604606e+00 
4.973940e+00 5.535487e+00 
5.008430e+00 5.467615e+00 
5.043810e+00 5.399077e+00 
5.078840e+00 5.332348e+00 
5.113500e+00 5.267506e+00 
5.148890e+00 5.202220e+00 
5.184210e+00 5.138223e+00 
5.219060e+00 5.076156e+00 
5.253660e+00 5.015500e+00 
5.288570e+00 4.955361e+00 
5.323420e+00 4.896278e+00 
5.358440e+00 4.837834e+00 
5.393590e+00 4.780183e+00 
5.428310e+00 4.724101e+00 
5.462800e+00 4.669270e+00 
5.497640e+00 4.614809e+00 
5.532670e+00 4.560874e+00 
5.567280e+00 4.508440e+00 
5.602000e+00 4.456704e+00 
5.637270e+00 4.404934e+00 
5.672410e+00 4.354187e+00 
5.707020e+00 4.305019e+00 
5.742040e+00 4.256024e+00 
5.777430e+00 4.207305e+00 
5.812210e+00 4.160198e+00 
5.846820e+00 4.113991e+00 
5.881610e+00 4.068259e+00 
5.916510e+00 4.023105e+00 
5.951600e+00 3.978370e+00 
5.986560e+00 3.934477e+00 
6.021830e+00 3.890887e+00 
6.056490e+00 3.848705e+00 
6.091160e+00 3.807148e+00 
6.125830e+00 3.766223e+00 
6.161090e+00 3.725230e+00 
6.195760e+00 3.685525e+00 
6.230420e+00 3.646425e+00 
6.265690e+00 3.607234e+00 
6.300950e+00 3.568628e+00 
6.335620e+00 3.531234e+00 
6.370880e+00 3.493765e+00 
6.405550e+00 3.457473e+00 
6.440220e+00 3.421711e+00 
6.475480e+00 3.385871e+00 
6.510150e+00 3.351143e+00 
6.544810e+00 3.316927e+00 
6.580080e+00 3.282608e+00 
6.614750e+00 3.249356e+00 
6.649410e+00 3.216608e+00 
6.684080e+00 3.184315e+00 
6.719340e+00 3.151935e+00 
6.754010e+00 3.120555e+00 
6.788680e+00 3.089637e+00 
6.823940e+00 3.058629e+00 
6.859800e+00 3.027537e+00 
6.894470e+00 2.997918e+00 
6.929140e+00 2.968710e+00 
6.963800e+00 2.939905e+00 
6.999070e+00 2.910995e+00 
7.033730e+00 2.883024e+00 
7.068400e+00 2.855418e+00 
7.103660e+00 2.827718e+00 
7.138330e+00 2.800860e+00 
7.173600e+00 2.773932e+00 
7.208260e+00 2.747819e+00 
7.243530e+00 2.721596e+00 
7.277600e+00 2.696615e+00 
7.312860e+00 2.671117e+00 
7.348120e+00 2.645951e+00 
7.382790e+00 2.621527e+00 
7.417460e+00 2.597460e+00 
7.452720e+00 2.573322e+00 
7.487390e+00 2.549889e+00 
7.522650e+00 2.526360e+00 
7.557320e+00 2.503571e+00 
7.591990e+00 2.481085e+00 
7.627250e+00 2.458503e+00 
7.662510e+00 2.436205e+00 
7.697180e+00 2.414600e+00 
7.731850e+00 2.393278e+00 
7.766510e+00 2.372222e+00 
7.801180e+00 2.351416e+00 
7.836440e+00 2.330556e+00 
7.871110e+00 2.310321e+00 
7.906380e+00 2.289983e+00 
7.941040e+00 2.270238e+00 
7.976310e+00 2.250414e+00 
8.011570e+00 2.230867e+00 
8.046240e+00 2.211874e+00 
8.080900e+00 2.193110e+00 
8.115570e+00 2.174578e+00 
8.150830e+00 2.156019e+00 
8.185500e+00 2.137984e+00 
8.220770e+00 2.119851e+00 
8.255430e+00 2.102237e+00 
8.290100e+00 2.084880e+00 
8.324770e+00 2.067728e+00 
8.359430e+00 2.050776e+00 
8.394700e+00 2.033722e+00 
8.429960e+00 2.016906e+00 
8.464630e+00 2.000598e+00 
8.499890e+00 1.984199e+00 
8.534560e+00 1.968256e+00 
8.569200e+00 1.952502e+00 
