# Parameters:
# omega_b = 0.022713, omega_m = 0.155000, n_s = 0.850000, h = 70.118110, w = -1.000000, sigma_8 = 0.811811
# z = 1.500000
#
# k[1/Mpc] # P(k):
8.694000e-04 4.917852e+03 
2.077466e-03 9.589496e+03 
3.285532e-03 1.299525e+04 
4.493598e-03 1.551505e+04 
5.701664e-03 1.732722e+04 
6.909730e-03 1.857303e+04 
8.117797e-03 1.938983e+04 
9.325863e-03 1.984826e+04 
1.053393e-02 2.001435e+04 
1.174199e-02 1.994530e+04 
1.295006e-02 1.967763e+04 
1.415813e-02 1.925827e+04 
1.536619e-02 1.872608e+04 
1.657426e-02 1.810622e+04 
1.778233e-02 1.742222e+04 
1.899039e-02 1.670987e+04 
2.019846e-02 1.598756e+04 
2.140652e-02 1.527179e+04 
2.261459e-02 1.457098e+04 
2.382266e-02 1.389697e+04 
2.503072e-02 1.325897e+04 
2.623879e-02 1.266071e+04 
2.744685e-02 1.210246e+04 
2.865492e-02 1.158816e+04 
2.986299e-02 1.111658e+04 
3.100100e-02 1.071051e+04 
3.220400e-02 1.031974e+04 
3.288100e-02 1.011695e+04 
3.424300e-02 9.742558e+03 
3.555100e-02 9.420828e+03 
3.686000e-02 9.131837e+03 
3.795000e-02 8.912324e+03 
3.929100e-02 8.665809e+03 
4.039800e-02 8.477242e+03 
4.164000e-02 8.277904e+03 
4.294400e-02 8.077553e+03 
4.415000e-02 7.898555e+03 
4.542900e-02 7.709579e+03 
4.660900e-02 7.536865e+03 
4.782300e-02 7.353739e+03 
4.892900e-02 7.185403e+03 
5.031200e-02 6.970166e+03 
5.155900e-02 6.770322e+03 
5.238100e-02 6.636358e+03 
5.378200e-02 6.405082e+03 
5.513400e-02 6.177327e+03 
5.627600e-02 5.982263e+03 
5.735300e-02 5.796940e+03 
5.870100e-02 5.563993e+03 
5.988700e-02 5.360197e+03 
6.113500e-02 5.148672e+03 
6.225900e-02 4.963245e+03 
6.340100e-02 4.782638e+03 
6.480200e-02 4.574698e+03 
6.601100e-02 4.410217e+03 
6.725500e-02 4.256072e+03 
6.829100e-02 4.140293e+03 
6.958600e-02 4.008796e+03 
7.071100e-02 3.906779e+03 
7.192300e-02 3.807728e+03 
7.307400e-02 3.723007e+03 
7.412300e-02 3.652781e+03 
7.550400e-02 3.570026e+03 
7.663100e-02 3.508551e+03 
7.791200e-02 3.445587e+03 
7.912700e-02 3.390798e+03 
8.027600e-02 3.342080e+03 
8.138400e-02 3.297170e+03 
8.272200e-02 3.244791e+03 
8.406100e-02 3.193327e+03 
8.534100e-02 3.143610e+03 
8.653800e-02 3.095819e+03 
8.759800e-02 3.052608e+03 
8.900300e-02 2.993443e+03 
9.009000e-02 2.945693e+03 
9.113300e-02 2.897811e+03 
9.239600e-02 2.838653e+03 
9.358000e-02 2.781383e+03 
9.496100e-02 2.712029e+03 
9.608400e-02 2.655082e+03 
9.727500e-02 2.594708e+03 
9.852600e-02 2.529795e+03 
9.973800e-02 2.467952e+03 
1.009000e-01 2.409712e+03 
1.020900e-01 2.350932e+03 
1.034000e-01 2.288402e+03 
1.046000e-01 2.233090e+03 
1.057200e-01 2.183979e+03 
1.069100e-01 2.133846e+03 
1.082500e-01 2.080861e+03 
1.093900e-01 2.038619e+03 
1.105400e-01 1.998028e+03 
1.116900e-01 1.960927e+03 
1.129600e-01 1.921985e+03 
1.142000e-01 1.887429e+03 
1.153300e-01 1.857794e+03 
1.166400e-01 1.825935e+03 
1.177800e-01 1.800397e+03 
1.190000e-01 1.774423e+03 
1.201200e-01 1.752498e+03 
1.213400e-01 1.729421e+03 
1.227100e-01 1.705375e+03 
1.238900e-01 1.685287e+03 
1.250700e-01 1.665922e+03 
1.263200e-01 1.645791e+03 
1.275500e-01 1.626228e+03 
1.287500e-01 1.607209e+03 
1.299900e-01 1.587413e+03 
1.311300e-01 1.569017e+03 
1.323500e-01 1.548854e+03 
1.335900e-01 1.528039e+03 
1.347100e-01 1.508608e+03 
1.359800e-01 1.486370e+03 
1.372100e-01 1.463944e+03 
1.384300e-01 1.441672e+03 
1.395700e-01 1.420044e+03 
1.407700e-01 1.397645e+03 
1.420300e-01 1.373293e+03 
1.432800e-01 1.349710e+03 
1.444500e-01 1.327314e+03 
1.456300e-01 1.305232e+03 
1.468900e-01 1.282141e+03 
1.480500e-01 1.261350e+03 
1.491700e-01 1.241928e+03 
1.503800e-01 1.221680e+03 
1.516400e-01 1.201266e+03 
1.528200e-01 1.183421e+03 
1.540200e-01 1.165653e+03 
1.551900e-01 1.149688e+03 
1.564300e-01 1.133353e+03 
1.576600e-01 1.118039e+03 
1.588700e-01 1.103941e+03 
1.600900e-01 1.090053e+03 
1.612700e-01 1.077820e+03 
1.625400e-01 1.064904e+03 
1.637600e-01 1.053092e+03 
1.649500e-01 1.041992e+03 
1.662200e-01 1.030387e+03 
1.674000e-01 1.019934e+03 
1.685000e-01 1.010353e+03 
1.697500e-01 9.995375e+02 
1.710300e-01 9.885502e+02 
1.722200e-01 9.785175e+02 
1.734400e-01 9.679568e+02 
1.746400e-01 9.577310e+02 
1.758700e-01 9.472469e+02 
1.770900e-01 9.366543e+02 
1.782700e-01 9.265845e+02 
1.794600e-01 9.162969e+02 
1.807000e-01 9.055582e+02 
1.819100e-01 8.952617e+02 
1.830100e-01 8.857522e+02 
1.842200e-01 8.754114e+02 
1.855000e-01 8.646568e+02 
1.867000e-01 8.545726e+02 
1.879200e-01 8.444945e+02 
1.890900e-01 8.349860e+02 
1.902800e-01 8.254498e+02 
1.915200e-01 8.156796e+02 
1.926900e-01 8.066406e+02 
1.939000e-01 7.975323e+02 
1.951700e-01 7.881326e+02 
1.963100e-01 7.798807e+02 
1.975100e-01 7.714611e+02 
1.987800e-01 7.626953e+02 
2.000100e-01 7.544059e+02 
2.012500e-01 7.463250e+02 
2.023400e-01 7.393280e+02 
2.036100e-01 7.313362e+02 
2.048900e-01 7.235585e+02 
2.060400e-01 7.166771e+02 
2.072200e-01 7.097289e+02 
2.084200e-01 7.028912e+02 
2.096900e-01 6.957642e+02 
2.109200e-01 6.889666e+02 
2.121100e-01 6.825558e+02 
2.132700e-01 6.763984e+02 
2.145200e-01 6.698586e+02 
2.157200e-01 6.636933e+02 
2.168800e-01 6.578264e+02 
2.180700e-01 6.518908e+02 
2.193400e-01 6.456459e+02 
2.206000e-01 6.395393e+02 
2.217500e-01 6.340433e+02 
2.229500e-01 6.283857e+02 
2.241400e-01 6.228300e+02 
2.253500e-01 6.172575e+02 
2.264900e-01 6.120772e+02 
2.277100e-01 6.065956e+02 
2.289900e-01 6.009122e+02 
2.301500e-01 5.958318e+02 
2.313600e-01 5.906021e+02 
2.325600e-01 5.854679e+02 
2.337700e-01 5.803596e+02 
2.350000e-01 5.752363e+02 
2.362000e-01 5.703000e+02 
2.374100e-01 5.653828e+02 
2.386500e-01 5.604104e+02 
2.399100e-01 5.554256e+02 
2.410400e-01 5.510200e+02 
2.422500e-01 5.463621e+02 
2.435000e-01 5.416128e+02 
2.447300e-01 5.370038e+02 
2.458700e-01 5.327984e+02 
2.470600e-01 5.284618e+02 
2.483300e-01 5.238927e+02 
2.495600e-01 5.195330e+02 
2.507600e-01 5.153442e+02 
2.519600e-01 5.112068e+02 
2.532200e-01 5.069167e+02 
2.543700e-01 5.030610e+02 
2.555500e-01 4.991593e+02 
2.568000e-01 4.950764e+02 
2.580100e-01 4.911726e+02 
2.592400e-01 4.872662e+02 
2.604100e-01 4.836003e+02 
2.616100e-01 4.798842e+02 
2.628400e-01 4.761205e+02 
2.640600e-01 4.724440e+02 
2.652200e-01 4.689934e+02 
2.664300e-01 4.654351e+02 
2.676500e-01 4.618892e+02 
2.688400e-01 4.584755e+02 
2.700700e-01 4.549908e+02 
2.712400e-01 4.517137e+02 
2.724800e-01 4.482799e+02 
2.736700e-01 4.450279e+02 
2.748800e-01 4.417640e+02 
2.761000e-01 4.385104e+02 
2.773200e-01 4.352934e+02 
2.785400e-01 4.321138e+02 
2.797000e-01 4.291262e+02 
2.808900e-01 4.260941e+02 
2.821400e-01 4.229446e+02 
2.833900e-01 4.198307e+02 
2.845500e-01 4.169727e+02 
2.857800e-01 4.139748e+02 
2.870300e-01 4.109620e+02 
2.882100e-01 4.081486e+02 
2.893900e-01 4.053656e+02 
2.906300e-01 4.024728e+02 
2.918900e-01 3.995657e+02 
2.930500e-01 3.969176e+02 
2.942500e-01 3.942062e+02 
2.954200e-01 3.915890e+02 
2.966500e-01 3.888661e+02 
2.978900e-01 3.861503e+02 
2.990400e-01 3.836574e+02 
3.002700e-01 3.810171e+02 
3.015100e-01 3.783828e+02 
3.026800e-01 3.759225e+02 
3.038500e-01 3.734867e+02 
3.050300e-01 3.710544e+02 
3.062600e-01 3.685426e+02 
3.075000e-01 3.660367e+02 
3.087000e-01 3.636362e+02 
3.099100e-01 3.612400e+02 
3.111200e-01 3.588684e+02 
3.123100e-01 3.565600e+02 
3.135300e-01 3.542169e+02 
3.147300e-01 3.519350e+02 
3.159900e-01 3.495630e+02 
3.171800e-01 3.473460e+02 
3.183700e-01 3.451510e+02 
3.196300e-01 3.428499e+02 
3.208400e-01 3.406619e+02 
3.220300e-01 3.385308e+02 
3.232000e-01 3.364584e+02 
3.244300e-01 3.343016e+02 
3.256700e-01 3.321486e+02 
3.269200e-01 3.299995e+02 
3.280800e-01 3.280240e+02 
3.292500e-01 3.260549e+02 
3.304800e-01 3.240059e+02 
3.317100e-01 3.219765e+02 
3.328900e-01 3.200477e+02 
3.340700e-01 3.181365e+02 
3.353600e-01 3.160739e+02 
3.365300e-01 3.142234e+02 
3.377100e-01 3.123737e+02 
3.389200e-01 3.104943e+02 
3.401600e-01 3.085861e+02 
3.413700e-01 3.067481e+02 
3.425300e-01 3.050064e+02 
3.437700e-01 3.031613e+02 
3.449800e-01 3.013773e+02 
3.461800e-01 2.996239e+02 
3.473600e-01 2.979186e+02 
3.485800e-01 2.961800e+02 
3.498100e-01 2.944429e+02 
3.510200e-01 2.927493e+02 
3.522000e-01 2.911120e+02 
3.533900e-01 2.894751e+02 
3.546400e-01 2.877833e+02 
3.558400e-01 2.861741e+02 
3.570600e-01 2.845523e+02 
3.582700e-01 2.829578e+02 
3.595000e-01 2.813510e+02 
3.607100e-01 2.797914e+02 
3.618900e-01 2.782892e+02 
3.631200e-01 2.767365e+02 
3.643200e-01 2.752346e+02 
3.655500e-01 2.737083e+02 
3.667300e-01 2.722563e+02 
3.679500e-01 2.707821e+02 
3.691900e-01 2.692965e+02 
3.703600e-01 2.679064e+02 
3.715700e-01 2.664806e+02 
3.727700e-01 2.650781e+02 
3.739900e-01 2.636688e+02 
3.752000e-01 2.622911e+02 
3.763900e-01 2.609472e+02 
3.775800e-01 2.596141e+02 
3.788200e-01 2.582363e+02 
3.800300e-01 2.569028e+02 
3.812100e-01 2.556200e+02 
3.824200e-01 2.543198e+02 
3.836100e-01 2.530513e+02 
3.848600e-01 2.517295e+02 
3.860400e-01 2.504917e+02 
3.872400e-01 2.492428e+02 
3.884600e-01 2.479920e+02 
3.896500e-01 2.467848e+02 
3.908700e-01 2.455569e+02 
3.920600e-01 2.443684e+02 
3.933100e-01 2.431299e+02 
3.945300e-01 2.419307e+02 
3.957200e-01 2.407792e+02 
3.969300e-01 2.396198e+02 
3.981700e-01 2.384410e+02 
3.993500e-01 2.373278e+02 
4.094840e-01 2.281442e+02 
4.272360e-01 2.136002e+02 
4.454600e-01 2.003474e+02 
4.630560e-01 1.888924e+02 
4.804610e-01 1.786590e+02 
4.980690e-01 1.692547e+02 
5.159230e-01 1.605604e+02 
5.317440e-01 1.534821e+02 
5.489640e-01 1.463708e+02 
5.671990e-01 1.394442e+02 
5.838690e-01 1.336019e+02 
6.018840e-01 1.277607e+02 
6.202330e-01 1.222726e+02 
6.379250e-01 1.173714e+02 
6.545410e-01 1.130961e+02 
6.714560e-01 1.090309e+02 
6.892080e-01 1.050540e+02 
7.066010e-01 1.014226e+02 
7.240540e-01 9.801011e+01 
7.420450e-01 9.472570e+01 
7.593780e-01 9.176145e+01 
7.764720e-01 8.901016e+01 
7.942840e-01 8.631272e+01 
8.116170e-01 8.384264e+01 
8.288310e-01 8.152790e+01 
8.462240e-01 7.931674e+01 
8.631980e-01 7.727165e+01 
8.810700e-01 7.522956e+01 
8.989410e-01 7.329273e+01 
9.166330e-01 7.147235e+01 
9.345640e-01 6.971885e+01 
9.515980e-01 6.813072e+01 
9.688720e-01 6.659147e+01 
9.865640e-01 6.508642e+01 
1.031870e+00 6.151777e+01 
1.063490e+00 5.924497e+01 
1.097920e+00 5.694999e+01 
1.134370e+00 5.469622e+01 
1.167730e+00 5.277707e+01 
1.203830e+00 5.083495e+01 
1.240470e+00 4.899444e+01 
1.275790e+00 4.733062e+01 
1.309140e+00 4.585187e+01 
1.342970e+00 4.442950e+01 
1.378420e+00 4.302202e+01 
1.413200e+00 4.171474e+01 
1.448110e+00 4.046854e+01 
1.484090e+00 3.924977e+01 
1.518820e+00 3.813034e+01 
1.552880e+00 3.708342e+01 
1.588630e+00 3.603416e+01 
1.623230e+00 3.506533e+01 
1.657720e+00 3.414068e+01 
1.692450e+00 3.325015e+01 
1.726400e+00 3.241404e+01 
1.762200e+00 3.156743e+01 
1.797880e+00 3.075894e+01 
1.833270e+00 2.998941e+01 
1.869070e+00 2.924072e+01 
1.903200e+00 2.855431e+01 
1.937740e+00 2.788487e+01 
1.973190e+00 2.722282e+01 
2.007440e+00 2.660621e+01 
2.042160e+00 2.600268e+01 
2.077900e+00 2.540284e+01 
2.112390e+00 2.484413e+01 
2.146220e+00 2.431337e+01 
2.181600e+00 2.377694e+01 
2.216930e+00 2.325862e+01 
2.250760e+00 2.277819e+01 
2.286500e+00 2.228677e+01 
2.321770e+00 2.181718e+01 
2.355950e+00 2.137632e+01 
2.391280e+00 2.093324e+01 
2.426240e+00 2.050817e+01 
2.460670e+00 2.010227e+01 
2.495640e+00 1.970243e+01 
2.531080e+00 1.930826e+01 
2.566220e+00 1.892845e+01 
2.600830e+00 1.856518e+01 
2.635080e+00 1.821600e+01 
2.670340e+00 1.786541e+01 
2.705970e+00 1.752124e+01 
2.740040e+00 1.720131e+01 
2.774520e+00 1.688559e+01 
2.809730e+00 1.657139e+01 
2.844390e+00 1.627047e+01 
2.879960e+00 1.596969e+01 
2.914860e+00 1.568190e+01 
2.949410e+00 1.540449e+01 
2.984440e+00 1.512993e+01 
3.019760e+00 1.485997e+01 
3.054730e+00 1.459963e+01 
3.089030e+00 1.434986e+01 
3.124060e+00 1.410126e+01 
3.159560e+00 1.385547e+01 
3.194710e+00 1.361779e+01 
3.229010e+00 1.339168e+01 
3.263320e+00 1.316979e+01 
3.297930e+00 1.295148e+01 
3.332830e+00 1.273632e+01 
3.368040e+00 1.252426e+01 
3.403300e+00 1.231695e+01 
3.438450e+00 1.211466e+01 
3.473060e+00 1.192032e+01 
3.508440e+00 1.172541e+01 
3.543110e+00 1.153905e+01 
3.577470e+00 1.135806e+01 
3.613040e+00 1.117502e+01 
3.648120e+00 1.099817e+01 
3.682910e+00 1.082668e+01 
3.718050e+00 1.065697e+01 
3.753320e+00 1.049038e+01 
3.787980e+00 1.033004e+01 
3.822290e+00 1.017468e+01 
3.857020e+00 1.002055e+01 
3.891920e+00 9.868908e+00 
3.926650e+00 9.720876e+00 
3.961970e+00 9.573573e+00 
3.997360e+00 9.428888e+00 
4.031670e+00 9.291640e+00 
4.066330e+00 9.155549e+00 
4.101420e+00 9.020775e+00 
4.136200e+00 8.889378e+00 
4.170810e+00 8.761446e+00 
4.206250e+00 8.632901e+00 
4.241580e+00 8.507463e+00 
4.276300e+00 8.386459e+00 
4.310970e+00 8.267963e+00 
4.346120e+00 8.150172e+00 
4.380600e+00 8.036739e+00 
4.414730e+00 7.926727e+00 
4.450350e+00 7.813875e+00 
4.485320e+00 7.705365e+00 
4.519810e+00 7.600214e+00 
4.555430e+00 7.493681e+00 
4.590870e+00 7.389737e+00 
4.625480e+00 7.290034e+00 
4.659910e+00 7.192784e+00 
4.695230e+00 7.094758e+00 
4.729960e+00 7.000219e+00 
4.764450e+00 6.908008e+00 
4.799530e+00 6.815808e+00 
4.834910e+00 6.724611e+00 
4.869700e+00 6.636475e+00 
4.904370e+00 6.550263e+00 
4.939450e+00 6.464620e+00 
4.973940e+00 6.381864e+00 
5.008430e+00 6.300622e+00 
5.043810e+00 6.218686e+00 
5.078840e+00 6.138981e+00 
5.113500e+00 6.061549e+00 
5.148890e+00 5.983761e+00 
5.184210e+00 5.907533e+00 
5.219060e+00 5.833652e+00 
5.253660e+00 5.761549e+00 
5.288570e+00 5.690078e+00 
5.323420e+00 5.619930e+00 
5.358440e+00 5.550614e+00 
5.393590e+00 5.482254e+00 
5.428310e+00 5.415855e+00 
5.462800e+00 5.350996e+00 
5.497640e+00 5.286589e+00 
5.532670e+00 5.222906e+00 
5.567280e+00 5.161039e+00 
5.602000e+00 5.100008e+00 
5.637270e+00 5.039020e+00 
5.672410e+00 4.979266e+00 
5.707020e+00 4.921384e+00 
5.742040e+00 4.863805e+00 
5.777430e+00 4.806581e+00 
5.812210e+00 4.751259e+00 
5.846820e+00 4.697066e+00 
5.881610e+00 4.643454e+00 
5.916510e+00 4.590529e+00 
5.951600e+00 4.538171e+00 
5.986560e+00 4.486838e+00 
6.021830e+00 4.435868e+00 
6.056490e+00 4.386598e+00 
6.091160e+00 4.338104e+00 
6.125830e+00 4.290355e+00 
6.161090e+00 4.242555e+00 
6.195760e+00 4.196305e+00 
6.230420e+00 4.150767e+00 
6.265690e+00 4.105133e+00 
6.300950e+00 4.060263e+00 
6.335620e+00 4.016805e+00 
6.370880e+00 3.973268e+00 
6.405550e+00 3.931142e+00 
6.440220e+00 3.889652e+00 
6.475480e+00 3.848076e+00 
6.510150e+00 3.807818e+00 
6.544810e+00 3.768202e+00 
6.580080e+00 3.728474e+00 
6.614750e+00 3.689985e+00 
6.649410e+00 3.652122e+00 
6.684080e+00 3.614797e+00 
6.719340e+00 3.577376e+00 
6.754010e+00 3.541133e+00 
6.788680e+00 3.505466e+00 
6.823940e+00 3.469700e+00 
6.859800e+00 3.433841e+00 
6.894470e+00 3.399714e+00 
6.929140e+00 3.366074e+00 
6.963800e+00 3.332902e+00 
6.999070e+00 3.299614e+00 
7.033730e+00 3.267445e+00 
7.068400e+00 3.235698e+00 
7.103660e+00 3.203846e+00 
7.138330e+00 3.172977e+00 
7.173600e+00 3.142055e+00 
7.208260e+00 3.112070e+00 
7.243530e+00 3.081962e+00 
7.277600e+00 3.053300e+00 
7.312860e+00 3.024060e+00 
7.348120e+00 2.995204e+00 
7.382790e+00 2.967200e+00 
7.417460e+00 2.939636e+00 
7.452720e+00 2.912005e+00 
7.487390e+00 2.885185e+00 
7.522650e+00 2.858256e+00 
7.557320e+00 2.832187e+00 
7.591990e+00 2.806473e+00 
7.627250e+00 2.780650e+00 
7.662510e+00 2.755152e+00 
7.697180e+00 2.730468e+00 
7.731850e+00 2.706116e+00 
7.766510e+00 2.682069e+00 
7.801180e+00 2.658308e+00 
7.836440e+00 2.634497e+00 
7.871110e+00 2.611405e+00 
7.906380e+00 2.588198e+00 
7.941040e+00 2.565669e+00 
7.976310e+00 2.543060e+00 
8.011570e+00 2.520780e+00 
8.046240e+00 2.499135e+00 
8.080900e+00 2.477750e+00 
8.115570e+00 2.456633e+00 
8.150830e+00 2.435497e+00 
8.185500e+00 2.414958e+00 
8.220770e+00 2.394308e+00 
8.255430e+00 2.374250e+00 
8.290100e+00 2.354504e+00 
8.324770e+00 2.334994e+00 
8.359430e+00 2.315711e+00 
8.394700e+00 2.296313e+00 
8.429960e+00 2.277192e+00 
8.464630e+00 2.258655e+00 
8.499890e+00 2.240014e+00 
8.534560e+00 2.221891e+00 
8.569200e+00 2.203985e+00 
