# Parameters:
# omega_b = 0.021878, omega_m = 0.132402, n_s = 0.883071, h = 85.000000, w = -1.000000, sigma_8 = 0.821260
# z = 1.500000
#
# k[1/Mpc] # P(k):
8.694000e-04 6.467310e+03 
2.077466e-03 1.273811e+04 
3.285532e-03 1.725161e+04 
4.493598e-03 2.047579e+04 
5.701664e-03 2.268490e+04 
6.909730e-03 2.409466e+04 
8.117797e-03 2.490993e+04 
9.325863e-03 2.523683e+04 
1.053393e-02 2.517353e+04 
1.174199e-02 2.480455e+04 
1.295006e-02 2.418461e+04 
1.415813e-02 2.338306e+04 
1.536619e-02 2.245589e+04 
1.657426e-02 2.144002e+04 
1.778233e-02 2.037002e+04 
1.899039e-02 1.929524e+04 
2.019846e-02 1.824096e+04 
2.140652e-02 1.722770e+04 
2.261459e-02 1.626648e+04 
2.382266e-02 1.537011e+04 
2.503072e-02 1.454650e+04 
2.623879e-02 1.379678e+04 
2.744685e-02 1.312031e+04 
2.865492e-02 1.251520e+04 
2.986299e-02 1.197597e+04 
3.100100e-02 1.152548e+04 
3.220400e-02 1.110335e+04 
3.288100e-02 1.088930e+04 
3.424300e-02 1.050110e+04 
3.555100e-02 1.017333e+04 
3.686000e-02 9.881984e+03 
3.795000e-02 9.660926e+03 
3.929100e-02 9.410028e+03 
4.039800e-02 9.213892e+03 
4.164000e-02 9.001236e+03 
4.294400e-02 8.777325e+03 
4.415000e-02 8.570575e+03 
4.542900e-02 8.342360e+03 
4.660900e-02 8.128198e+03 
4.782300e-02 7.894081e+03 
4.892900e-02 7.676043e+03 
5.031200e-02 7.394642e+03 
5.155900e-02 7.133107e+03 
5.238100e-02 6.958566e+03 
5.378200e-02 6.659397e+03 
5.513400e-02 6.368980e+03 
5.627600e-02 6.124060e+03 
5.735300e-02 5.894447e+03 
5.870100e-02 5.609833e+03 
5.988700e-02 5.364227e+03 
6.113500e-02 5.113030e+03 
6.225900e-02 4.896980e+03 
6.340100e-02 4.691215e+03 
6.480200e-02 4.460540e+03 
6.601100e-02 4.285677e+03 
6.725500e-02 4.128858e+03 
6.829100e-02 4.017175e+03 
6.958600e-02 3.895676e+03 
7.071100e-02 3.806583e+03 
7.192300e-02 3.724085e+03 
7.307400e-02 3.656561e+03 
7.412300e-02 3.602460e+03 
7.550400e-02 3.540631e+03 
7.663100e-02 3.495250e+03 
7.791200e-02 3.448369e+03 
7.912700e-02 3.405851e+03 
8.027600e-02 3.365994e+03 
8.138400e-02 3.327084e+03 
8.272200e-02 3.278252e+03 
8.406100e-02 3.226377e+03 
8.534100e-02 3.171910e+03 
8.653800e-02 3.116418e+03 
8.759800e-02 3.064664e+03 
8.900300e-02 2.991796e+03 
9.009000e-02 2.931860e+03 
9.113300e-02 2.871398e+03 
9.239600e-02 2.796740e+03 
9.358000e-02 2.724853e+03 
9.496100e-02 2.639102e+03 
9.608400e-02 2.569795e+03 
9.727500e-02 2.497291e+03 
9.852600e-02 2.421958e+03 
9.973800e-02 2.351685e+03 
1.009000e-01 2.286733e+03 
1.020900e-01 2.224284e+03 
1.034000e-01 2.159467e+03 
1.046000e-01 2.103782e+03 
1.057200e-01 2.057138e+03 
1.069100e-01 2.010543e+03 
1.082500e-01 1.964219e+03 
1.093900e-01 1.929019e+03 
1.105400e-01 1.896210e+03 
1.116900e-01 1.868371e+03 
1.129600e-01 1.839788e+03 
1.142000e-01 1.815917e+03 
1.153300e-01 1.795707e+03 
1.166400e-01 1.774424e+03 
1.177800e-01 1.757075e+03 
1.190000e-01 1.739294e+03 
1.201200e-01 1.722901e+03 
1.213400e-01 1.705390e+03 
1.227100e-01 1.684105e+03 
1.238900e-01 1.665601e+03 
1.250700e-01 1.645389e+03 
1.263200e-01 1.623497e+03 
1.275500e-01 1.600282e+03 
1.287500e-01 1.576990e+03 
1.299900e-01 1.551635e+03 
1.311300e-01 1.527879e+03 
1.323500e-01 1.501563e+03 
1.335900e-01 1.474726e+03 
1.347100e-01 1.450080e+03 
1.359800e-01 1.422447e+03 
1.372100e-01 1.395638e+03 
1.384300e-01 1.369612e+03 
1.395700e-01 1.345645e+03 
1.407700e-01 1.321039e+03 
1.420300e-01 1.296122e+03 
1.432800e-01 1.272016e+03 
1.444500e-01 1.250749e+03 
1.456300e-01 1.229783e+03 
1.468900e-01 1.208794e+03 
1.480500e-01 1.190164e+03 
1.491700e-01 1.173088e+03 
1.503800e-01 1.155708e+03 
1.516400e-01 1.138242e+03 
1.528200e-01 1.123283e+03 
1.540200e-01 1.108373e+03 
1.551900e-01 1.095008e+03 
1.564300e-01 1.081334e+03 
1.576600e-01 1.068407e+03 
1.588700e-01 1.056377e+03 
1.600900e-01 1.044499e+03 
1.612700e-01 1.033624e+03 
1.625400e-01 1.022138e+03 
1.637600e-01 1.011301e+03 
1.649500e-01 1.000916e+03 
1.662200e-01 9.899784e+02 
1.674000e-01 9.796785e+02 
1.685000e-01 9.702385e+02 
1.697500e-01 9.593736e+02 
1.710300e-01 9.481327e+02 
1.722200e-01 9.378711e+02 
1.734400e-01 9.268355e+02 
1.746400e-01 9.161449e+02 
1.758700e-01 9.051744e+02 
1.770900e-01 8.940667e+02 
1.782700e-01 8.835127e+02 
1.794600e-01 8.727920e+02 
1.807000e-01 8.616440e+02 
1.819100e-01 8.509609e+02 
1.830100e-01 8.412556e+02 
1.842200e-01 8.307327e+02 
1.855000e-01 8.198042e+02 
1.867000e-01 8.097915e+02 
1.879200e-01 7.997880e+02 
1.890900e-01 7.903909e+02 
1.902800e-01 7.811647e+02 
1.915200e-01 7.717137e+02 
1.926900e-01 7.630177e+02 
1.939000e-01 7.544077e+02 
1.951700e-01 7.455221e+02 
1.963100e-01 7.377575e+02 
1.975100e-01 7.299312e+02 
1.987800e-01 7.217823e+02 
2.000100e-01 7.140940e+02 
2.012500e-01 7.066417e+02 
2.023400e-01 7.001881e+02 
2.036100e-01 6.928139e+02 
2.048900e-01 6.856281e+02 
2.060400e-01 6.792696e+02 
2.072200e-01 6.728440e+02 
2.084200e-01 6.664635e+02 
2.096900e-01 6.598125e+02 
2.109200e-01 6.534684e+02 
2.121100e-01 6.474034e+02 
2.132700e-01 6.415738e+02 
2.145200e-01 6.353821e+02 
2.157200e-01 6.294893e+02 
2.168800e-01 6.238562e+02 
2.180700e-01 6.181573e+02 
2.193400e-01 6.121400e+02 
2.206000e-01 6.062157e+02 
2.217500e-01 6.008843e+02 
2.229500e-01 5.953967e+02 
2.241400e-01 5.899817e+02 
2.253500e-01 5.845503e+02 
2.264900e-01 5.795019e+02 
2.277100e-01 5.741636e+02 
2.289900e-01 5.686330e+02 
2.301500e-01 5.636898e+02 
2.313600e-01 5.586021e+02 
2.325600e-01 5.536396e+02 
2.337700e-01 5.487025e+02 
2.350000e-01 5.437514e+02 
2.362000e-01 5.390018e+02 
2.374100e-01 5.342950e+02 
2.386500e-01 5.295356e+02 
2.399100e-01 5.247645e+02 
2.410400e-01 5.205877e+02 
2.422500e-01 5.161768e+02 
2.435000e-01 5.116795e+02 
2.447300e-01 5.073225e+02 
2.458700e-01 5.033765e+02 
2.470600e-01 4.993074e+02 
2.483300e-01 4.950200e+02 
2.495600e-01 4.909397e+02 
2.507600e-01 4.870337e+02 
2.519600e-01 4.831754e+02 
2.532200e-01 4.791746e+02 
2.543700e-01 4.755841e+02 
2.555500e-01 4.719543e+02 
2.568000e-01 4.681556e+02 
2.580100e-01 4.645234e+02 
2.592400e-01 4.608859e+02 
2.604100e-01 4.574713e+02 
2.616100e-01 4.540096e+02 
2.628400e-01 4.505033e+02 
2.640600e-01 4.470686e+02 
2.652200e-01 4.438411e+02 
2.664300e-01 4.405127e+02 
2.676500e-01 4.371958e+02 
2.688400e-01 4.339917e+02 
2.700700e-01 4.307142e+02 
2.712400e-01 4.276319e+02 
2.724800e-01 4.244021e+02 
2.736700e-01 4.213348e+02 
2.748800e-01 4.182476e+02 
2.761000e-01 4.151700e+02 
2.773200e-01 4.121271e+02 
2.785400e-01 4.091151e+02 
2.797000e-01 4.062755e+02 
2.808900e-01 4.033937e+02 
2.821400e-01 4.004003e+02 
2.833900e-01 3.974403e+02 
2.845500e-01 3.947145e+02 
2.857800e-01 3.918552e+02 
2.870300e-01 3.889817e+02 
2.882100e-01 3.862985e+02 
2.893900e-01 3.836411e+02 
2.906300e-01 3.808773e+02 
2.918900e-01 3.780998e+02 
2.930500e-01 3.755700e+02 
2.942500e-01 3.729795e+02 
2.954200e-01 3.704785e+02 
2.966500e-01 3.678766e+02 
2.978900e-01 3.652817e+02 
2.990400e-01 3.628998e+02 
3.002700e-01 3.603790e+02 
3.015100e-01 3.578648e+02 
3.026800e-01 3.555169e+02 
3.038500e-01 3.531923e+02 
3.050300e-01 3.508712e+02 
3.062600e-01 3.484791e+02 
3.075000e-01 3.460925e+02 
3.087000e-01 3.438065e+02 
3.099100e-01 3.415245e+02 
3.111200e-01 3.392680e+02 
3.123100e-01 3.370752e+02 
3.135300e-01 3.348494e+02 
3.147300e-01 3.326819e+02 
3.159900e-01 3.304288e+02 
3.171800e-01 3.283263e+02 
3.183700e-01 3.262469e+02 
3.196300e-01 3.240670e+02 
3.208400e-01 3.219943e+02 
3.220300e-01 3.199755e+02 
3.232000e-01 3.180154e+02 
3.244300e-01 3.159768e+02 
3.256700e-01 3.139417e+02 
3.269200e-01 3.119104e+02 
3.280800e-01 3.100431e+02 
3.292500e-01 3.081843e+02 
3.304800e-01 3.062507e+02 
3.317100e-01 3.043356e+02 
3.328900e-01 3.025154e+02 
3.340700e-01 3.007118e+02 
3.353600e-01 2.987663e+02 
3.365300e-01 2.970213e+02 
3.377100e-01 2.952771e+02 
3.389200e-01 2.935048e+02 
3.401600e-01 2.917053e+02 
3.413700e-01 2.899717e+02 
3.425300e-01 2.883287e+02 
3.437700e-01 2.865882e+02 
3.449800e-01 2.849052e+02 
3.461800e-01 2.832511e+02 
3.473600e-01 2.816417e+02 
3.485800e-01 2.799993e+02 
3.498100e-01 2.783583e+02 
3.510200e-01 2.767584e+02 
3.522000e-01 2.752118e+02 
3.533900e-01 2.736654e+02 
3.546400e-01 2.720632e+02 
3.558400e-01 2.705392e+02 
3.570600e-01 2.690032e+02 
3.582700e-01 2.674930e+02 
3.595000e-01 2.659712e+02 
3.607100e-01 2.644913e+02 
3.618900e-01 2.630636e+02 
3.631200e-01 2.615881e+02 
3.643200e-01 2.601609e+02 
3.655500e-01 2.587104e+02 
3.667300e-01 2.573306e+02 
3.679500e-01 2.559238e+02 
3.691900e-01 2.545061e+02 
3.703600e-01 2.531795e+02 
3.715700e-01 2.518188e+02 
3.727700e-01 2.504805e+02 
3.739900e-01 2.491334e+02 
3.752000e-01 2.478124e+02 
3.763900e-01 2.465238e+02 
3.775800e-01 2.452456e+02 
3.788200e-01 2.439246e+02 
3.800300e-01 2.426462e+02 
3.812100e-01 2.414125e+02 
3.824200e-01 2.401597e+02 
3.836100e-01 2.389373e+02 
3.848600e-01 2.376638e+02 
3.860400e-01 2.364713e+02 
3.872400e-01 2.352680e+02 
3.884600e-01 2.340584e+02 
3.896500e-01 2.328894e+02 
3.908700e-01 2.317003e+02 
3.920600e-01 2.305496e+02 
3.933100e-01 2.293504e+02 
3.945300e-01 2.281894e+02 
3.957200e-01 2.270693e+02 
3.969300e-01 2.259402e+02 
3.981700e-01 2.247922e+02 
3.993500e-01 2.237082e+02 
4.094840e-01 2.147493e+02 
4.272360e-01 2.004532e+02 
4.454600e-01 1.873821e+02 
4.630560e-01 1.760870e+02 
4.804610e-01 1.660314e+02 
4.980690e-01 1.568446e+02 
5.159230e-01 1.484123e+02 
5.317440e-01 1.415940e+02 
5.489640e-01 1.347942e+02 
5.671990e-01 1.282191e+02 
5.838690e-01 1.227032e+02 
6.018840e-01 1.172156e+02 
6.202330e-01 1.120838e+02 
6.379250e-01 1.075126e+02 
6.545410e-01 1.035365e+02 
6.714560e-01 9.976054e+01 
6.892080e-01 9.607087e+01 
7.066010e-01 9.270398e+01 
7.240540e-01 8.954134e+01 
7.420450e-01 8.649718e+01 
7.593780e-01 8.374941e+01 
7.764720e-01 8.119864e+01 
7.942840e-01 7.869727e+01 
8.116170e-01 7.640569e+01 
8.288310e-01 7.425784e+01 
8.462240e-01 7.220544e+01 
8.631980e-01 7.030719e+01 
8.810700e-01 6.841157e+01 
8.989410e-01 6.661387e+01 
9.166330e-01 6.492437e+01 
9.345640e-01 6.329739e+01 
9.515980e-01 6.182444e+01 
9.688720e-01 6.039751e+01 
9.865640e-01 5.900308e+01 
1.031870e+00 5.570070e+01 
1.063490e+00 5.360162e+01 
1.097920e+00 5.148577e+01 
1.134370e+00 4.941218e+01 
1.167730e+00 4.765029e+01 
1.203830e+00 4.587204e+01 
1.240470e+00 4.419031e+01 
1.275790e+00 4.267426e+01 
1.309140e+00 4.132933e+01 
1.342970e+00 4.003941e+01 
1.378420e+00 3.876523e+01 
1.413200e+00 3.758456e+01 
1.448110e+00 3.646143e+01 
1.484090e+00 3.536495e+01 
1.518820e+00 3.435986e+01 
1.552880e+00 3.342174e+01 
1.588630e+00 3.248297e+01 
1.623230e+00 3.161743e+01 
1.657720e+00 3.079254e+01 
1.692450e+00 2.999918e+01 
1.726400e+00 2.925537e+01 
1.762200e+00 2.850310e+01 
1.797880e+00 2.778550e+01 
1.833270e+00 2.710314e+01 
1.869070e+00 2.643988e+01 
1.903200e+00 2.583230e+01 
1.937740e+00 2.524023e+01 
1.973190e+00 2.465504e+01 
2.007440e+00 2.411033e+01 
2.042160e+00 2.357749e+01 
2.077900e+00 2.304816e+01 
2.112390e+00 2.255535e+01 
2.146220e+00 2.208738e+01 
2.181600e+00 2.161460e+01 
2.216930e+00 2.115786e+01 
2.250760e+00 2.073458e+01 
2.286500e+00 2.030168e+01 
2.321770e+00 1.988807e+01 
2.355950e+00 1.949980e+01 
2.391280e+00 1.910961e+01 
2.426240e+00 1.873525e+01 
2.460670e+00 1.837773e+01 
2.495640e+00 1.802549e+01 
2.531080e+00 1.767826e+01 
2.566220e+00 1.734359e+01 
2.600830e+00 1.702344e+01 
2.635080e+00 1.671564e+01 
2.670340e+00 1.640650e+01 
2.705970e+00 1.610291e+01 
2.740040e+00 1.582061e+01 
2.774520e+00 1.554195e+01 
2.809730e+00 1.526452e+01 
2.844390e+00 1.499872e+01 
2.879960e+00 1.473290e+01 
2.914860e+00 1.447842e+01 
2.949410e+00 1.423302e+01 
2.984440e+00 1.399002e+01 
3.019760e+00 1.375098e+01 
3.054730e+00 1.352037e+01 
3.089030e+00 1.329892e+01 
3.124060e+00 1.307839e+01 
3.159560e+00 1.286023e+01 
3.194710e+00 1.264912e+01 
3.229010e+00 1.244821e+01 
3.263320e+00 1.225085e+01 
3.297930e+00 1.205657e+01 
3.332830e+00 1.186497e+01 
3.368040e+00 1.167598e+01 
3.403300e+00 1.149110e+01 
3.438450e+00 1.131055e+01 
3.473060e+00 1.113704e+01 
3.508440e+00 1.096278e+01 
3.543110e+00 1.079610e+01 
3.577470e+00 1.063402e+01 
3.613040e+00 1.047005e+01 
3.648120e+00 1.031146e+01 
3.682910e+00 1.015758e+01 
3.718050e+00 1.000515e+01 
3.753320e+00 9.855413e+00 
3.787980e+00 9.711171e+00 
3.822290e+00 9.571302e+00 
3.857020e+00 9.432397e+00 
3.891920e+00 9.295647e+00 
3.926650e+00 9.162020e+00 
3.961970e+00 9.028963e+00 
3.997360e+00 8.898118e+00 
4.031670e+00 8.773935e+00 
4.066330e+00 8.650645e+00 
4.101420e+00 8.528508e+00 
4.136200e+00 8.409242e+00 
4.170810e+00 8.293088e+00 
4.206250e+00 8.176219e+00 
4.241580e+00 8.062121e+00 
4.276300e+00 7.951929e+00 
4.310970e+00 7.843938e+00 
4.346120e+00 7.736509e+00 
4.380600e+00 7.632942e+00 
4.414730e+00 7.532467e+00 
4.450350e+00 7.429222e+00 
4.485320e+00 7.329923e+00 
4.519810e+00 7.233568e+00 
4.555430e+00 7.135875e+00 
4.590870e+00 7.040495e+00 
4.625480e+00 6.948907e+00 
4.659910e+00 6.859550e+00 
4.695230e+00 6.769327e+00 
4.729960e+00 6.682272e+00 
4.764450e+00 6.597294e+00 
4.799530e+00 6.512229e+00 
4.834910e+00 6.428069e+00 
4.869700e+00 6.346606e+00 
4.904370e+00 6.266885e+00 
4.939450e+00 6.187639e+00 
4.973940e+00 6.110962e+00 
5.008430e+00 6.035671e+00 
5.043810e+00 5.959649e+00 
5.078840e+00 5.885640e+00 
5.113500e+00 5.813726e+00 
5.148890e+00 5.741352e+00 
5.184210e+00 5.670408e+00 
5.219060e+00 5.601609e+00 
5.253660e+00 5.534378e+00 
5.288570e+00 5.467723e+00 
5.323420e+00 5.402240e+00 
5.358440e+00 5.337468e+00 
5.393590e+00 5.273576e+00 
5.428310e+00 5.211440e+00 
5.462800e+00 5.150699e+00 
5.497640e+00 5.090370e+00 
5.532670e+00 5.030641e+00 
5.567280e+00 4.972581e+00 
5.602000e+00 4.915296e+00 
5.637270e+00 4.857974e+00 
5.672410e+00 4.801787e+00 
5.707020e+00 4.747350e+00 
5.742040e+00 4.693118e+00 
5.777430e+00 4.639197e+00 
5.812210e+00 4.587061e+00 
5.846820e+00 4.535921e+00 
5.881610e+00 4.485305e+00 
5.916510e+00 4.435331e+00 
5.951600e+00 4.385831e+00 
5.986560e+00 4.337268e+00 
6.021830e+00 4.289042e+00 
6.056490e+00 4.242384e+00 
6.091160e+00 4.196425e+00 
6.125830e+00 4.151165e+00 
6.161090e+00 4.105831e+00 
6.195760e+00 4.061916e+00 
6.230420e+00 4.018672e+00 
6.265690e+00 3.975329e+00 
6.300950e+00 3.932651e+00 
6.335620e+00 3.891312e+00 
6.370880e+00 3.849892e+00 
6.405550e+00 3.809769e+00 
6.440220e+00 3.770230e+00 
6.475480e+00 3.730607e+00 
6.510150e+00 3.692217e+00 
6.544810e+00 3.654401e+00 
6.580080e+00 3.616474e+00 
6.614750e+00 3.579725e+00 
6.649410e+00 3.543533e+00 
6.684080e+00 3.507845e+00 
6.719340e+00 3.472062e+00 
6.754010e+00 3.437387e+00 
6.788680e+00 3.403228e+00 
6.823940e+00 3.368972e+00 
6.859800e+00 3.334623e+00 
6.894470e+00 3.301902e+00 
6.929140e+00 3.269636e+00 
6.963800e+00 3.237816e+00 
6.999070e+00 3.205880e+00 
7.033730e+00 3.174981e+00 
7.068400e+00 3.144485e+00 
7.103660e+00 3.113886e+00 
7.138330e+00 3.084217e+00 
7.173600e+00 3.054470e+00 
7.208260e+00 3.025624e+00 
7.243530e+00 2.996656e+00 
7.277600e+00 2.969064e+00 
7.312860e+00 2.940900e+00 
7.348120e+00 2.913104e+00 
7.382790e+00 2.886128e+00 
7.417460e+00 2.859553e+00 
7.452720e+00 2.832903e+00 
7.487390e+00 2.807033e+00 
7.522650e+00 2.781056e+00 
7.557320e+00 2.755891e+00 
7.591990e+00 2.731059e+00 
7.627250e+00 2.706121e+00 
7.662510e+00 2.681496e+00 
7.697180e+00 2.657640e+00 
7.731850e+00 2.634096e+00 
7.766510e+00 2.610847e+00 
7.801180e+00 2.587874e+00 
7.836440e+00 2.564838e+00 
7.871110e+00 2.542490e+00 
7.906380e+00 2.520029e+00 
7.941040e+00 2.498224e+00 
7.976310e+00 2.476332e+00 
8.011570e+00 2.454748e+00 
8.046240e+00 2.433777e+00 
8.080900e+00 2.413058e+00 
8.115570e+00 2.392595e+00 
8.150830e+00 2.372100e+00 
8.185500e+00 2.352183e+00 
8.220770e+00 2.332157e+00 
8.255430e+00 2.312706e+00 
8.290100e+00 2.293541e+00 
8.324770e+00 2.274604e+00 
8.359430e+00 2.255887e+00 
8.394700e+00 2.237057e+00 
8.429960e+00 2.218491e+00 
8.464630e+00 2.200485e+00 
8.499890e+00 2.182379e+00 
8.534560e+00 2.164775e+00 
8.569200e+00 2.147381e+00 
