# Parameters:
# omega_b = 0.022445, omega_m = 0.145354, n_s = 1.002756, h = 55.236220, w = -1.000000, sigma_8 = 0.882677
# z = 1.500000
#
# k[1/Mpc] # P(k):
8.694000e-04 3.983561e+03 
2.077466e-03 8.795971e+03 
3.285532e-03 1.271375e+04 
4.493598e-03 1.584781e+04 
5.701664e-03 1.827050e+04 
6.909730e-03 2.007308e+04 
8.117797e-03 2.137487e+04 
9.325863e-03 2.223654e+04 
1.053393e-02 2.272287e+04 
1.174199e-02 2.289624e+04 
1.295006e-02 2.279541e+04 
1.415813e-02 2.247665e+04 
1.536619e-02 2.199119e+04 
1.657426e-02 2.137401e+04 
1.778233e-02 2.065584e+04 
1.899039e-02 1.988375e+04 
2.019846e-02 1.908413e+04 
2.140652e-02 1.828092e+04 
2.261459e-02 1.748728e+04 
2.382266e-02 1.671995e+04 
2.503072e-02 1.599223e+04 
2.623879e-02 1.531025e+04 
2.744685e-02 1.467621e+04 
2.865492e-02 1.409516e+04 
2.986299e-02 1.356626e+04 
3.100100e-02 1.311559e+04 
3.220400e-02 1.268686e+04 
3.288100e-02 1.246717e+04 
3.424300e-02 1.206655e+04 
3.555100e-02 1.172790e+04 
3.686000e-02 1.142877e+04 
3.795000e-02 1.120451e+04 
3.929100e-02 1.095560e+04 
4.039800e-02 1.076604e+04 
4.164000e-02 1.056502e+04 
4.294400e-02 1.035982e+04 
4.415000e-02 1.017320e+04 
4.542900e-02 9.969745e+03 
4.660900e-02 9.779059e+03 
4.782300e-02 9.568767e+03 
4.892900e-02 9.370643e+03 
5.031200e-02 9.110468e+03 
5.155900e-02 8.862546e+03 
5.238100e-02 8.694081e+03 
5.378200e-02 8.400853e+03 
5.513400e-02 8.112816e+03 
5.627600e-02 7.870463e+03 
5.735300e-02 7.647244e+03 
5.870100e-02 7.380177e+03 
5.988700e-02 7.160360e+03 
6.113500e-02 6.944820e+03 
6.225900e-02 6.763999e+03 
6.340100e-02 6.590632e+03 
6.480200e-02 6.388486e+03 
6.601100e-02 6.220938e+03 
6.725500e-02 6.053781e+03 
6.829100e-02 5.919084e+03 
6.958600e-02 5.757482e+03 
7.071100e-02 5.624709e+03 
7.192300e-02 5.490466e+03 
7.307400e-02 5.371938e+03 
7.412300e-02 5.271631e+03 
7.550400e-02 5.151442e+03 
7.663100e-02 5.061474e+03 
7.791200e-02 4.969243e+03 
7.912700e-02 4.889669e+03 
8.027600e-02 4.819822e+03 
8.138400e-02 4.756412e+03 
8.272200e-02 4.684010e+03 
8.406100e-02 4.614590e+03 
8.534100e-02 4.549392e+03 
8.653800e-02 4.488003e+03 
8.759800e-02 4.433107e+03 
8.900300e-02 4.358662e+03 
9.009000e-02 4.298916e+03 
9.113300e-02 4.239024e+03 
9.239600e-02 4.164906e+03 
9.358000e-02 4.092847e+03 
9.496100e-02 4.004847e+03 
9.608400e-02 3.932053e+03 
9.727500e-02 3.854409e+03 
9.852600e-02 3.769727e+03 
9.973800e-02 3.688370e+03 
1.009000e-01 3.611179e+03 
1.020900e-01 3.531920e+03 
1.034000e-01 3.446834e+03 
1.046000e-01 3.370786e+03 
1.057200e-01 3.301973e+03 
1.069100e-01 3.231199e+03 
1.082500e-01 3.154977e+03 
1.093900e-01 3.093299e+03 
1.105400e-01 3.033489e+03 
1.116900e-01 2.977629e+03 
1.129600e-01 2.918594e+03 
1.142000e-01 2.865250e+03 
1.153300e-01 2.819219e+03 
1.166400e-01 2.769279e+03 
1.177800e-01 2.729089e+03 
1.190000e-01 2.688137e+03 
1.201200e-01 2.653796e+03 
1.213400e-01 2.617697e+03 
1.227100e-01 2.580967e+03 
1.238900e-01 2.550538e+03 
1.250700e-01 2.522063e+03 
1.263200e-01 2.492851e+03 
1.275500e-01 2.465332e+03 
1.287500e-01 2.439018e+03 
1.299900e-01 2.412314e+03 
1.311300e-01 2.387812e+03 
1.323500e-01 2.361410e+03 
1.335900e-01 2.334315e+03 
1.347100e-01 2.309224e+03 
1.359800e-01 2.280503e+03 
1.372100e-01 2.251541e+03 
1.384300e-01 2.222674e+03 
1.395700e-01 2.194431e+03 
1.407700e-01 2.165104e+03 
1.420300e-01 2.132744e+03 
1.432800e-01 2.101363e+03 
1.444500e-01 2.070958e+03 
1.456300e-01 2.040941e+03 
1.468900e-01 2.009012e+03 
1.480500e-01 1.980081e+03 
1.491700e-01 1.952751e+03 
1.503800e-01 1.923880e+03 
1.516400e-01 1.894624e+03 
1.528200e-01 1.868498e+03 
1.540200e-01 1.842467e+03 
1.551900e-01 1.818598e+03 
1.564300e-01 1.794049e+03 
1.576600e-01 1.770813e+03 
1.588700e-01 1.749152e+03 
1.600900e-01 1.727797e+03 
1.612700e-01 1.708705e+03 
1.625400e-01 1.688544e+03 
1.637600e-01 1.670074e+03 
1.649500e-01 1.652693e+03 
1.662200e-01 1.634547e+03 
1.674000e-01 1.618347e+03 
1.685000e-01 1.603498e+03 
1.697500e-01 1.586903e+03 
1.710300e-01 1.570210e+03 
1.722200e-01 1.554966e+03 
1.734400e-01 1.539309e+03 
1.746400e-01 1.524160e+03 
1.758700e-01 1.508735e+03 
1.770900e-01 1.493369e+03 
1.782700e-01 1.478755e+03 
1.794600e-01 1.463963e+03 
1.807000e-01 1.448607e+03 
1.819100e-01 1.433877e+03 
1.830100e-01 1.420349e+03 
1.842200e-01 1.405645e+03 
1.855000e-01 1.390343e+03 
1.867000e-01 1.375994e+03 
1.879200e-01 1.361643e+03 
1.890900e-01 1.348083e+03 
1.902800e-01 1.334415e+03 
1.915200e-01 1.320402e+03 
1.926900e-01 1.307403e+03 
1.939000e-01 1.294211e+03 
1.951700e-01 1.280588e+03 
1.963100e-01 1.268591e+03 
1.975100e-01 1.256261e+03 
1.987800e-01 1.243417e+03 
2.000100e-01 1.231236e+03 
2.012500e-01 1.219286e+03 
2.023400e-01 1.208935e+03 
2.036100e-01 1.197092e+03 
2.048900e-01 1.185506e+03 
2.060400e-01 1.175251e+03 
2.072200e-01 1.164889e+03 
2.084200e-01 1.154653e+03 
2.096900e-01 1.143979e+03 
2.109200e-01 1.133795e+03 
2.121100e-01 1.124162e+03 
2.132700e-01 1.114906e+03 
2.145200e-01 1.105071e+03 
2.157200e-01 1.095777e+03 
2.168800e-01 1.086921e+03 
2.180700e-01 1.077959e+03 
2.193400e-01 1.068503e+03 
2.206000e-01 1.059211e+03 
2.217500e-01 1.050846e+03 
2.229500e-01 1.042232e+03 
2.241400e-01 1.033681e+03 
2.253500e-01 1.025099e+03 
2.264900e-01 1.017119e+03 
2.277100e-01 1.008607e+03 
2.289900e-01 9.997060e+02 
2.301500e-01 9.917476e+02 
2.313600e-01 9.835522e+02 
2.325600e-01 9.753500e+02 
2.337700e-01 9.671877e+02 
2.350000e-01 9.590001e+02 
2.362000e-01 9.510390e+02 
2.374100e-01 9.430239e+02 
2.386500e-01 9.349178e+02 
2.399100e-01 9.267909e+02 
2.410400e-01 9.194947e+02 
2.422500e-01 9.117664e+02 
2.435000e-01 9.038864e+02 
2.447300e-01 8.962233e+02 
2.458700e-01 8.891686e+02 
2.470600e-01 8.818941e+02 
2.483300e-01 8.742296e+02 
2.495600e-01 8.669070e+02 
2.507600e-01 8.598582e+02 
2.519600e-01 8.528960e+02 
2.532200e-01 8.456774e+02 
2.543700e-01 8.392115e+02 
2.555500e-01 8.326835e+02 
2.568000e-01 8.258524e+02 
2.580100e-01 8.193210e+02 
2.592400e-01 8.128446e+02 
2.604100e-01 8.067930e+02 
2.616100e-01 8.006582e+02 
2.628400e-01 7.944446e+02 
2.640600e-01 7.884531e+02 
2.652200e-01 7.828604e+02 
2.664300e-01 7.770926e+02 
2.676500e-01 7.713444e+02 
2.688400e-01 7.658795e+02 
2.700700e-01 7.603438e+02 
2.712400e-01 7.551371e+02 
2.724800e-01 7.496806e+02 
2.736700e-01 7.445607e+02 
2.748800e-01 7.394716e+02 
2.761000e-01 7.343973e+02 
2.773200e-01 7.293791e+02 
2.785400e-01 7.244425e+02 
2.797000e-01 7.198539e+02 
2.808900e-01 7.151959e+02 
2.821400e-01 7.103561e+02 
2.833900e-01 7.055722e+02 
2.845500e-01 7.012320e+02 
2.857800e-01 6.966781e+02 
2.870300e-01 6.921001e+02 
2.882100e-01 6.878240e+02 
2.893900e-01 6.836152e+02 
2.906300e-01 6.792511e+02 
2.918900e-01 6.748640e+02 
2.930500e-01 6.708667e+02 
2.942500e-01 6.667769e+02 
2.954200e-01 6.628417e+02 
2.966500e-01 6.587465e+02 
2.978900e-01 6.546606e+02 
2.990400e-01 6.509091e+02 
3.002700e-01 6.469393e+02 
3.015100e-01 6.429797e+02 
3.026800e-01 6.392806e+02 
3.038500e-01 6.356171e+02 
3.050300e-01 6.319578e+02 
3.062600e-01 6.281802e+02 
3.075000e-01 6.244100e+02 
3.087000e-01 6.207974e+02 
3.099100e-01 6.171900e+02 
3.111200e-01 6.136174e+02 
3.123100e-01 6.101371e+02 
3.135300e-01 6.066032e+02 
3.147300e-01 6.031606e+02 
3.159900e-01 5.995809e+02 
3.171800e-01 5.962306e+02 
3.183700e-01 5.929101e+02 
3.196300e-01 5.894280e+02 
3.208400e-01 5.861161e+02 
3.220300e-01 5.828892e+02 
3.232000e-01 5.797460e+02 
3.244300e-01 5.764722e+02 
3.256700e-01 5.732030e+02 
3.269200e-01 5.699388e+02 
3.280800e-01 5.669373e+02 
3.292500e-01 5.639407e+02 
3.304800e-01 5.608203e+02 
3.317100e-01 5.577287e+02 
3.328900e-01 5.547895e+02 
3.340700e-01 5.518763e+02 
3.353600e-01 5.487266e+02 
3.365300e-01 5.458981e+02 
3.377100e-01 5.430702e+02 
3.389200e-01 5.401959e+02 
3.401600e-01 5.372768e+02 
3.413700e-01 5.344612e+02 
3.425300e-01 5.317904e+02 
3.437700e-01 5.289603e+02 
3.449800e-01 5.262230e+02 
3.461800e-01 5.235319e+02 
3.473600e-01 5.209130e+02 
3.485800e-01 5.182401e+02 
3.498100e-01 5.155687e+02 
3.510200e-01 5.129635e+02 
3.522000e-01 5.104444e+02 
3.533900e-01 5.079251e+02 
3.546400e-01 5.053172e+02 
3.558400e-01 5.028360e+02 
3.570600e-01 5.003346e+02 
3.582700e-01 4.978746e+02 
3.595000e-01 4.953951e+02 
3.607100e-01 4.929875e+02 
3.618900e-01 4.906675e+02 
3.631200e-01 4.882692e+02 
3.643200e-01 4.859487e+02 
3.655500e-01 4.835898e+02 
3.667300e-01 4.813452e+02 
3.679500e-01 4.790648e+02 
3.691900e-01 4.767662e+02 
3.703600e-01 4.746149e+02 
3.715700e-01 4.724076e+02 
3.727700e-01 4.702361e+02 
3.739900e-01 4.680537e+02 
3.752000e-01 4.659204e+02 
3.763900e-01 4.638390e+02 
3.775800e-01 4.617737e+02 
3.788200e-01 4.596387e+02 
3.800300e-01 4.575720e+02 
3.812100e-01 4.555839e+02 
3.824200e-01 4.535688e+02 
3.836100e-01 4.516023e+02 
3.848600e-01 4.495528e+02 
3.860400e-01 4.476332e+02 
3.872400e-01 4.456958e+02 
3.884600e-01 4.437556e+02 
3.896500e-01 4.418829e+02 
3.908700e-01 4.399776e+02 
3.920600e-01 4.381332e+02 
3.933100e-01 4.362107e+02 
3.945300e-01 4.343488e+02 
3.957200e-01 4.325628e+02 
3.969300e-01 4.307650e+02 
3.981700e-01 4.289366e+02 
3.993500e-01 4.272097e+02 
4.094840e-01 4.129440e+02 
4.272360e-01 3.903319e+02 
4.454600e-01 3.696505e+02 
4.630560e-01 3.516812e+02 
4.804610e-01 3.355159e+02 
4.980690e-01 3.205469e+02 
5.159230e-01 3.065754e+02 
5.317440e-01 2.951135e+02 
5.489640e-01 2.834885e+02 
5.671990e-01 2.720644e+02 
5.838690e-01 2.623666e+02 
6.018840e-01 2.526142e+02 
6.202330e-01 2.433864e+02 
6.379250e-01 2.351084e+02 
6.545410e-01 2.278525e+02 
6.714560e-01 2.209347e+02 
6.892080e-01 2.141442e+02 
7.066010e-01 2.079324e+02 
7.240540e-01 2.020699e+02 
7.420450e-01 1.964214e+02 
7.593780e-01 1.913066e+02 
7.764720e-01 1.865502e+02 
7.942840e-01 1.818690e+02 
8.116170e-01 1.775767e+02 
8.288310e-01 1.735356e+02 
8.462240e-01 1.696700e+02 
8.631980e-01 1.660776e+02 
8.810700e-01 1.624753e+02 
8.989410e-01 1.590382e+02 
9.166330e-01 1.557953e+02 
9.345640e-01 1.526625e+02 
9.515980e-01 1.498045e+02 
9.688720e-01 1.470168e+02 
9.865640e-01 1.442758e+02 
1.031870e+00 1.377010e+02 
1.063490e+00 1.334516e+02 
1.097920e+00 1.291086e+02 
1.134370e+00 1.247814e+02 
1.167730e+00 1.210473e+02 
1.203830e+00 1.172027e+02 
1.240470e+00 1.135144e+02 
1.275790e+00 1.101317e+02 
1.309140e+00 1.070901e+02 
1.342970e+00 1.041141e+02 
1.378420e+00 1.011431e+02 
1.413200e+00 9.834717e+01 
1.448110e+00 9.565394e+01 
1.484090e+00 9.298999e+01 
1.518820e+00 9.051714e+01 
1.552880e+00 8.818151e+01 
1.588630e+00 8.582023e+01 
1.623230e+00 8.362171e+01 
1.657720e+00 8.150333e+01 
1.692450e+00 7.945072e+01 
1.726400e+00 7.750902e+01 
1.762200e+00 7.552855e+01 
1.797880e+00 7.362238e+01 
1.833270e+00 7.180013e+01 
1.869070e+00 7.001522e+01 
1.903200e+00 6.836885e+01 
1.937740e+00 6.675731e+01 
1.973190e+00 6.515695e+01 
2.007440e+00 6.366101e+01 
2.042160e+00 6.218811e+01 
2.077900e+00 6.071863e+01 
2.112390e+00 5.934709e+01 
2.146220e+00 5.803906e+01 
2.181600e+00 5.671247e+01 
2.216930e+00 5.542667e+01 
2.250760e+00 5.423276e+01 
2.286500e+00 5.300925e+01 
2.321770e+00 5.183738e+01 
2.355950e+00 5.073606e+01 
2.391280e+00 4.962424e+01 
2.426240e+00 4.855668e+01 
2.460670e+00 4.753680e+01 
2.495640e+00 4.653169e+01 
2.531080e+00 4.553839e+01 
2.566220e+00 4.457975e+01 
2.600830e+00 4.366237e+01 
2.635080e+00 4.278051e+01 
2.670340e+00 4.189497e+01 
2.705970e+00 4.102491e+01 
2.740040e+00 4.021577e+01 
2.774520e+00 3.941720e+01 
2.809730e+00 3.862171e+01 
2.844390e+00 3.786014e+01 
2.879960e+00 3.710021e+01 
2.914860e+00 3.637257e+01 
2.949410e+00 3.567123e+01 
2.984440e+00 3.497734e+01 
3.019760e+00 3.429474e+01 
3.054730e+00 3.363654e+01 
3.089030e+00 3.300664e+01 
3.124060e+00 3.238017e+01 
3.159560e+00 3.176129e+01 
3.194710e+00 3.116319e+01 
3.229010e+00 3.059466e+01 
3.263320e+00 3.003739e+01 
3.297930e+00 2.948951e+01 
3.332830e+00 2.894998e+01 
3.368040e+00 2.841928e+01 
3.403300e+00 2.790136e+01 
3.438450e+00 2.739640e+01 
3.473060e+00 2.691170e+01 
3.508440e+00 2.642626e+01 
3.543110e+00 2.596275e+01 
3.577470e+00 2.551435e+01 
3.613040e+00 2.506112e+01 
3.648120e+00 2.462313e+01 
3.682910e+00 2.419932e+01 
3.718050e+00 2.378129e+01 
3.753320e+00 2.337134e+01 
3.787980e+00 2.297718e+01 
3.822290e+00 2.259591e+01 
3.857020e+00 2.221850e+01 
3.891920e+00 2.184774e+01 
3.926650e+00 2.148656e+01 
3.961970e+00 2.112784e+01 
3.997360e+00 2.077670e+01 
4.031670e+00 2.044392e+01 
4.066330e+00 2.011434e+01 
4.101420e+00 1.978826e+01 
4.136200e+00 1.947173e+01 
4.170810e+00 1.916380e+01 
4.206250e+00 1.885516e+01 
4.241580e+00 1.855433e+01 
4.276300e+00 1.826501e+01 
4.310970e+00 1.798228e+01 
4.346120e+00 1.770165e+01 
4.380600e+00 1.743193e+01 
4.414730e+00 1.717058e+01 
4.450350e+00 1.690361e+01 
4.485320e+00 1.664710e+01 
4.519810e+00 1.639934e+01 
4.555430e+00 1.614879e+01 
4.590870e+00 1.590463e+01 
4.625480e+00 1.567086e+01 
4.659910e+00 1.544300e+01 
4.695230e+00 1.521449e+01 
4.729960e+00 1.499441e+01 
4.764450e+00 1.478015e+01 
4.799530e+00 1.456650e+01 
4.834910e+00 1.435532e+01 
4.869700e+00 1.415194e+01 
4.904370e+00 1.395321e+01 
4.939450e+00 1.375610e+01 
4.973940e+00 1.356619e+01 
5.008430e+00 1.337986e+01 
5.043810e+00 1.319244e+01 
5.078840e+00 1.301044e+01 
5.113500e+00 1.283374e+01 
5.148890e+00 1.265711e+01 
5.184210e+00 1.248416e+01 
5.219060e+00 1.231676e+01 
5.253660e+00 1.215383e+01 
5.288570e+00 1.199243e+01 
5.323420e+00 1.183432e+01 
5.358440e+00 1.167842e+01 
5.393590e+00 1.152475e+01 
5.428310e+00 1.137599e+01 
5.462800e+00 1.123099e+01 
5.497640e+00 1.108706e+01 
5.532670e+00 1.094528e+01 
5.567280e+00 1.080775e+01 
5.602000e+00 1.067215e+01 
5.637270e+00 1.053699e+01 
5.672410e+00 1.040470e+01 
5.707020e+00 1.027661e+01 
5.742040e+00 1.014968e+01 
5.777430e+00 1.002369e+01 
5.812210e+00 9.901925e+00 
5.846820e+00 9.782950e+00 
5.881610e+00 9.665361e+00 
5.916510e+00 9.549323e+00 
5.951600e+00 9.434899e+00 
5.986560e+00 9.322900e+00 
6.021830e+00 9.211732e+00 
6.056490e+00 9.104534e+00 
6.091160e+00 8.999247e+00 
6.125830e+00 8.895610e+00 
6.161090e+00 8.791977e+00 
6.195760e+00 8.691909e+00 
6.230420e+00 8.593411e+00 
6.265690e+00 8.494749e+00 
6.300950e+00 8.398119e+00 
6.335620e+00 8.304559e+00 
6.370880e+00 8.210853e+00 
6.405550e+00 8.120360e+00 
6.440220e+00 8.031320e+00 
6.475480e+00 7.942119e+00 
6.510150e+00 7.855864e+00 
6.544810e+00 7.771230e+00 
6.580080e+00 7.686374e+00 
6.614750e+00 7.604184e+00 
6.649410e+00 7.523494e+00 
6.684080e+00 7.443998e+00 
6.719340e+00 7.364314e+00 
6.754010e+00 7.287236e+00 
6.788680e+00 7.211593e+00 
6.823940e+00 7.135754e+00 
6.859800e+00 7.059732e+00 
6.894470e+00 6.987500e+00 
6.929140e+00 6.916351e+00 
6.963800e+00 6.846203e+00 
6.999070e+00 6.775832e+00 
7.033730e+00 6.707965e+00 
7.068400e+00 6.641001e+00 
7.103660e+00 6.573826e+00 
7.138330e+00 6.508777e+00 
7.173600e+00 6.443715e+00 
7.208260e+00 6.380636e+00 
7.243530e+00 6.317306e+00 
7.277600e+00 6.257083e+00 
7.312860e+00 6.195707e+00 
7.348120e+00 6.135146e+00 
7.382790e+00 6.076381e+00 
7.417460e+00 6.018670e+00 
7.452720e+00 5.960893e+00 
7.487390e+00 5.904816e+00 
7.522650e+00 5.848519e+00 
7.557320e+00 5.794039e+00 
7.591990e+00 5.740308e+00 
7.627250e+00 5.686357e+00 
7.662510e+00 5.633094e+00 
7.697180e+00 5.581597e+00 
7.731850e+00 5.530823e+00 
7.766510e+00 5.480690e+00 
7.801180e+00 5.431160e+00 
7.836440e+00 5.381534e+00 
7.871110e+00 5.333416e+00 
7.906380e+00 5.285064e+00 
7.941040e+00 5.238128e+00 
7.976310e+00 5.191065e+00 
8.011570e+00 5.144732e+00 
8.046240e+00 5.099721e+00 
8.080900e+00 5.055259e+00 
8.115570e+00 5.011357e+00 
8.150830e+00 4.967424e+00 
8.185500e+00 4.924736e+00 
8.220770e+00 4.881821e+00 
8.255430e+00 4.840142e+00 
8.290100e+00 4.799167e+00 
8.324770e+00 4.758692e+00 
8.359430e+00 4.718692e+00 
8.394700e+00 4.678457e+00 
8.429960e+00 4.638798e+00 
8.464630e+00 4.600349e+00 
8.499890e+00 4.561690e+00 
8.534560e+00 4.524109e+00 
8.569200e+00 4.486981e+00 
