# Parameters:
# omega_b = 0.023374, omega_m = 0.142323, n_s = 0.873622, h = 66.811024, w = -1.000000, sigma_8 = 0.728346
# z = 1.500000
#
# k[1/Mpc] # P(k):
8.694000e-04 4.863259e+03 
2.077466e-03 9.618319e+03 
3.285532e-03 1.308193e+04 
4.493598e-03 1.561304e+04 
5.701664e-03 1.739716e+04 
6.909730e-03 1.858463e+04 
8.117797e-03 1.932243e+04 
9.325863e-03 1.968619e+04 
1.053393e-02 1.974705e+04 
1.174199e-02 1.956682e+04 
1.295006e-02 1.918514e+04 
1.415813e-02 1.865255e+04 
1.536619e-02 1.801191e+04 
1.657426e-02 1.729158e+04 
1.778233e-02 1.651693e+04 
1.899039e-02 1.572559e+04 
2.019846e-02 1.493697e+04 
2.140652e-02 1.416797e+04 
2.261459e-02 1.342741e+04 
2.382266e-02 1.272665e+04 
2.503072e-02 1.207348e+04 
2.623879e-02 1.147043e+04 
2.744685e-02 1.091766e+04 
2.865492e-02 1.041654e+04 
2.986299e-02 9.964413e+03 
3.100100e-02 9.581907e+03 
3.220400e-02 9.219884e+03 
3.288100e-02 9.034839e+03 
3.424300e-02 8.697867e+03 
3.555100e-02 8.412922e+03 
3.686000e-02 8.160680e+03 
3.795000e-02 7.970941e+03 
3.929100e-02 7.759355e+03 
4.039800e-02 7.597499e+03 
4.164000e-02 7.425664e+03 
4.294400e-02 7.250443e+03 
4.415000e-02 7.091689e+03 
4.542900e-02 6.920216e+03 
4.660900e-02 6.760900e+03 
4.782300e-02 6.587930e+03 
4.892900e-02 6.426858e+03 
5.031200e-02 6.218120e+03 
5.155900e-02 6.022268e+03 
5.238100e-02 5.890467e+03 
5.378200e-02 5.662904e+03 
5.513400e-02 5.440422e+03 
5.627600e-02 5.252595e+03 
5.735300e-02 5.077699e+03 
5.870100e-02 4.864130e+03 
5.988700e-02 4.683442e+03 
6.113500e-02 4.501748e+03 
6.225900e-02 4.346695e+03 
6.340100e-02 4.198215e+03 
6.480200e-02 4.028456e+03 
6.601100e-02 3.893980e+03 
6.725500e-02 3.766690e+03 
6.829100e-02 3.669901e+03 
6.958600e-02 3.558686e+03 
7.071100e-02 3.471473e+03 
7.192300e-02 3.386215e+03 
7.307400e-02 3.312958e+03 
7.412300e-02 3.252092e+03 
7.550400e-02 3.180238e+03 
7.663100e-02 3.126764e+03 
7.791200e-02 3.071794e+03 
7.912700e-02 3.023639e+03 
8.027600e-02 2.980490e+03 
8.138400e-02 2.940383e+03 
8.272200e-02 2.893101e+03 
8.406100e-02 2.846098e+03 
8.534100e-02 2.800097e+03 
8.653800e-02 2.755459e+03 
8.759800e-02 2.714893e+03 
8.900300e-02 2.659094e+03 
9.009000e-02 2.613921e+03 
9.113300e-02 2.568582e+03 
9.239600e-02 2.512577e+03 
9.358000e-02 2.458420e+03 
9.496100e-02 2.393021e+03 
9.608400e-02 2.339480e+03 
9.727500e-02 2.282862e+03 
9.852600e-02 2.222377e+03 
9.973800e-02 2.164996e+03 
1.009000e-01 2.111163e+03 
1.020900e-01 2.057350e+03 
1.034000e-01 2.000406e+03 
1.046000e-01 1.950345e+03 
1.057200e-01 1.906427e+03 
1.069100e-01 1.861805e+03 
1.082500e-01 1.815232e+03 
1.093900e-01 1.778464e+03 
1.105400e-01 1.743346e+03 
1.116900e-01 1.711709e+03 
1.129600e-01 1.678640e+03 
1.142000e-01 1.649623e+03 
1.153300e-01 1.624802e+03 
1.166400e-01 1.598224e+03 
1.177800e-01 1.576874e+03 
1.190000e-01 1.555136e+03 
1.201200e-01 1.536529e+03 
1.213400e-01 1.516895e+03 
1.227100e-01 1.495847e+03 
1.238900e-01 1.478123e+03 
1.250700e-01 1.460577e+03 
1.263200e-01 1.442165e+03 
1.275500e-01 1.423894e+03 
1.287500e-01 1.405993e+03 
1.299900e-01 1.387148e+03 
1.311300e-01 1.369603e+03 
1.323500e-01 1.350328e+03 
1.335900e-01 1.330504e+03 
1.347100e-01 1.312092e+03 
1.359800e-01 1.291142e+03 
1.372100e-01 1.270247e+03 
1.384300e-01 1.249626e+03 
1.395700e-01 1.229883e+03 
1.407700e-01 1.209483e+03 
1.420300e-01 1.187695e+03 
1.432800e-01 1.166604e+03 
1.444500e-01 1.146912e+03 
1.456300e-01 1.127500e+03 
1.468900e-01 1.107389e+03 
1.480500e-01 1.089336e+03 
1.491700e-01 1.072532e+03 
1.503800e-01 1.055090e+03 
1.516400e-01 1.037514e+03 
1.528200e-01 1.022191e+03 
1.540200e-01 1.006932e+03 
1.551900e-01 9.932013e+02 
1.564300e-01 9.791473e+02 
1.576600e-01 9.659353e+02 
1.588700e-01 9.537283e+02 
1.600900e-01 9.416979e+02 
1.612700e-01 9.309927e+02 
1.625400e-01 9.196895e+02 
1.637600e-01 9.092790e+02 
1.649500e-01 8.994504e+02 
1.662200e-01 8.891598e+02 
1.674000e-01 8.798016e+02 
1.685000e-01 8.712250e+02 
1.697500e-01 8.615091e+02 
1.710300e-01 8.516067e+02 
1.722200e-01 8.425661e+02 
1.734400e-01 8.330226e+02 
1.746400e-01 8.237825e+02 
1.758700e-01 8.143151e+02 
1.770900e-01 8.047602e+02 
1.782700e-01 7.956791e+02 
1.794600e-01 7.864241e+02 
1.807000e-01 7.767793e+02 
1.819100e-01 7.675342e+02 
1.830100e-01 7.590378e+02 
1.842200e-01 7.498077e+02 
1.855000e-01 7.402131e+02 
1.867000e-01 7.312680e+02 
1.879200e-01 7.223305e+02 
1.890900e-01 7.139078e+02 
1.902800e-01 7.055015e+02 
1.915200e-01 6.968909e+02 
1.926900e-01 6.889354e+02 
1.939000e-01 6.809501e+02 
1.951700e-01 6.727106e+02 
1.963100e-01 6.654857e+02 
1.975100e-01 6.581341e+02 
1.987800e-01 6.504813e+02 
2.000100e-01 6.432495e+02 
2.012500e-01 6.362102e+02 
2.023400e-01 6.301157e+02 
2.036100e-01 6.231560e+02 
2.048900e-01 6.163851e+02 
2.060400e-01 6.103951e+02 
2.072200e-01 6.043470e+02 
2.084200e-01 5.983886e+02 
2.096900e-01 5.921787e+02 
2.109200e-01 5.862565e+02 
2.121100e-01 5.806590e+02 
2.132700e-01 5.752827e+02 
2.145200e-01 5.695732e+02 
2.157200e-01 5.641794e+02 
2.168800e-01 5.590417e+02 
2.180700e-01 5.538444e+02 
2.193400e-01 5.483712e+02 
2.206000e-01 5.430087e+02 
2.217500e-01 5.381832e+02 
2.229500e-01 5.332165e+02 
2.241400e-01 5.283235e+02 
2.253500e-01 5.234160e+02 
2.264900e-01 5.188546e+02 
2.277100e-01 5.140219e+02 
2.289900e-01 5.090046e+02 
2.301500e-01 5.045204e+02 
2.313600e-01 4.999051e+02 
2.325600e-01 4.953626e+02 
2.337700e-01 4.908438e+02 
2.350000e-01 4.863126e+02 
2.362000e-01 4.819432e+02 
2.374100e-01 4.775862e+02 
2.386500e-01 4.731811e+02 
2.399100e-01 4.687661e+02 
2.410400e-01 4.648603e+02 
2.422500e-01 4.607311e+02 
2.435000e-01 4.565218e+02 
2.447300e-01 4.524374e+02 
2.458700e-01 4.487093e+02 
2.470600e-01 4.448658e+02 
2.483300e-01 4.408171e+02 
2.495600e-01 4.369559e+02 
2.507600e-01 4.332481e+02 
2.519600e-01 4.295865e+02 
2.532200e-01 4.257907e+02 
2.543700e-01 4.223836e+02 
2.555500e-01 4.189390e+02 
2.568000e-01 4.153352e+02 
2.580100e-01 4.118902e+02 
2.592400e-01 4.084494e+02 
2.604100e-01 4.052237e+02 
2.616100e-01 4.019545e+02 
2.628400e-01 3.986439e+02 
2.640600e-01 3.954177e+02 
2.652200e-01 3.923931e+02 
2.664300e-01 3.892746e+02 
2.676500e-01 3.861676e+02 
2.688400e-01 3.831822e+02 
2.700700e-01 3.801387e+02 
2.712400e-01 3.772769e+02 
2.724800e-01 3.742789e+02 
2.736700e-01 3.714435e+02 
2.748800e-01 3.686019e+02 
2.761000e-01 3.657695e+02 
2.773200e-01 3.629696e+02 
2.785400e-01 3.602043e+02 
2.797000e-01 3.576096e+02 
2.808900e-01 3.549768e+02 
2.821400e-01 3.522423e+02 
2.833900e-01 3.495393e+02 
2.845500e-01 3.470613e+02 
2.857800e-01 3.444624e+02 
2.870300e-01 3.418508e+02 
2.882100e-01 3.394125e+02 
2.893900e-01 3.370018e+02 
2.906300e-01 3.344968e+02 
2.918900e-01 3.319798e+02 
2.930500e-01 3.296874e+02 
2.942500e-01 3.273407e+02 
2.954200e-01 3.250762e+02 
2.966500e-01 3.227207e+02 
2.978900e-01 3.203717e+02 
2.990400e-01 3.182159e+02 
3.002700e-01 3.159331e+02 
3.015100e-01 3.136560e+02 
3.026800e-01 3.115297e+02 
3.038500e-01 3.094247e+02 
3.050300e-01 3.073231e+02 
3.062600e-01 3.051534e+02 
3.075000e-01 3.029889e+02 
3.087000e-01 3.009159e+02 
3.099100e-01 2.988468e+02 
3.111200e-01 2.967994e+02 
3.123100e-01 2.948073e+02 
3.135300e-01 2.927854e+02 
3.147300e-01 2.908167e+02 
3.159900e-01 2.887705e+02 
3.171800e-01 2.868588e+02 
3.183700e-01 2.849667e+02 
3.196300e-01 2.829832e+02 
3.208400e-01 2.810977e+02 
3.220300e-01 2.792614e+02 
3.232000e-01 2.774764e+02 
3.244300e-01 2.756194e+02 
3.256700e-01 2.737657e+02 
3.269200e-01 2.719158e+02 
3.280800e-01 2.702155e+02 
3.292500e-01 2.685216e+02 
3.304800e-01 2.667592e+02 
3.317100e-01 2.650140e+02 
3.328900e-01 2.633555e+02 
3.340700e-01 2.617124e+02 
3.353600e-01 2.599401e+02 
3.365300e-01 2.583505e+02 
3.377100e-01 2.567619e+02 
3.389200e-01 2.551480e+02 
3.401600e-01 2.535095e+02 
3.413700e-01 2.519321e+02 
3.425300e-01 2.504379e+02 
3.437700e-01 2.488552e+02 
3.449800e-01 2.473251e+02 
3.461800e-01 2.458214e+02 
3.473600e-01 2.443594e+02 
3.485800e-01 2.428695e+02 
3.498100e-01 2.413810e+02 
3.510200e-01 2.399301e+02 
3.522000e-01 2.385275e+02 
3.533900e-01 2.371255e+02 
3.546400e-01 2.356774e+02 
3.558400e-01 2.343002e+02 
3.570600e-01 2.329125e+02 
3.582700e-01 2.315482e+02 
3.595000e-01 2.301736e+02 
3.607100e-01 2.288398e+02 
3.618900e-01 2.275553e+02 
3.631200e-01 2.262279e+02 
3.643200e-01 2.249441e+02 
3.655500e-01 2.236395e+02 
3.667300e-01 2.223986e+02 
3.679500e-01 2.211395e+02 
3.691900e-01 2.198708e+02 
3.703600e-01 2.186837e+02 
3.715700e-01 2.174662e+02 
3.727700e-01 2.162689e+02 
3.739900e-01 2.150660e+02 
3.752000e-01 2.138903e+02 
3.763900e-01 2.127436e+02 
3.775800e-01 2.116062e+02 
3.788200e-01 2.104309e+02 
3.800300e-01 2.092935e+02 
3.812100e-01 2.081995e+02 
3.824200e-01 2.070910e+02 
3.836100e-01 2.060096e+02 
3.848600e-01 2.048829e+02 
3.860400e-01 2.038279e+02 
3.872400e-01 2.027636e+02 
3.884600e-01 2.016979e+02 
3.896500e-01 2.006696e+02 
3.908700e-01 1.996238e+02 
3.920600e-01 1.986116e+02 
3.933100e-01 1.975570e+02 
3.945300e-01 1.965359e+02 
3.957200e-01 1.955555e+02 
3.969300e-01 1.945685e+02 
3.981700e-01 1.935651e+02 
3.993500e-01 1.926176e+02 
4.094840e-01 1.848069e+02 
4.272360e-01 1.724540e+02 
4.454600e-01 1.612213e+02 
4.630560e-01 1.515341e+02 
4.804610e-01 1.429013e+02 
4.980690e-01 1.349875e+02 
5.159230e-01 1.276924e+02 
5.317440e-01 1.217670e+02 
5.489640e-01 1.158306e+02 
5.671990e-01 1.100635e+02 
5.838690e-01 1.052091e+02 
6.018840e-01 1.003646e+02 
6.202330e-01 9.582333e+01 
6.379250e-01 9.177418e+01 
6.545410e-01 8.824801e+01 
6.714560e-01 8.489901e+01 
6.892080e-01 8.162707e+01 
7.066010e-01 7.864236e+01 
7.240540e-01 7.584211e+01 
7.420450e-01 7.314907e+01 
7.593780e-01 7.072194e+01 
7.764720e-01 6.847140e+01 
7.942840e-01 6.626829e+01 
8.116170e-01 6.425257e+01 
8.288310e-01 6.236688e+01 
8.462240e-01 6.056706e+01 
8.631980e-01 5.890533e+01 
8.810700e-01 5.724863e+01 
8.989410e-01 5.568057e+01 
9.166330e-01 5.420892e+01 
9.345640e-01 5.279301e+01 
9.515980e-01 5.151364e+01 
9.688720e-01 5.027623e+01 
9.865640e-01 4.906853e+01 
1.031870e+00 4.621561e+01 
1.063490e+00 4.440712e+01 
1.097920e+00 4.258791e+01 
1.134370e+00 4.080943e+01 
1.167730e+00 3.930125e+01 
1.203830e+00 3.778304e+01 
1.240470e+00 3.634979e+01 
1.275790e+00 3.505990e+01 
1.309140e+00 3.391768e+01 
1.342970e+00 3.282479e+01 
1.378420e+00 3.174643e+01 
1.413200e+00 3.074896e+01 
1.448110e+00 2.980128e+01 
1.484090e+00 2.887784e+01 
1.518820e+00 2.803256e+01 
1.552880e+00 2.724460e+01 
1.588630e+00 2.645714e+01 
1.623230e+00 2.573205e+01 
1.657720e+00 2.504225e+01 
1.692450e+00 2.437925e+01 
1.726400e+00 2.375837e+01 
1.762200e+00 2.313126e+01 
1.797880e+00 2.253402e+01 
1.833270e+00 2.196642e+01 
1.869070e+00 2.141552e+01 
1.903200e+00 2.091153e+01 
1.937740e+00 2.042065e+01 
1.973190e+00 1.993592e+01 
2.007440e+00 1.948507e+01 
2.042160e+00 1.904474e+01 
2.077900e+00 1.860773e+01 
2.112390e+00 1.820100e+01 
2.146220e+00 1.781521e+01 
2.181600e+00 1.742580e+01 
2.216930e+00 1.705000e+01 
2.250760e+00 1.670193e+01 
2.286500e+00 1.634617e+01 
2.321770e+00 1.600654e+01 
2.355950e+00 1.568783e+01 
2.391280e+00 1.536809e+01 
2.426240e+00 1.506148e+01 
2.460670e+00 1.476876e+01 
2.495640e+00 1.448051e+01 
2.531080e+00 1.419663e+01 
2.566220e+00 1.392330e+01 
2.600830e+00 1.366196e+01 
2.635080e+00 1.341078e+01 
2.670340e+00 1.315863e+01 
2.705970e+00 1.291121e+01 
2.740040e+00 1.268129e+01 
2.774520e+00 1.245443e+01 
2.809730e+00 1.222877e+01 
2.844390e+00 1.201265e+01 
2.879960e+00 1.179651e+01 
2.914860e+00 1.158980e+01 
2.949410e+00 1.139056e+01 
2.984440e+00 1.119337e+01 
3.019760e+00 1.099955e+01 
3.054730e+00 1.081266e+01 
3.089030e+00 1.063320e+01 
3.124060e+00 1.045455e+01 
3.159560e+00 1.027790e+01 
3.194710e+00 1.010705e+01 
3.229010e+00 9.944498e+00 
3.263320e+00 9.784933e+00 
3.297930e+00 9.627906e+00 
3.332830e+00 9.473126e+00 
3.368040e+00 9.320477e+00 
3.403300e+00 9.171168e+00 
3.438450e+00 9.025453e+00 
3.473060e+00 8.885436e+00 
3.508440e+00 8.744952e+00 
3.543110e+00 8.610574e+00 
3.577470e+00 8.479878e+00 
3.613040e+00 8.347704e+00 
3.648120e+00 8.220023e+00 
3.682910e+00 8.096127e+00 
3.718050e+00 7.973373e+00 
3.753320e+00 7.852844e+00 
3.787980e+00 7.736808e+00 
3.822290e+00 7.624315e+00 
3.857020e+00 7.512633e+00 
3.891920e+00 7.402704e+00 
3.926650e+00 7.295316e+00 
3.961970e+00 7.188389e+00 
3.997360e+00 7.083235e+00 
4.031670e+00 6.983461e+00 
4.066330e+00 6.884498e+00 
4.101420e+00 6.786465e+00 
4.136200e+00 6.690739e+00 
4.170810e+00 6.597515e+00 
4.206250e+00 6.503768e+00 
4.241580e+00 6.412256e+00 
4.276300e+00 6.323883e+00 
4.310970e+00 6.237282e+00 
4.346120e+00 6.151155e+00 
4.380600e+00 6.068160e+00 
4.414730e+00 5.987649e+00 
4.450350e+00 5.904934e+00 
4.485320e+00 5.825385e+00 
4.519810e+00 5.748210e+00 
4.555430e+00 5.669972e+00 
4.590870e+00 5.593607e+00 
4.625480e+00 5.520315e+00 
4.659910e+00 5.448811e+00 
4.695230e+00 5.376603e+00 
4.729960e+00 5.306931e+00 
4.764450e+00 5.238932e+00 
4.799530e+00 5.170877e+00 
4.834910e+00 5.103549e+00 
4.869700e+00 5.038402e+00 
4.904370e+00 4.974654e+00 
4.939450e+00 4.911295e+00 
4.973940e+00 4.850010e+00 
5.008430e+00 4.789834e+00 
5.043810e+00 4.729091e+00 
5.078840e+00 4.669966e+00 
5.113500e+00 4.612517e+00 
5.148890e+00 4.554699e+00 
5.184210e+00 4.498027e+00 
5.219060e+00 4.443076e+00 
5.253660e+00 4.389397e+00 
5.288570e+00 4.336181e+00 
5.323420e+00 4.283914e+00 
5.358440e+00 4.232230e+00 
5.393590e+00 4.181250e+00 
5.428310e+00 4.131673e+00 
5.462800e+00 4.083212e+00 
5.497640e+00 4.035081e+00 
5.532670e+00 3.987429e+00 
5.567280e+00 3.941112e+00 
5.602000e+00 3.895415e+00 
5.637270e+00 3.849709e+00 
5.672410e+00 3.804914e+00 
5.707020e+00 3.761516e+00 
5.742040e+00 3.718287e+00 
5.777430e+00 3.675307e+00 
5.812210e+00 3.633752e+00 
5.846820e+00 3.593010e+00 
5.881610e+00 3.552692e+00 
5.916510e+00 3.512886e+00 
5.951600e+00 3.473463e+00 
5.986560e+00 3.434789e+00 
6.021830e+00 3.396385e+00 
6.056490e+00 3.359231e+00 
6.091160e+00 3.322635e+00 
6.125830e+00 3.286597e+00 
6.161090e+00 3.250509e+00 
6.195760e+00 3.215568e+00 
6.230420e+00 3.181161e+00 
6.265690e+00 3.146677e+00 
6.300950e+00 3.112724e+00 
6.335620e+00 3.079837e+00 
6.370880e+00 3.046888e+00 
6.405550e+00 3.014985e+00 
6.440220e+00 2.983555e+00 
6.475480e+00 2.952058e+00 
6.510150e+00 2.921543e+00 
6.544810e+00 2.891488e+00 
6.580080e+00 2.861344e+00 
6.614750e+00 2.832138e+00 
6.649410e+00 2.803389e+00 
6.684080e+00 2.775044e+00 
6.719340e+00 2.746624e+00 
6.754010e+00 2.719086e+00 
6.788680e+00 2.691961e+00 
6.823940e+00 2.664759e+00 
6.859800e+00 2.637484e+00 
6.894470e+00 2.611514e+00 
6.929140e+00 2.585908e+00 
6.963800e+00 2.560657e+00 
6.999070e+00 2.535316e+00 
7.033730e+00 2.510810e+00 
7.068400e+00 2.486626e+00 
7.103660e+00 2.462359e+00 
7.138330e+00 2.438836e+00 
7.173600e+00 2.415260e+00 
7.208260e+00 2.392398e+00 
7.243530e+00 2.369441e+00 
7.277600e+00 2.347579e+00 
7.312860e+00 2.325270e+00 
7.348120e+00 2.303253e+00 
7.382790e+00 2.281885e+00 
7.417460e+00 2.260836e+00 
7.452720e+00 2.239728e+00 
7.487390e+00 2.219238e+00 
7.522650e+00 2.198664e+00 
7.557320e+00 2.178748e+00 
7.591990e+00 2.159100e+00 
7.627250e+00 2.139369e+00 
7.662510e+00 2.119887e+00 
7.697180e+00 2.101018e+00 
7.731850e+00 2.082399e+00 
7.766510e+00 2.064013e+00 
7.801180e+00 2.045845e+00 
7.836440e+00 2.027638e+00 
7.871110e+00 2.009981e+00 
7.906380e+00 1.992236e+00 
7.941040e+00 1.975008e+00 
7.976310e+00 1.957715e+00 
8.011570e+00 1.940669e+00 
8.046240e+00 1.924107e+00 
8.080900e+00 1.907745e+00 
8.115570e+00 1.891587e+00 
8.150830e+00 1.875414e+00 
8.185500e+00 1.859698e+00 
8.220770e+00 1.843896e+00 
8.255430e+00 1.828547e+00 
8.290100e+00 1.813431e+00 
8.324770e+00 1.798493e+00 
8.359430e+00 1.783730e+00 
8.394700e+00 1.768877e+00 
8.429960e+00 1.754238e+00 
8.464630e+00 1.740045e+00 
8.499890e+00 1.725773e+00 
8.534560e+00 1.711898e+00 
8.569200e+00 1.698187e+00 
