# Parameters:
# omega_b = 0.022744, omega_m = 0.143976, n_s = 0.966535, h = 55.708661, w = -1.000000, sigma_8 = 0.833858
# z = 1.500000
#
# k[1/Mpc] # P(k):
8.694000e-04 4.349154e+03 
2.077466e-03 9.312160e+03 
3.285532e-03 1.322752e+04 
4.493598e-03 1.628022e+04 
5.701664e-03 1.858247e+04 
6.909730e-03 2.024700e+04 
8.117797e-03 2.140607e+04 
9.325863e-03 2.212783e+04 
1.053393e-02 2.248246e+04 
1.174199e-02 2.253565e+04 
1.295006e-02 2.232832e+04 
1.415813e-02 2.191727e+04 
1.536619e-02 2.135371e+04 
1.657426e-02 2.067229e+04 
1.778233e-02 1.990307e+04 
1.899039e-02 1.909166e+04 
2.019846e-02 1.826324e+04 
2.140652e-02 1.744032e+04 
2.261459e-02 1.663516e+04 
2.382266e-02 1.586317e+04 
2.503072e-02 1.513614e+04 
2.623879e-02 1.445907e+04 
2.744685e-02 1.383357e+04 
2.865492e-02 1.326319e+04 
2.986299e-02 1.274621e+04 
3.100100e-02 1.230740e+04 
3.220400e-02 1.189111e+04 
3.288100e-02 1.167815e+04 
3.424300e-02 1.129008e+04 
3.555100e-02 1.096191e+04 
3.686000e-02 1.067148e+04 
3.795000e-02 1.045307e+04 
3.929100e-02 1.020939e+04 
4.039800e-02 1.002276e+04 
4.164000e-02 9.823970e+03 
4.294400e-02 9.619918e+03 
4.415000e-02 9.433928e+03 
4.542900e-02 9.231048e+03 
4.660900e-02 9.041139e+03 
4.782300e-02 8.832572e+03 
4.892900e-02 8.636886e+03 
5.031200e-02 8.381299e+03 
5.155900e-02 8.139411e+03 
5.238100e-02 7.975890e+03 
5.378200e-02 7.692781e+03 
5.513400e-02 7.416628e+03 
5.627600e-02 7.185691e+03 
5.735300e-02 6.974081e+03 
5.870100e-02 6.722323e+03 
5.988700e-02 6.516216e+03 
6.113500e-02 6.315166e+03 
6.225900e-02 6.147324e+03 
6.340100e-02 5.987075e+03 
6.480200e-02 5.800840e+03 
6.601100e-02 5.647001e+03 
6.725500e-02 5.493796e+03 
6.829100e-02 5.370541e+03 
6.958600e-02 5.222752e+03 
7.071100e-02 5.101380e+03 
7.192300e-02 4.978662e+03 
7.307400e-02 4.870243e+03 
7.412300e-02 4.778385e+03 
7.550400e-02 4.668049e+03 
7.663100e-02 4.585224e+03 
7.791200e-02 4.499852e+03 
7.912700e-02 4.425702e+03 
8.027600e-02 4.360206e+03 
8.138400e-02 4.300391e+03 
8.272200e-02 4.231617e+03 
8.406100e-02 4.165237e+03 
8.534100e-02 4.102521e+03 
8.653800e-02 4.043315e+03 
8.759800e-02 3.990357e+03 
8.900300e-02 3.918610e+03 
9.009000e-02 3.861188e+03 
9.113300e-02 3.803867e+03 
9.239600e-02 3.733175e+03 
9.358000e-02 3.664792e+03 
9.496100e-02 3.581854e+03 
9.608400e-02 3.513593e+03 
9.727500e-02 3.441063e+03 
9.852600e-02 3.362638e+03 
9.973800e-02 3.287612e+03 
1.009000e-01 3.216689e+03 
1.020900e-01 3.144478e+03 
1.034000e-01 3.067250e+03 
1.046000e-01 2.998521e+03 
1.057200e-01 2.936785e+03 
1.069100e-01 2.873449e+03 
1.082500e-01 2.805662e+03 
1.093900e-01 2.751034e+03 
1.105400e-01 2.698189e+03 
1.116900e-01 2.649060e+03 
1.129600e-01 2.597191e+03 
1.142000e-01 2.550405e+03 
1.153300e-01 2.509998e+03 
1.166400e-01 2.466109e+03 
1.177800e-01 2.430616e+03 
1.190000e-01 2.394363e+03 
1.201200e-01 2.363618e+03 
1.213400e-01 2.331232e+03 
1.227100e-01 2.297650e+03 
1.238900e-01 2.269693e+03 
1.250700e-01 2.243085e+03 
1.263200e-01 2.215632e+03 
1.275500e-01 2.189420e+03 
1.287500e-01 2.164240e+03 
1.299900e-01 2.138506e+03 
1.311300e-01 2.114888e+03 
1.323500e-01 2.089436e+03 
1.335900e-01 2.063422e+03 
1.347100e-01 2.039468e+03 
1.359800e-01 2.012198e+03 
1.372100e-01 1.984986e+03 
1.384300e-01 1.958008e+03 
1.395700e-01 1.931942e+03 
1.407700e-01 1.904926e+03 
1.420300e-01 1.875549e+03 
1.432800e-01 1.847068e+03 
1.444500e-01 1.819825e+03 
1.456300e-01 1.792934e+03 
1.468900e-01 1.764505e+03 
1.480500e-01 1.738799e+03 
1.491700e-01 1.714559e+03 
1.503800e-01 1.689007e+03 
1.516400e-01 1.663114e+03 
1.528200e-01 1.639989e+03 
1.540200e-01 1.616950e+03 
1.551900e-01 1.595756e+03 
1.564300e-01 1.573943e+03 
1.576600e-01 1.553239e+03 
1.588700e-01 1.533869e+03 
1.600900e-01 1.514766e+03 
1.612700e-01 1.497550e+03 
1.625400e-01 1.479372e+03 
1.637600e-01 1.462643e+03 
1.649500e-01 1.446857e+03 
1.662200e-01 1.430365e+03 
1.674000e-01 1.415570e+03 
1.685000e-01 1.402010e+03 
1.697500e-01 1.386842e+03 
1.710300e-01 1.371572e+03 
1.722200e-01 1.357630e+03 
1.734400e-01 1.343324e+03 
1.746400e-01 1.329486e+03 
1.758700e-01 1.315415e+03 
1.770900e-01 1.301434e+03 
1.782700e-01 1.288139e+03 
1.794600e-01 1.274722e+03 
1.807000e-01 1.260820e+03 
1.819100e-01 1.247486e+03 
1.830100e-01 1.235295e+03 
1.842200e-01 1.222055e+03 
1.855000e-01 1.208281e+03 
1.867000e-01 1.195417e+03 
1.879200e-01 1.182555e+03 
1.890900e-01 1.170409e+03 
1.902800e-01 1.158200e+03 
1.915200e-01 1.145684e+03 
1.926900e-01 1.134082e+03 
1.939000e-01 1.122328e+03 
1.951700e-01 1.110191e+03 
1.963100e-01 1.099507e+03 
1.975100e-01 1.088535e+03 
1.987800e-01 1.077107e+03 
2.000100e-01 1.066269e+03 
2.012500e-01 1.055638e+03 
2.023400e-01 1.046431e+03 
2.036100e-01 1.035896e+03 
2.048900e-01 1.025583e+03 
2.060400e-01 1.016457e+03 
2.072200e-01 1.007236e+03 
2.084200e-01 9.981164e+02 
2.096900e-01 9.886087e+02 
2.109200e-01 9.795382e+02 
2.121100e-01 9.709498e+02 
2.132700e-01 9.626973e+02 
2.145200e-01 9.539303e+02 
2.157200e-01 9.456405e+02 
2.168800e-01 9.377396e+02 
2.180700e-01 9.297445e+02 
2.193400e-01 9.213105e+02 
2.206000e-01 9.130232e+02 
2.217500e-01 9.055632e+02 
2.229500e-01 8.978824e+02 
2.241400e-01 8.902621e+02 
2.253500e-01 8.826154e+02 
2.264900e-01 8.755058e+02 
2.277100e-01 8.679285e+02 
2.289900e-01 8.600123e+02 
2.301500e-01 8.529352e+02 
2.313600e-01 8.456481e+02 
2.325600e-01 8.383703e+02 
2.337700e-01 8.311288e+02 
2.350000e-01 8.238656e+02 
2.362000e-01 8.168114e+02 
2.374100e-01 8.097183e+02 
2.386500e-01 8.025457e+02 
2.399100e-01 7.953554e+02 
2.410400e-01 7.889142e+02 
2.422500e-01 7.820938e+02 
2.435000e-01 7.751404e+02 
2.447300e-01 7.683812e+02 
2.458700e-01 7.621672e+02 
2.470600e-01 7.557603e+02 
2.483300e-01 7.490108e+02 
2.495600e-01 7.425656e+02 
2.507600e-01 7.363657e+02 
2.519600e-01 7.302427e+02 
2.532200e-01 7.238948e+02 
2.543700e-01 7.182099e+02 
2.555500e-01 7.124711e+02 
2.568000e-01 7.064666e+02 
2.580100e-01 7.007261e+02 
2.592400e-01 6.950311e+02 
2.604100e-01 6.897089e+02 
2.616100e-01 6.843140e+02 
2.628400e-01 6.788503e+02 
2.640600e-01 6.735769e+02 
2.652200e-01 6.686527e+02 
2.664300e-01 6.635749e+02 
2.676500e-01 6.585148e+02 
2.688400e-01 6.536985e+02 
2.700700e-01 6.488164e+02 
2.712400e-01 6.442249e+02 
2.724800e-01 6.394136e+02 
2.736700e-01 6.348950e+02 
2.748800e-01 6.303991e+02 
2.761000e-01 6.259166e+02 
2.773200e-01 6.214842e+02 
2.785400e-01 6.171218e+02 
2.797000e-01 6.130618e+02 
2.808900e-01 6.089409e+02 
2.821400e-01 6.046596e+02 
2.833900e-01 6.004278e+02 
2.845500e-01 5.965825e+02 
2.857800e-01 5.925481e+02 
2.870300e-01 5.884928e+02 
2.882100e-01 5.847053e+02 
2.893900e-01 5.809747e+02 
2.906300e-01 5.771052e+02 
2.918900e-01 5.732157e+02 
2.930500e-01 5.696721e+02 
2.942500e-01 5.660462e+02 
2.954200e-01 5.625556e+02 
2.966500e-01 5.589234e+02 
2.978900e-01 5.552998e+02 
2.990400e-01 5.519731e+02 
3.002700e-01 5.484524e+02 
3.015100e-01 5.449405e+02 
3.026800e-01 5.416601e+02 
3.038500e-01 5.384115e+02 
3.050300e-01 5.351669e+02 
3.062600e-01 5.318169e+02 
3.075000e-01 5.284739e+02 
3.087000e-01 5.252709e+02 
3.099100e-01 5.220728e+02 
3.111200e-01 5.189059e+02 
3.123100e-01 5.158214e+02 
3.135300e-01 5.126897e+02 
3.147300e-01 5.096392e+02 
3.159900e-01 5.064676e+02 
3.171800e-01 5.035002e+02 
3.183700e-01 5.005599e+02 
3.196300e-01 4.974768e+02 
3.208400e-01 4.945447e+02 
3.220300e-01 4.916882e+02 
3.232000e-01 4.889067e+02 
3.244300e-01 4.860104e+02 
3.256700e-01 4.831184e+02 
3.269200e-01 4.802311e+02 
3.280800e-01 4.775765e+02 
3.292500e-01 4.749274e+02 
3.304800e-01 4.721692e+02 
3.317100e-01 4.694369e+02 
3.328900e-01 4.668395e+02 
3.340700e-01 4.642653e+02 
3.353600e-01 4.614837e+02 
3.365300e-01 4.589866e+02 
3.377100e-01 4.564903e+02 
3.389200e-01 4.539532e+02 
3.401600e-01 4.513768e+02 
3.413700e-01 4.488930e+02 
3.425300e-01 4.465379e+02 
3.437700e-01 4.440425e+02 
3.449800e-01 4.416292e+02 
3.461800e-01 4.392568e+02 
3.473600e-01 4.369487e+02 
3.485800e-01 4.345942e+02 
3.498100e-01 4.322412e+02 
3.510200e-01 4.299468e+02 
3.522000e-01 4.277283e+02 
3.533900e-01 4.255099e+02 
3.546400e-01 4.232154e+02 
3.558400e-01 4.210326e+02 
3.570600e-01 4.188324e+02 
3.582700e-01 4.166687e+02 
3.595000e-01 4.144879e+02 
3.607100e-01 4.123713e+02 
3.618900e-01 4.103323e+02 
3.631200e-01 4.082246e+02 
3.643200e-01 4.061855e+02 
3.655500e-01 4.041128e+02 
3.667300e-01 4.021407e+02 
3.679500e-01 4.001388e+02 
3.691900e-01 3.981210e+02 
3.703600e-01 3.962326e+02 
3.715700e-01 3.942953e+02 
3.727700e-01 3.923895e+02 
3.739900e-01 3.904747e+02 
3.752000e-01 3.886036e+02 
3.763900e-01 3.867781e+02 
3.775800e-01 3.849669e+02 
3.788200e-01 3.830947e+02 
3.800300e-01 3.812825e+02 
3.812100e-01 3.795399e+02 
3.824200e-01 3.777742e+02 
3.836100e-01 3.760512e+02 
3.848600e-01 3.742556e+02 
3.860400e-01 3.725738e+02 
3.872400e-01 3.708766e+02 
3.884600e-01 3.691778e+02 
3.896500e-01 3.675384e+02 
3.908700e-01 3.658706e+02 
3.920600e-01 3.642562e+02 
3.933100e-01 3.625735e+02 
3.945300e-01 3.609439e+02 
3.957200e-01 3.593813e+02 
3.969300e-01 3.578085e+02 
3.981700e-01 3.562090e+02 
3.993500e-01 3.546983e+02 
4.094840e-01 3.422280e+02 
4.272360e-01 3.224891e+02 
4.454600e-01 3.044695e+02 
4.630560e-01 2.888436e+02 
4.804610e-01 2.748168e+02 
4.980690e-01 2.618552e+02 
5.159230e-01 2.497886e+02 
5.317440e-01 2.399087e+02 
5.489640e-01 2.299136e+02 
5.671990e-01 2.201142e+02 
5.838690e-01 2.118095e+02 
6.018840e-01 2.034707e+02 
6.202330e-01 1.955961e+02 
6.379250e-01 1.885408e+02 
6.545410e-01 1.823652e+02 
6.714560e-01 1.764818e+02 
6.892080e-01 1.707124e+02 
7.066010e-01 1.654373e+02 
7.240540e-01 1.604658e+02 
7.420450e-01 1.556770e+02 
7.593780e-01 1.513452e+02 
7.764720e-01 1.473193e+02 
7.942840e-01 1.433619e+02 
8.116170e-01 1.397346e+02 
8.288310e-01 1.363248e+02 
8.462240e-01 1.330643e+02 
8.631980e-01 1.300389e+02 
8.810700e-01 1.270093e+02 
8.989410e-01 1.241243e+02 
9.166330e-01 1.214056e+02 
9.345640e-01 1.187815e+02 
9.515980e-01 1.163934e+02 
9.688720e-01 1.140688e+02 
9.865640e-01 1.117873e+02 
1.031870e+00 1.063357e+02 
1.063490e+00 1.028295e+02 
1.097920e+00 9.926011e+01 
1.134370e+00 9.572094e+01 
1.167730e+00 9.268038e+01 
1.203830e+00 8.956797e+01 
1.240470e+00 8.659425e+01 
1.275790e+00 8.388019e+01 
1.309140e+00 8.144919e+01 
1.342970e+00 7.908437e+01 
1.378420e+00 7.673050e+01 
1.413200e+00 7.452512e+01 
1.448110e+00 7.240824e+01 
1.484090e+00 7.032233e+01 
1.518820e+00 6.839300e+01 
1.552880e+00 6.657686e+01 
1.588630e+00 6.474622e+01 
1.623230e+00 6.304660e+01 
1.657720e+00 6.141419e+01 
1.692450e+00 5.983580e+01 
1.726400e+00 5.834661e+01 
1.762200e+00 5.683150e+01 
1.797880e+00 5.537709e+01 
1.833270e+00 5.398889e+01 
1.869070e+00 5.263235e+01 
1.903200e+00 5.138372e+01 
1.937740e+00 5.016314e+01 
1.973190e+00 4.895286e+01 
2.007440e+00 4.782307e+01 
2.042160e+00 4.671296e+01 
2.077900e+00 4.560695e+01 
2.112390e+00 4.457554e+01 
2.146220e+00 4.359329e+01 
2.181600e+00 4.259837e+01 
2.216930e+00 4.163517e+01 
2.250760e+00 4.074148e+01 
2.286500e+00 3.982634e+01 
2.321770e+00 3.895063e+01 
2.355950e+00 3.812807e+01 
2.391280e+00 3.729898e+01 
2.426240e+00 3.650328e+01 
2.460670e+00 3.574335e+01 
2.495640e+00 3.499467e+01 
2.531080e+00 3.425553e+01 
2.566220e+00 3.354266e+01 
2.600830e+00 3.286070e+01 
2.635080e+00 3.220528e+01 
2.670340e+00 3.154731e+01 
2.705970e+00 3.090113e+01 
2.740040e+00 3.030037e+01 
2.774520e+00 2.970760e+01 
2.809730e+00 2.911740e+01 
2.844390e+00 2.855240e+01 
2.879960e+00 2.798843e+01 
2.914860e+00 2.744867e+01 
2.949410e+00 2.692847e+01 
2.984440e+00 2.641386e+01 
3.019760e+00 2.590778e+01 
3.054730e+00 2.541985e+01 
3.089030e+00 2.495267e+01 
3.124060e+00 2.448798e+01 
3.159560e+00 2.402890e+01 
3.194710e+00 2.358524e+01 
3.229010e+00 2.316346e+01 
3.263320e+00 2.275000e+01 
3.297930e+00 2.234346e+01 
3.332830e+00 2.194309e+01 
3.368040e+00 2.154911e+01 
3.403300e+00 2.116448e+01 
3.438450e+00 2.078947e+01 
3.473060e+00 2.042944e+01 
3.508440e+00 2.006880e+01 
3.543110e+00 1.972434e+01 
3.577470e+00 1.939081e+01 
3.613040e+00 1.905368e+01 
3.648120e+00 1.872794e+01 
3.682910e+00 1.841260e+01 
3.718050e+00 1.810132e+01 
3.753320e+00 1.779601e+01 
3.787980e+00 1.750240e+01 
3.822290e+00 1.721830e+01 
3.857020e+00 1.693694e+01 
3.891920e+00 1.666046e+01 
3.926650e+00 1.639100e+01 
3.961970e+00 1.612324e+01 
3.997360e+00 1.586095e+01 
4.031670e+00 1.561231e+01 
4.066330e+00 1.536603e+01 
4.101420e+00 1.512231e+01 
4.136200e+00 1.488548e+01 
4.170810e+00 1.465504e+01 
4.206250e+00 1.442396e+01 
4.241580e+00 1.419865e+01 
4.276300e+00 1.398182e+01 
4.310970e+00 1.376982e+01 
4.346120e+00 1.355932e+01 
4.380600e+00 1.335694e+01 
4.414730e+00 1.316078e+01 
4.450350e+00 1.296021e+01 
4.485320e+00 1.276746e+01 
4.519810e+00 1.258115e+01 
4.555430e+00 1.239265e+01 
4.590870e+00 1.220891e+01 
4.625480e+00 1.203293e+01 
4.659910e+00 1.186136e+01 
4.695230e+00 1.168909e+01 
4.729960e+00 1.152312e+01 
4.764450e+00 1.136147e+01 
4.799530e+00 1.120017e+01 
4.834910e+00 1.104071e+01 
4.869700e+00 1.088702e+01 
4.904370e+00 1.073680e+01 
4.939450e+00 1.058775e+01 
4.973940e+00 1.044405e+01 
5.008430e+00 1.030304e+01 
5.043810e+00 1.016111e+01 
5.078840e+00 1.002324e+01 
5.113500e+00 9.889358e+00 
5.148890e+00 9.755368e+00 
5.184210e+00 9.624141e+00 
5.219060e+00 9.497084e+00 
5.253660e+00 9.373350e+00 
5.288570e+00 9.250750e+00 
5.323420e+00 9.130602e+00 
5.358440e+00 9.012074e+00 
5.393590e+00 8.895226e+00 
5.428310e+00 8.782022e+00 
5.462800e+00 8.671616e+00 
5.497640e+00 8.562018e+00 
5.532670e+00 8.453956e+00 
5.567280e+00 8.349093e+00 
5.602000e+00 8.245685e+00 
5.637270e+00 8.142563e+00 
5.672410e+00 8.041604e+00 
5.707020e+00 7.943839e+00 
5.742040e+00 7.846872e+00 
5.777430e+00 7.750586e+00 
5.812210e+00 7.657530e+00 
5.846820e+00 7.566552e+00 
5.881610e+00 7.476613e+00 
5.916510e+00 7.387854e+00 
5.951600e+00 7.300260e+00 
5.986560e+00 7.214488e+00 
6.021830e+00 7.129346e+00 
6.056490e+00 7.047195e+00 
6.091160e+00 6.966469e+00 
6.125830e+00 6.887002e+00 
6.161090e+00 6.807518e+00 
6.195760e+00 6.730735e+00 
6.230420e+00 6.655151e+00 
6.265690e+00 6.579434e+00 
6.300950e+00 6.505207e+00 
6.335620e+00 6.433333e+00 
6.370880e+00 6.361344e+00 
6.405550e+00 6.291793e+00 
6.440220e+00 6.223344e+00 
6.475480e+00 6.154769e+00 
6.510150e+00 6.088435e+00 
6.544810e+00 6.023304e+00 
6.580080e+00 5.957999e+00 
6.614750e+00 5.894742e+00 
6.649410e+00 5.832615e+00 
6.684080e+00 5.771399e+00 
6.719340e+00 5.710036e+00 
6.754010e+00 5.650662e+00 
6.788680e+00 5.592355e+00 
6.823940e+00 5.533895e+00 
6.859800e+00 5.475291e+00 
6.894470e+00 5.419591e+00 
6.929140e+00 5.364719e+00 
6.963800e+00 5.310618e+00 
6.999070e+00 5.256341e+00 
7.033730e+00 5.203974e+00 
7.068400e+00 5.152302e+00 
7.103660e+00 5.100466e+00 
7.138330e+00 5.050262e+00 
7.173600e+00 5.000033e+00 
7.208260e+00 4.951333e+00 
7.243530e+00 4.902438e+00 
7.277600e+00 4.855933e+00 
7.312860e+00 4.808529e+00 
7.348120e+00 4.761754e+00 
7.382790e+00 4.716364e+00 
7.417460e+00 4.671766e+00 
7.452720e+00 4.627102e+00 
7.487390e+00 4.583753e+00 
7.522650e+00 4.540232e+00 
7.557320e+00 4.498118e+00 
7.591990e+00 4.456586e+00 
7.627250e+00 4.414881e+00 
7.662510e+00 4.373707e+00 
7.697180e+00 4.333890e+00 
7.731850e+00 4.294627e+00 
7.766510e+00 4.255859e+00 
7.801180e+00 4.217556e+00 
7.836440e+00 4.179183e+00 
7.871110e+00 4.141977e+00 
7.906380e+00 4.104590e+00 
7.941040e+00 4.068297e+00 
7.976310e+00 4.031901e+00 
8.011570e+00 3.996063e+00 
8.046240e+00 3.961248e+00 
8.080900e+00 3.926856e+00 
8.115570e+00 3.892898e+00 
8.150830e+00 3.858920e+00 
8.185500e+00 3.825904e+00 
8.220770e+00 3.792712e+00 
8.255430e+00 3.760475e+00 
8.290100e+00 3.728777e+00 
8.324770e+00 3.697464e+00 
8.359430e+00 3.666517e+00 
8.394700e+00 3.635389e+00 
8.429960e+00 3.604709e+00 
8.464630e+00 3.574969e+00 
8.499890e+00 3.545066e+00 
8.534560e+00 3.515995e+00 
8.569200e+00 3.487274e+00 
