# Parameters:
# omega_b = 0.021783, omega_m = 0.150039, n_s = 0.875197, h = 58.543307, w = -1.000000, sigma_8 = 0.767717
# z = 1.500000
#
# k[1/Mpc] # P(k):
8.694000e-04 4.726569e+03 
2.077466e-03 9.395967e+03 
3.285532e-03 1.285721e+04 
4.493598e-03 1.543317e+04 
5.701664e-03 1.730316e+04 
6.909730e-03 1.859798e+04 
8.117797e-03 1.944931e+04 
9.325863e-03 1.992676e+04 
1.053393e-02 2.009912e+04 
1.174199e-02 2.002852e+04 
1.295006e-02 1.975243e+04 
1.415813e-02 1.931943e+04 
1.536619e-02 1.877204e+04 
1.657426e-02 1.813737e+04 
1.778233e-02 1.743891e+04 
1.899039e-02 1.671294e+04 
2.019846e-02 1.597887e+04 
2.140652e-02 1.525386e+04 
2.261459e-02 1.454663e+04 
2.382266e-02 1.386919e+04 
2.503072e-02 1.323096e+04 
2.623879e-02 1.263571e+04 
2.744685e-02 1.208411e+04 
2.865492e-02 1.157903e+04 
2.986299e-02 1.111879e+04 
3.100100e-02 1.072527e+04 
3.220400e-02 1.034879e+04 
3.288100e-02 1.015435e+04 
3.424300e-02 9.796382e+03 
3.555100e-02 9.489257e+03 
3.686000e-02 9.213065e+03 
3.795000e-02 9.002455e+03 
3.929100e-02 8.763925e+03 
4.039800e-02 8.579503e+03 
4.164000e-02 8.382400e+03 
4.294400e-02 8.180772e+03 
4.415000e-02 7.998565e+03 
4.542900e-02 7.803490e+03 
4.660900e-02 7.623805e+03 
4.782300e-02 7.431640e+03 
4.892900e-02 7.254487e+03 
5.031200e-02 7.027797e+03 
5.155900e-02 6.817601e+03 
5.238100e-02 6.677250e+03 
5.378200e-02 6.436666e+03 
5.513400e-02 6.203860e+03 
5.627600e-02 6.009461e+03 
5.735300e-02 5.830427e+03 
5.870100e-02 5.614821e+03 
5.988700e-02 5.434868e+03 
6.113500e-02 5.255396e+03 
6.225900e-02 5.102240e+03 
6.340100e-02 4.953784e+03 
6.480200e-02 4.780152e+03 
6.601100e-02 4.637313e+03 
6.725500e-02 4.496796e+03 
6.829100e-02 4.385516e+03 
6.958600e-02 4.253873e+03 
7.071100e-02 4.147183e+03 
7.192300e-02 4.040282e+03 
7.307400e-02 3.946454e+03 
7.412300e-02 3.867247e+03 
7.550400e-02 3.772321e+03 
7.663100e-02 3.701140e+03 
7.791200e-02 3.627773e+03 
7.912700e-02 3.564078e+03 
8.027600e-02 3.507872e+03 
8.138400e-02 3.456615e+03 
8.272200e-02 3.397832e+03 
8.406100e-02 3.341327e+03 
8.534100e-02 3.288280e+03 
8.653800e-02 3.238537e+03 
8.759800e-02 3.194265e+03 
8.900300e-02 3.134636e+03 
9.009000e-02 3.087200e+03 
9.113300e-02 3.040061e+03 
9.239600e-02 2.982089e+03 
9.358000e-02 2.926177e+03 
9.496100e-02 2.858503e+03 
9.608400e-02 2.802830e+03 
9.727500e-02 2.743688e+03 
9.852600e-02 2.679643e+03 
9.973800e-02 2.618306e+03 
1.009000e-01 2.560271e+03 
1.020900e-01 2.500960e+03 
1.034000e-01 2.437440e+03 
1.046000e-01 2.380816e+03 
1.057200e-01 2.329772e+03 
1.069100e-01 2.277366e+03 
1.082500e-01 2.221128e+03 
1.093900e-01 2.175750e+03 
1.105400e-01 2.131829e+03 
1.116900e-01 2.090962e+03 
1.129600e-01 2.047830e+03 
1.142000e-01 2.008957e+03 
1.153300e-01 1.975439e+03 
1.166400e-01 1.939107e+03 
1.177800e-01 1.909836e+03 
1.190000e-01 1.879998e+03 
1.201200e-01 1.854880e+03 
1.213400e-01 1.828460e+03 
1.227100e-01 1.801336e+03 
1.238900e-01 1.778807e+03 
1.250700e-01 1.757528e+03 
1.263200e-01 1.735615e+03 
1.275500e-01 1.714783e+03 
1.287500e-01 1.694775e+03 
1.299900e-01 1.674333e+03 
1.311300e-01 1.655527e+03 
1.323500e-01 1.635192e+03 
1.335900e-01 1.614317e+03 
1.347100e-01 1.594978e+03 
1.359800e-01 1.572871e+03 
1.372100e-01 1.550636e+03 
1.384300e-01 1.528525e+03 
1.395700e-01 1.506998e+03 
1.407700e-01 1.484675e+03 
1.420300e-01 1.460220e+03 
1.432800e-01 1.436524e+03 
1.444500e-01 1.413750e+03 
1.456300e-01 1.391286e+03 
1.468900e-01 1.367541e+03 
1.480500e-01 1.346081e+03 
1.491700e-01 1.325886e+03 
1.503800e-01 1.304644e+03 
1.516400e-01 1.283160e+03 
1.528200e-01 1.264099e+03 
1.540200e-01 1.245120e+03 
1.551900e-01 1.227812e+03 
1.564300e-01 1.210042e+03 
1.576600e-01 1.193269e+03 
1.588700e-01 1.177686e+03 
1.600900e-01 1.162332e+03 
1.612700e-01 1.148660e+03 
1.625400e-01 1.134226e+03 
1.637600e-01 1.121019e+03 
1.649500e-01 1.108601e+03 
1.662200e-01 1.095637e+03 
1.674000e-01 1.084051e+03 
1.685000e-01 1.073432e+03 
1.697500e-01 1.061548e+03 
1.710300e-01 1.049578e+03 
1.722200e-01 1.038649e+03 
1.734400e-01 1.027371e+03 
1.746400e-01 1.016460e+03 
1.758700e-01 1.005337e+03 
1.770900e-01 9.942288e+02 
1.782700e-01 9.836679e+02 
1.794600e-01 9.729566e+02 
1.807000e-01 9.618258e+02 
1.819100e-01 9.511519e+02 
1.830100e-01 9.413384e+02 
1.842200e-01 9.306729e+02 
1.855000e-01 9.195783e+02 
1.867000e-01 9.091682e+02 
1.879200e-01 8.987625e+02 
1.890900e-01 8.889354e+02 
1.902800e-01 8.790372e+02 
1.915200e-01 8.688946e+02 
1.926900e-01 8.594935e+02 
1.939000e-01 8.499669e+02 
1.951700e-01 8.401342e+02 
1.963100e-01 8.314835e+02 
1.975100e-01 8.226083e+02 
1.987800e-01 8.133677e+02 
2.000100e-01 8.046130e+02 
2.012500e-01 7.960420e+02 
2.023400e-01 7.886203e+02 
2.036100e-01 7.801374e+02 
2.048900e-01 7.718583e+02 
2.060400e-01 7.645333e+02 
2.072200e-01 7.571365e+02 
2.084200e-01 7.498519e+02 
2.096900e-01 7.422588e+02 
2.109200e-01 7.350167e+02 
2.121100e-01 7.281939e+02 
2.132700e-01 7.216410e+02 
2.145200e-01 7.146812e+02 
2.157200e-01 7.081267e+02 
2.168800e-01 7.018926e+02 
2.180700e-01 6.955852e+02 
2.193400e-01 6.889504e+02 
2.206000e-01 6.824645e+02 
2.217500e-01 6.766270e+02 
2.229500e-01 6.706178e+02 
2.241400e-01 6.647086e+02 
2.253500e-01 6.587812e+02 
2.264900e-01 6.532710e+02 
2.277100e-01 6.474296e+02 
2.289900e-01 6.413615e+02 
2.301500e-01 6.359371e+02 
2.313600e-01 6.303531e+02 
2.325600e-01 6.248407e+02 
2.337700e-01 6.193563e+02 
2.350000e-01 6.138559e+02 
2.362000e-01 6.085413e+02 
2.374100e-01 6.032298e+02 
2.386500e-01 5.978589e+02 
2.399100e-01 5.924749e+02 
2.410400e-01 5.876922e+02 
2.422500e-01 5.826331e+02 
2.435000e-01 5.774751e+02 
2.447300e-01 5.724663e+02 
2.458700e-01 5.678818e+02 
2.470600e-01 5.631548e+02 
2.483300e-01 5.581748e+02 
2.495600e-01 5.534207e+02 
2.507600e-01 5.488497e+02 
2.519600e-01 5.443351e+02 
2.532200e-01 5.396545e+02 
2.543700e-01 5.354516e+02 
2.555500e-01 5.312012e+02 
2.568000e-01 5.267538e+02 
2.580100e-01 5.225019e+02 
2.592400e-01 5.182579e+02 
2.604100e-01 5.142802e+02 
2.616100e-01 5.102483e+02 
2.628400e-01 5.061650e+02 
2.640600e-01 5.021910e+02 
2.652200e-01 4.984670e+02 
2.664300e-01 4.946271e+02 
2.676500e-01 4.908007e+02 
2.688400e-01 4.871298e+02 
2.700700e-01 4.833906e+02 
2.712400e-01 4.798743e+02 
2.724800e-01 4.761900e+02 
2.736700e-01 4.727097e+02 
2.748800e-01 4.692260e+02 
2.761000e-01 4.657532e+02 
2.773200e-01 4.623196e+02 
2.785400e-01 4.589304e+02 
2.797000e-01 4.557551e+02 
2.808900e-01 4.525325e+02 
2.821400e-01 4.491851e+02 
2.833900e-01 4.458759e+02 
2.845500e-01 4.428475e+02 
2.857800e-01 4.396708e+02 
2.870300e-01 4.364782e+02 
2.882100e-01 4.334970e+02 
2.893900e-01 4.305513e+02 
2.906300e-01 4.274912e+02 
2.918900e-01 4.244158e+02 
2.930500e-01 4.216146e+02 
2.942500e-01 4.187467e+02 
2.954200e-01 4.159798e+02 
2.966500e-01 4.131013e+02 
2.978900e-01 4.102302e+02 
2.990400e-01 4.075948e+02 
3.002700e-01 4.048031e+02 
3.015100e-01 4.020176e+02 
3.026800e-01 3.994162e+02 
3.038500e-01 3.968405e+02 
3.050300e-01 3.942684e+02 
3.062600e-01 3.916106e+02 
3.075000e-01 3.889589e+02 
3.087000e-01 3.864188e+02 
3.099100e-01 3.838831e+02 
3.111200e-01 3.813725e+02 
3.123100e-01 3.789273e+02 
3.135300e-01 3.764452e+02 
3.147300e-01 3.740280e+02 
3.159900e-01 3.715153e+02 
3.171800e-01 3.691652e+02 
3.183700e-01 3.668374e+02 
3.196300e-01 3.643970e+02 
3.208400e-01 3.620766e+02 
3.220300e-01 3.598165e+02 
3.232000e-01 3.576170e+02 
3.244300e-01 3.553273e+02 
3.256700e-01 3.530417e+02 
3.269200e-01 3.507601e+02 
3.280800e-01 3.486629e+02 
3.292500e-01 3.465713e+02 
3.304800e-01 3.443944e+02 
3.317100e-01 3.422383e+02 
3.328900e-01 3.401891e+02 
3.340700e-01 3.381586e+02 
3.353600e-01 3.359666e+02 
3.365300e-01 3.339998e+02 
3.377100e-01 3.320339e+02 
3.389200e-01 3.300364e+02 
3.401600e-01 3.280083e+02 
3.413700e-01 3.260548e+02 
3.425300e-01 3.242038e+02 
3.437700e-01 3.222428e+02 
3.449800e-01 3.203468e+02 
3.461800e-01 3.184833e+02 
3.473600e-01 3.166711e+02 
3.485800e-01 3.148243e+02 
3.498100e-01 3.129791e+02 
3.510200e-01 3.111801e+02 
3.522000e-01 3.094410e+02 
3.533900e-01 3.077022e+02 
3.546400e-01 3.059066e+02 
3.558400e-01 3.041990e+02 
3.570600e-01 3.024779e+02 
3.582700e-01 3.007858e+02 
3.595000e-01 2.990806e+02 
3.607100e-01 2.974268e+02 
3.618900e-01 2.958348e+02 
3.631200e-01 2.941894e+02 
3.643200e-01 2.925978e+02 
3.655500e-01 2.909803e+02 
3.667300e-01 2.894415e+02 
3.679500e-01 2.878821e+02 
3.691900e-01 2.863105e+02 
3.703600e-01 2.848400e+02 
3.715700e-01 2.833315e+02 
3.727700e-01 2.818479e+02 
3.739900e-01 2.803580e+02 
3.752000e-01 2.789035e+02 
3.763900e-01 2.774847e+02 
3.775800e-01 2.760772e+02 
3.788200e-01 2.746225e+02 
3.800300e-01 2.732146e+02 
3.812100e-01 2.718620e+02 
3.824200e-01 2.704923e+02 
3.836100e-01 2.691559e+02 
3.848600e-01 2.677634e+02 
3.860400e-01 2.664594e+02 
3.872400e-01 2.651436e+02 
3.884600e-01 2.638280e+02 
3.896500e-01 2.625590e+02 
3.908700e-01 2.612682e+02 
3.920600e-01 2.600189e+02 
3.933100e-01 2.587169e+02 
3.945300e-01 2.574562e+02 
3.957200e-01 2.562483e+02 
3.969300e-01 2.550328e+02 
3.981700e-01 2.537969e+02 
3.993500e-01 2.526297e+02 
4.094840e-01 2.430090e+02 
4.272360e-01 2.278281e+02 
4.454600e-01 2.140201e+02 
4.630560e-01 2.020878e+02 
4.804610e-01 1.914134e+02 
4.980690e-01 1.815802e+02 
5.159230e-01 1.724606e+02 
5.317440e-01 1.650144e+02 
5.489640e-01 1.575090e+02 
5.671990e-01 1.501752e+02 
5.838690e-01 1.439754e+02 
6.018840e-01 1.377643e+02 
6.202330e-01 1.319168e+02 
6.379250e-01 1.266889e+02 
6.545410e-01 1.221231e+02 
6.714560e-01 1.177796e+02 
6.892080e-01 1.135283e+02 
7.066010e-01 1.096456e+02 
7.240540e-01 1.059958e+02 
7.420450e-01 1.024831e+02 
7.593780e-01 9.931255e+01 
7.764720e-01 9.636989e+01 
7.942840e-01 9.348439e+01 
8.116170e-01 9.084248e+01 
8.288310e-01 8.836617e+01 
8.462240e-01 8.600078e+01 
8.631980e-01 8.381241e+01 
8.810700e-01 8.162667e+01 
8.989410e-01 7.955264e+01 
9.166330e-01 7.760273e+01 
9.345640e-01 7.572404e+01 
9.515980e-01 7.402137e+01 
9.688720e-01 7.237006e+01 
9.865640e-01 7.075446e+01 
1.031870e+00 6.691910e+01 
1.063490e+00 6.447242e+01 
1.097920e+00 6.199821e+01 
1.134370e+00 5.956444e+01 
1.167730e+00 5.748864e+01 
1.203830e+00 5.538369e+01 
1.240470e+00 5.338598e+01 
1.275790e+00 5.157681e+01 
1.309140e+00 4.996666e+01 
1.342970e+00 4.841481e+01 
1.378420e+00 4.687763e+01 
1.413200e+00 4.544766e+01 
1.448110e+00 4.408287e+01 
1.484090e+00 4.274647e+01 
1.518820e+00 4.151755e+01 
1.552880e+00 4.036700e+01 
1.588630e+00 3.921287e+01 
1.623230e+00 3.814630e+01 
1.657720e+00 3.712739e+01 
1.692450e+00 3.614552e+01 
1.726400e+00 3.522303e+01 
1.762200e+00 3.428838e+01 
1.797880e+00 3.339516e+01 
1.833270e+00 3.254472e+01 
1.869070e+00 3.171692e+01 
1.903200e+00 3.095764e+01 
1.937740e+00 3.021697e+01 
1.973190e+00 2.948436e+01 
2.007440e+00 2.880193e+01 
2.042160e+00 2.813374e+01 
2.077900e+00 2.746954e+01 
2.112390e+00 2.685091e+01 
2.146220e+00 2.626317e+01 
2.181600e+00 2.566909e+01 
2.216930e+00 2.509508e+01 
2.250760e+00 2.456310e+01 
2.286500e+00 2.401902e+01 
2.321770e+00 2.349916e+01 
2.355950e+00 2.301119e+01 
2.391280e+00 2.252075e+01 
2.426240e+00 2.205036e+01 
2.460670e+00 2.160131e+01 
2.495640e+00 2.115911e+01 
2.531080e+00 2.072324e+01 
2.566220e+00 2.030335e+01 
2.600830e+00 1.990187e+01 
2.635080e+00 1.951610e+01 
2.670340e+00 1.912894e+01 
2.705970e+00 1.874900e+01 
2.740040e+00 1.839593e+01 
2.774520e+00 1.804765e+01 
2.809730e+00 1.770115e+01 
2.844390e+00 1.736944e+01 
2.879960e+00 1.703808e+01 
2.914860e+00 1.672118e+01 
2.949410e+00 1.641581e+01 
2.984440e+00 1.611373e+01 
3.019760e+00 1.581682e+01 
3.054730e+00 1.553059e+01 
3.089030e+00 1.525623e+01 
3.124060e+00 1.498326e+01 
3.159560e+00 1.471354e+01 
3.194710e+00 1.445284e+01 
3.229010e+00 1.420495e+01 
3.263320e+00 1.396186e+01 
3.297930e+00 1.372278e+01 
3.332830e+00 1.348729e+01 
3.368040e+00 1.325534e+01 
3.403300e+00 1.302873e+01 
3.438450e+00 1.280775e+01 
3.473060e+00 1.259553e+01 
3.508440e+00 1.238286e+01 
3.543110e+00 1.217959e+01 
3.577470e+00 1.198240e+01 
3.613040e+00 1.178305e+01 
3.648120e+00 1.159053e+01 
3.682910e+00 1.140396e+01 
3.718050e+00 1.121950e+01 
3.753320e+00 1.103850e+01 
3.787980e+00 1.086440e+01 
3.822290e+00 1.069581e+01 
3.857020e+00 1.052868e+01 
3.891920e+00 1.036433e+01 
3.926650e+00 1.020402e+01 
3.961970e+00 1.004457e+01 
3.997360e+00 9.888118e+00 
4.031670e+00 9.739756e+00 
4.066330e+00 9.592755e+00 
4.101420e+00 9.447216e+00 
4.136200e+00 9.305497e+00 
4.170810e+00 9.167546e+00 
4.206250e+00 9.029063e+00 
4.241580e+00 8.893978e+00 
4.276300e+00 8.763781e+00 
4.310970e+00 8.636358e+00 
4.346120e+00 8.509760e+00 
4.380600e+00 8.387937e+00 
4.414730e+00 8.269818e+00 
4.450350e+00 8.148796e+00 
4.485320e+00 8.032457e+00 
4.519810e+00 7.919824e+00 
4.555430e+00 7.805773e+00 
4.590870e+00 7.694545e+00 
4.625480e+00 7.587933e+00 
4.659910e+00 7.483966e+00 
4.695230e+00 7.379300e+00 
4.729960e+00 7.278395e+00 
4.764450e+00 7.180033e+00 
4.799530e+00 7.081762e+00 
4.834910e+00 6.984581e+00 
4.869700e+00 6.890758e+00 
4.904370e+00 6.799014e+00 
4.939450e+00 6.707917e+00 
4.973940e+00 6.619972e+00 
5.008430e+00 6.533651e+00 
5.043810e+00 6.446663e+00 
5.078840e+00 6.362089e+00 
5.113500e+00 6.279942e+00 
5.148890e+00 6.197524e+00 
5.184210e+00 6.116776e+00 
5.219060e+00 6.038548e+00 
5.253660e+00 5.962270e+00 
5.288570e+00 5.886673e+00 
5.323420e+00 5.812521e+00 
5.358440e+00 5.739298e+00 
5.393590e+00 5.667096e+00 
5.428310e+00 5.597029e+00 
5.462800e+00 5.528625e+00 
5.497640e+00 5.460707e+00 
5.532670e+00 5.393620e+00 
5.567280e+00 5.328471e+00 
5.602000e+00 5.264213e+00 
5.637270e+00 5.200057e+00 
5.672410e+00 5.137221e+00 
5.707020e+00 5.076360e+00 
5.742040e+00 5.015882e+00 
5.777430e+00 4.955796e+00 
5.812210e+00 4.897716e+00 
5.846820e+00 4.840868e+00 
5.881610e+00 4.784647e+00 
5.916510e+00 4.729154e+00 
5.951600e+00 4.674304e+00 
5.986560e+00 4.620553e+00 
6.021830e+00 4.567188e+00 
6.056490e+00 4.515638e+00 
6.091160e+00 4.464930e+00 
6.125830e+00 4.415005e+00 
6.161090e+00 4.365047e+00 
6.195760e+00 4.316744e+00 
6.230420e+00 4.269189e+00 
6.265690e+00 4.221541e+00 
6.300950e+00 4.174742e+00 
6.335620e+00 4.129422e+00 
6.370880e+00 4.084023e+00 
6.405550e+00 4.040125e+00 
6.440220e+00 3.996906e+00 
6.475480e+00 3.953601e+00 
6.510150e+00 3.911685e+00 
6.544810e+00 3.870472e+00 
6.580080e+00 3.829144e+00 
6.614750e+00 3.789109e+00 
6.649410e+00 3.749756e+00 
6.684080e+00 3.710971e+00 
6.719340e+00 3.672090e+00 
6.754010e+00 3.634446e+00 
6.788680e+00 3.597429e+00 
6.823940e+00 3.560313e+00 
6.859800e+00 3.523102e+00 
6.894470e+00 3.487712e+00 
6.929140e+00 3.452838e+00 
6.963800e+00 3.418450e+00 
6.999070e+00 3.383947e+00 
7.033730e+00 3.350631e+00 
7.068400e+00 3.317754e+00 
7.103660e+00 3.284770e+00 
7.138330e+00 3.252814e+00 
7.173600e+00 3.220822e+00 
7.208260e+00 3.189803e+00 
7.243530e+00 3.158657e+00 
7.277600e+00 3.129021e+00 
7.312860e+00 3.098800e+00 
7.348120e+00 3.068978e+00 
7.382790e+00 3.040038e+00 
7.417460e+00 3.011571e+00 
7.452720e+00 2.983046e+00 
7.487390e+00 2.955358e+00 
7.522650e+00 2.927560e+00 
7.557320e+00 2.900663e+00 
7.591990e+00 2.874137e+00 
7.627250e+00 2.847500e+00 
7.662510e+00 2.821200e+00 
7.697180e+00 2.795753e+00 
7.731850e+00 2.770655e+00 
7.766510e+00 2.745872e+00 
7.801180e+00 2.721385e+00 
7.836440e+00 2.696855e+00 
7.871110e+00 2.673073e+00 
7.906380e+00 2.649174e+00 
7.941040e+00 2.625972e+00 
7.976310e+00 2.602698e+00 
8.011570e+00 2.579772e+00 
8.046240e+00 2.557500e+00 
8.080900e+00 2.535496e+00 
8.115570e+00 2.513771e+00 
8.150830e+00 2.492036e+00 
8.185500e+00 2.470916e+00 
8.220770e+00 2.449681e+00 
8.255430e+00 2.429057e+00 
8.290100e+00 2.408767e+00 
8.324770e+00 2.388721e+00 
8.359430e+00 2.368909e+00 
8.394700e+00 2.348979e+00 
8.429960e+00 2.329340e+00 
8.464630e+00 2.310304e+00 
8.499890e+00 2.291163e+00 
8.534560e+00 2.272555e+00 
8.569200e+00 2.254168e+00 
