# Parameters:
# omega_b = 0.022996, omega_m = 0.138740, n_s = 1.037402, h = 79.803150, w = -1.000000, sigma_8 = 0.871654
# z = 1.500000
#
# k[1/Mpc] # P(k):
8.694000e-04 3.102992e+03 
2.077466e-03 7.041249e+03 
3.285532e-03 1.027881e+04 
4.493598e-03 1.287011e+04 
5.701664e-03 1.486137e+04 
6.909730e-03 1.633109e+04 
8.117797e-03 1.738279e+04 
9.325863e-03 1.806869e+04 
1.053393e-02 1.844257e+04 
1.174199e-02 1.855485e+04 
1.295006e-02 1.843942e+04 
1.415813e-02 1.814481e+04 
1.536619e-02 1.771226e+04 
1.657426e-02 1.717056e+04 
1.778233e-02 1.654792e+04 
1.899039e-02 1.588552e+04 
2.019846e-02 1.520607e+04 
2.140652e-02 1.452950e+04 
2.261459e-02 1.386747e+04 
2.382266e-02 1.323393e+04 
2.503072e-02 1.263897e+04 
2.623879e-02 1.208680e+04 
2.744685e-02 1.157904e+04 
2.865492e-02 1.111821e+04 
2.986299e-02 1.070256e+04 
3.100100e-02 1.035176e+04 
3.220400e-02 1.002093e+04 
3.288100e-02 9.852719e+03 
3.424300e-02 9.547893e+03 
3.555100e-02 9.291901e+03 
3.686000e-02 9.066813e+03 
3.795000e-02 8.898305e+03 
3.929100e-02 8.710747e+03 
4.039800e-02 8.566740e+03 
4.164000e-02 8.412392e+03 
4.294400e-02 8.251536e+03 
4.415000e-02 8.102978e+03 
4.542900e-02 7.937451e+03 
4.660900e-02 7.780265e+03 
4.782300e-02 7.604444e+03 
4.892900e-02 7.437663e+03 
5.031200e-02 7.217381e+03 
5.155900e-02 7.007142e+03 
5.238100e-02 6.864132e+03 
5.378200e-02 6.614325e+03 
5.513400e-02 6.365866e+03 
5.627600e-02 6.152051e+03 
5.735300e-02 5.948525e+03 
5.870100e-02 5.692588e+03 
5.988700e-02 5.469229e+03 
6.113500e-02 5.238826e+03 
6.225900e-02 5.039264e+03 
6.340100e-02 4.848156e+03 
6.480200e-02 4.632791e+03 
6.601100e-02 4.468269e+03 
6.725500e-02 4.319582e+03 
6.829100e-02 4.212669e+03 
6.958600e-02 4.095407e+03 
7.071100e-02 4.008574e+03 
7.192300e-02 3.927569e+03 
7.307400e-02 3.860919e+03 
7.412300e-02 3.807430e+03 
7.550400e-02 3.746485e+03 
7.663100e-02 3.702059e+03 
7.791200e-02 3.656921e+03 
7.912700e-02 3.616842e+03 
8.027600e-02 3.579956e+03 
8.138400e-02 3.544483e+03 
8.272200e-02 3.500576e+03 
8.406100e-02 3.454350e+03 
8.534100e-02 3.405965e+03 
8.653800e-02 3.356473e+03 
8.759800e-02 3.310050e+03 
8.900300e-02 3.244119e+03 
9.009000e-02 3.189264e+03 
9.113300e-02 3.133221e+03 
9.239600e-02 3.063319e+03 
9.358000e-02 2.995109e+03 
9.496100e-02 2.912366e+03 
9.608400e-02 2.844647e+03 
9.727500e-02 2.773112e+03 
9.852600e-02 2.697310e+03 
9.973800e-02 2.625888e+03 
1.009000e-01 2.559284e+03 
1.020900e-01 2.494058e+03 
1.034000e-01 2.425800e+03 
1.046000e-01 2.366596e+03 
1.057200e-01 2.316238e+03 
1.069100e-01 2.265657e+03 
1.082500e-01 2.214690e+03 
1.093900e-01 2.175620e+03 
1.105400e-01 2.138991e+03 
1.116900e-01 2.107589e+03 
1.129600e-01 2.075271e+03 
1.142000e-01 2.048191e+03 
1.153300e-01 2.025345e+03 
1.166400e-01 2.001420e+03 
1.177800e-01 1.982263e+03 
1.190000e-01 1.962799e+03 
1.201200e-01 1.945446e+03 
1.213400e-01 1.927018e+03 
1.227100e-01 1.905483e+03 
1.238900e-01 1.886902e+03 
1.250700e-01 1.867020e+03 
1.263200e-01 1.845577e+03 
1.275500e-01 1.823024e+03 
1.287500e-01 1.800393e+03 
1.299900e-01 1.775748e+03 
1.311300e-01 1.752544e+03 
1.323500e-01 1.726679e+03 
1.335900e-01 1.700102e+03 
1.347100e-01 1.675448e+03 
1.359800e-01 1.647599e+03 
1.372100e-01 1.620206e+03 
1.384300e-01 1.593425e+03 
1.395700e-01 1.568367e+03 
1.407700e-01 1.542565e+03 
1.420300e-01 1.515931e+03 
1.432800e-01 1.490136e+03 
1.444500e-01 1.466962e+03 
1.456300e-01 1.444099e+03 
1.468900e-01 1.420982e+03 
1.480500e-01 1.400384e+03 
1.491700e-01 1.381441e+03 
1.503800e-01 1.362081e+03 
1.516400e-01 1.342617e+03 
1.528200e-01 1.325936e+03 
1.540200e-01 1.309305e+03 
1.551900e-01 1.294472e+03 
1.564300e-01 1.279313e+03 
1.576600e-01 1.265047e+03 
1.588700e-01 1.251853e+03 
1.600900e-01 1.238831e+03 
1.612700e-01 1.227057e+03 
1.625400e-01 1.214619e+03 
1.637600e-01 1.202945e+03 
1.649500e-01 1.191791e+03 
1.662200e-01 1.180047e+03 
1.674000e-01 1.169019e+03 
1.685000e-01 1.158909e+03 
1.697500e-01 1.147245e+03 
1.710300e-01 1.135151e+03 
1.722200e-01 1.124106e+03 
1.734400e-01 1.112138e+03 
1.746400e-01 1.100535e+03 
1.758700e-01 1.088586e+03 
1.770900e-01 1.076406e+03 
1.782700e-01 1.064828e+03 
1.794600e-01 1.053002e+03 
1.807000e-01 1.040659e+03 
1.819100e-01 1.028825e+03 
1.830100e-01 1.018001e+03 
1.842200e-01 1.006248e+03 
1.855000e-01 9.940324e+02 
1.867000e-01 9.827853e+02 
1.879200e-01 9.715430e+02 
1.890900e-01 9.609726e+02 
1.902800e-01 9.505683e+02 
1.915200e-01 9.399053e+02 
1.926900e-01 9.300887e+02 
1.939000e-01 9.203619e+02 
1.951700e-01 9.103193e+02 
1.963100e-01 9.015432e+02 
1.975100e-01 8.927024e+02 
1.987800e-01 8.834937e+02 
2.000100e-01 8.748084e+02 
2.012500e-01 8.664018e+02 
2.023400e-01 8.591192e+02 
2.036100e-01 8.507992e+02 
2.048900e-01 8.427050e+02 
2.060400e-01 8.355403e+02 
2.072200e-01 8.282986e+02 
2.084200e-01 8.211171e+02 
2.096900e-01 8.136286e+02 
2.109200e-01 8.064833e+02 
2.121100e-01 7.996492e+02 
2.132700e-01 7.930782e+02 
2.145200e-01 7.860969e+02 
2.157200e-01 7.794441e+02 
2.168800e-01 7.730795e+02 
2.180700e-01 7.666385e+02 
2.193400e-01 7.598271e+02 
2.206000e-01 7.531032e+02 
2.217500e-01 7.470502e+02 
2.229500e-01 7.408177e+02 
2.241400e-01 7.346383e+02 
2.253500e-01 7.284373e+02 
2.264900e-01 7.226715e+02 
2.277100e-01 7.165570e+02 
2.289900e-01 7.102026e+02 
2.301500e-01 7.045211e+02 
2.313600e-01 6.986715e+02 
2.325600e-01 6.929313e+02 
2.337700e-01 6.872189e+02 
2.350000e-01 6.814884e+02 
2.362000e-01 6.759772e+02 
2.374100e-01 6.704994e+02 
2.386500e-01 6.649587e+02 
2.399100e-01 6.594029e+02 
2.410400e-01 6.545169e+02 
2.422500e-01 6.493531e+02 
2.435000e-01 6.440867e+02 
2.447300e-01 6.389804e+02 
2.458700e-01 6.343438e+02 
2.470600e-01 6.295613e+02 
2.483300e-01 6.245211e+02 
2.495600e-01 6.197194e+02 
2.507600e-01 6.151169e+02 
2.519600e-01 6.105695e+02 
2.532200e-01 6.058531e+02 
2.543700e-01 6.016188e+02 
2.555500e-01 5.973368e+02 
2.568000e-01 5.928546e+02 
2.580100e-01 5.885679e+02 
2.592400e-01 5.842772e+02 
2.604100e-01 5.802497e+02 
2.616100e-01 5.761660e+02 
2.628400e-01 5.720287e+02 
2.640600e-01 5.679805e+02 
2.652200e-01 5.641778e+02 
2.664300e-01 5.602555e+02 
2.676500e-01 5.563457e+02 
2.688400e-01 5.525739e+02 
2.700700e-01 5.487186e+02 
2.712400e-01 5.450920e+02 
2.724800e-01 5.412910e+02 
2.736700e-01 5.376844e+02 
2.748800e-01 5.340576e+02 
2.761000e-01 5.304412e+02 
2.773200e-01 5.268647e+02 
2.785400e-01 5.233257e+02 
2.797000e-01 5.199927e+02 
2.808900e-01 5.166093e+02 
2.821400e-01 5.130940e+02 
2.833900e-01 5.096174e+02 
2.845500e-01 5.064208e+02 
2.857800e-01 5.030668e+02 
2.870300e-01 4.996953e+02 
2.882100e-01 4.965463e+02 
2.893900e-01 4.934292e+02 
2.906300e-01 4.901877e+02 
2.918900e-01 4.869292e+02 
2.930500e-01 4.839605e+02 
2.942500e-01 4.809202e+02 
2.954200e-01 4.779853e+02 
2.966500e-01 4.749312e+02 
2.978900e-01 4.718844e+02 
2.990400e-01 4.690871e+02 
3.002700e-01 4.661256e+02 
3.015100e-01 4.631711e+02 
3.026800e-01 4.604113e+02 
3.038500e-01 4.576782e+02 
3.050300e-01 4.549484e+02 
3.062600e-01 4.521343e+02 
3.075000e-01 4.493259e+02 
3.087000e-01 4.466350e+02 
3.099100e-01 4.439483e+02 
3.111200e-01 4.412904e+02 
3.123100e-01 4.387061e+02 
3.135300e-01 4.360823e+02 
3.147300e-01 4.335263e+02 
3.159900e-01 4.308688e+02 
3.171800e-01 4.283868e+02 
3.183700e-01 4.259303e+02 
3.196300e-01 4.233543e+02 
3.208400e-01 4.209044e+02 
3.220300e-01 4.185176e+02 
3.232000e-01 4.161984e+02 
3.244300e-01 4.137853e+02 
3.256700e-01 4.113757e+02 
3.269200e-01 4.089699e+02 
3.280800e-01 4.067579e+02 
3.292500e-01 4.045540e+02 
3.304800e-01 4.022605e+02 
3.317100e-01 3.999884e+02 
3.328900e-01 3.978283e+02 
3.340700e-01 3.956874e+02 
3.353600e-01 3.933756e+02 
3.365300e-01 3.913007e+02 
3.377100e-01 3.892263e+02 
3.389200e-01 3.871179e+02 
3.401600e-01 3.849767e+02 
3.413700e-01 3.829122e+02 
3.425300e-01 3.809542e+02 
3.437700e-01 3.788796e+02 
3.449800e-01 3.768731e+02 
3.461800e-01 3.749005e+02 
3.473600e-01 3.729802e+02 
3.485800e-01 3.710188e+02 
3.498100e-01 3.690586e+02 
3.510200e-01 3.671470e+02 
3.522000e-01 3.652987e+02 
3.533900e-01 3.634502e+02 
3.546400e-01 3.615328e+02 
3.558400e-01 3.597084e+02 
3.570600e-01 3.578692e+02 
3.582700e-01 3.560605e+02 
3.595000e-01 3.542376e+02 
3.607100e-01 3.524636e+02 
3.618900e-01 3.507512e+02 
3.631200e-01 3.489810e+02 
3.643200e-01 3.472683e+02 
3.655500e-01 3.455274e+02 
3.667300e-01 3.438709e+02 
3.679500e-01 3.421798e+02 
3.691900e-01 3.404752e+02 
3.703600e-01 3.388800e+02 
3.715700e-01 3.372433e+02 
3.727700e-01 3.356333e+02 
3.739900e-01 3.340119e+02 
3.752000e-01 3.324211e+02 
3.763900e-01 3.308689e+02 
3.775800e-01 3.293290e+02 
3.788200e-01 3.277372e+02 
3.800300e-01 3.261964e+02 
3.812100e-01 3.247082e+02 
3.824200e-01 3.231961e+02 
3.836100e-01 3.217205e+02 
3.848600e-01 3.201827e+02 
3.860400e-01 3.187424e+02 
3.872400e-01 3.172889e+02 
3.884600e-01 3.158265e+02 
3.896500e-01 3.144125e+02 
3.908700e-01 3.129739e+02 
3.920600e-01 3.115814e+02 
3.933100e-01 3.101300e+02 
3.945300e-01 3.087245e+02 
3.957200e-01 3.073676e+02 
3.969300e-01 3.059992e+02 
3.981700e-01 3.046077e+02 
3.993500e-01 3.032934e+02 
4.094840e-01 2.924130e+02 
4.272360e-01 2.749747e+02 
4.454600e-01 2.589378e+02 
4.630560e-01 2.449930e+02 
4.804610e-01 2.324981e+02 
4.980690e-01 2.210082e+02 
5.159230e-01 2.103892e+02 
5.317440e-01 2.017522e+02 
5.489640e-01 1.930832e+02 
5.671990e-01 1.846486e+02 
5.838690e-01 1.775366e+02 
6.018840e-01 1.704277e+02 
6.202330e-01 1.637452e+02 
6.379250e-01 1.577706e+02 
6.545410e-01 1.525536e+02 
6.714560e-01 1.475863e+02 
6.892080e-01 1.427186e+02 
7.066010e-01 1.382669e+02 
7.240540e-01 1.340726e+02 
7.420450e-01 1.300294e+02 
7.593780e-01 1.263718e+02 
7.764720e-01 1.229701e+02 
7.942840e-01 1.196271e+02 
8.116170e-01 1.165605e+02 
8.288310e-01 1.136790e+02 
8.462240e-01 1.109225e+02 
8.631980e-01 1.083665e+02 
8.810700e-01 1.058088e+02 
8.989410e-01 1.033764e+02 
9.166330e-01 1.010861e+02 
9.345640e-01 9.887604e+01 
9.515980e-01 9.686898e+01 
9.688720e-01 9.491902e+01 
9.865640e-01 9.300854e+01 
1.031870e+00 8.845883e+01 
1.063490e+00 8.554559e+01 
1.097920e+00 8.259260e+01 
1.134370e+00 7.967730e+01 
1.167730e+00 7.718382e+01 
1.203830e+00 7.464537e+01 
1.240470e+00 7.222888e+01 
1.275790e+00 7.003301e+01 
1.309140e+00 6.807312e+01 
1.342970e+00 6.617562e+01 
1.378420e+00 6.429111e+01 
1.413200e+00 6.253167e+01 
1.448110e+00 6.084686e+01 
1.484090e+00 5.919133e+01 
1.518820e+00 5.766335e+01 
1.552880e+00 5.622767e+01 
1.588630e+00 5.478262e+01 
1.623230e+00 5.344272e+01 
1.657720e+00 5.215824e+01 
1.692450e+00 5.091671e+01 
1.726400e+00 4.974585e+01 
1.762200e+00 4.855535e+01 
1.797880e+00 4.741379e+01 
1.833270e+00 4.632385e+01 
1.869070e+00 4.525878e+01 
1.903200e+00 4.427861e+01 
1.937740e+00 4.331994e+01 
1.973190e+00 4.236871e+01 
2.007440e+00 4.148005e+01 
2.042160e+00 4.060679e+01 
2.077900e+00 3.973615e+01 
2.112390e+00 3.892321e+01 
2.146220e+00 3.814828e+01 
2.181600e+00 3.736273e+01 
2.216930e+00 3.660136e+01 
2.250760e+00 3.589399e+01 
2.286500e+00 3.516864e+01 
2.321770e+00 3.447361e+01 
2.355950e+00 3.381976e+01 
2.391280e+00 3.316001e+01 
2.426240e+00 3.252576e+01 
2.460670e+00 3.191902e+01 
2.495640e+00 3.132030e+01 
2.531080e+00 3.072806e+01 
2.566220e+00 3.015611e+01 
2.600830e+00 2.960802e+01 
2.635080e+00 2.908028e+01 
2.670340e+00 2.854912e+01 
2.705970e+00 2.802669e+01 
2.740040e+00 2.754024e+01 
2.774520e+00 2.705914e+01 
2.809730e+00 2.657926e+01 
2.844390e+00 2.611907e+01 
2.879960e+00 2.565852e+01 
2.914860e+00 2.521680e+01 
2.949410e+00 2.479041e+01 
2.984440e+00 2.436760e+01 
3.019760e+00 2.395106e+01 
3.054730e+00 2.354884e+01 
3.089030e+00 2.316234e+01 
3.124060e+00 2.277725e+01 
3.159560e+00 2.239600e+01 
3.194710e+00 2.202663e+01 
3.229010e+00 2.167496e+01 
3.263320e+00 2.132919e+01 
3.297930e+00 2.098868e+01 
3.332830e+00 2.065253e+01 
3.368040e+00 2.032091e+01 
3.403300e+00 1.999648e+01 
3.438450e+00 1.967930e+01 
3.473060e+00 1.937440e+01 
3.508440e+00 1.906804e+01 
3.543110e+00 1.877502e+01 
3.577470e+00 1.849012e+01 
3.613040e+00 1.820179e+01 
3.648120e+00 1.792267e+01 
3.682910e+00 1.765188e+01 
3.718050e+00 1.738371e+01 
3.753320e+00 1.712022e+01 
3.787980e+00 1.686629e+01 
3.822290e+00 1.662009e+01 
3.857020e+00 1.637560e+01 
3.891920e+00 1.613491e+01 
3.926650e+00 1.589969e+01 
3.961970e+00 1.566554e+01 
3.997360e+00 1.543540e+01 
4.031670e+00 1.521697e+01 
4.066330e+00 1.500003e+01 
4.101420e+00 1.478514e+01 
4.136200e+00 1.457548e+01 
4.170810e+00 1.437132e+01 
4.206250e+00 1.416591e+01 
4.241580e+00 1.396539e+01 
4.276300e+00 1.377184e+01 
4.310970e+00 1.358223e+01 
4.346120e+00 1.339362e+01 
4.380600e+00 1.321180e+01 
4.414730e+00 1.303543e+01 
4.450350e+00 1.285437e+01 
4.485320e+00 1.268026e+01 
4.519810e+00 1.251142e+01 
4.555430e+00 1.234031e+01 
4.590870e+00 1.217325e+01 
4.625480e+00 1.201284e+01 
4.659910e+00 1.185634e+01 
4.695230e+00 1.169856e+01 
4.729960e+00 1.154637e+01 
4.764450e+00 1.139785e+01 
4.799530e+00 1.124924e+01 
4.834910e+00 1.110223e+01 
4.869700e+00 1.096007e+01 
4.904370e+00 1.082097e+01 
4.939450e+00 1.068274e+01 
4.973940e+00 1.054906e+01 
5.008430e+00 1.041782e+01 
5.043810e+00 1.028537e+01 
5.078840e+00 1.015647e+01 
5.113500e+00 1.003122e+01 
5.148890e+00 9.905356e+00 
5.184210e+00 9.781991e+00 
5.219060e+00 9.662380e+00 
5.253660e+00 9.545557e+00 
5.288570e+00 9.429741e+00 
5.323420e+00 9.316013e+00 
5.358440e+00 9.203573e+00 
5.393590e+00 9.092667e+00 
5.428310e+00 8.984905e+00 
5.462800e+00 8.879617e+00 
5.497640e+00 8.775045e+00 
5.532670e+00 8.671615e+00 
5.567280e+00 8.571110e+00 
5.602000e+00 8.471949e+00 
5.637270e+00 8.372768e+00 
5.672410e+00 8.275562e+00 
5.707020e+00 8.181386e+00 
5.742040e+00 8.087660e+00 
5.777430e+00 7.994493e+00 
5.812210e+00 7.904410e+00 
5.846820e+00 7.816098e+00 
5.881610e+00 7.728707e+00 
5.916510e+00 7.642423e+00 
5.951600e+00 7.557026e+00 
5.986560e+00 7.473275e+00 
6.021830e+00 7.390106e+00 
6.056490e+00 7.309679e+00 
6.091160e+00 7.230491e+00 
6.125830e+00 7.152509e+00 
6.161090e+00 7.074412e+00 
6.195760e+00 6.998791e+00 
6.230420e+00 6.924325e+00 
6.265690e+00 6.849690e+00 
6.300950e+00 6.776243e+00 
6.335620e+00 6.705100e+00 
6.370880e+00 6.633818e+00 
6.405550e+00 6.564794e+00 
6.440220e+00 6.496787e+00 
6.475480e+00 6.428632e+00 
6.510150e+00 6.362615e+00 
6.544810e+00 6.297620e+00 
6.580080e+00 6.232433e+00 
6.614750e+00 6.169270e+00 
6.649410e+00 6.107068e+00 
6.684080e+00 6.045732e+00 
6.719340e+00 5.984231e+00 
6.754010e+00 5.924648e+00 
6.788680e+00 5.865983e+00 
6.823940e+00 5.807148e+00 
6.859800e+00 5.748154e+00 
6.894470e+00 5.691948e+00 
6.929140e+00 5.636520e+00 
6.963800e+00 5.581857e+00 
6.999070e+00 5.526994e+00 
7.033730e+00 5.473915e+00 
7.068400e+00 5.421527e+00 
7.103660e+00 5.368961e+00 
7.138330e+00 5.317993e+00 
7.173600e+00 5.266892e+00 
7.208260e+00 5.217337e+00 
7.243530e+00 5.167572e+00 
7.277600e+00 5.120159e+00 
7.312860e+00 5.071756e+00 
7.348120e+00 5.023985e+00 
7.382790e+00 4.977620e+00 
7.417460e+00 4.931956e+00 
7.452720e+00 4.886165e+00 
7.487390e+00 4.841713e+00 
7.522650e+00 4.797078e+00 
7.557320e+00 4.753809e+00 
7.591990e+00 4.711103e+00 
7.627250e+00 4.668214e+00 
7.662510e+00 4.625863e+00 
7.697180e+00 4.584822e+00 
7.731850e+00 4.544316e+00 
7.766510e+00 4.504315e+00 
7.801180e+00 4.464788e+00 
7.836440e+00 4.425128e+00 
7.871110e+00 4.386635e+00 
7.906380e+00 4.347950e+00 
7.941040e+00 4.310392e+00 
7.976310e+00 4.272676e+00 
8.011570e+00 4.235478e+00 
8.046240e+00 4.199338e+00 
8.080900e+00 4.163632e+00 
8.115570e+00 4.128358e+00 
8.150830e+00 4.093001e+00 
8.185500e+00 4.058642e+00 
8.220770e+00 4.024096e+00 
8.255430e+00 3.990541e+00 
8.290100e+00 3.957458e+00 
8.324770e+00 3.924765e+00 
8.359430e+00 3.892452e+00 
8.394700e+00 3.859945e+00 
8.429960e+00 3.827872e+00 
8.464630e+00 3.796744e+00 
8.499890e+00 3.765443e+00 
8.534560e+00 3.735012e+00 
8.569200e+00 3.704944e+00 
