# Parameters:
# omega_b = 0.022083, omega_m = 0.147559, n_s = 0.894094, h = 82.874016, w = -1.000000, sigma_8 = 0.778740
# z = 1.500000
#
# k[1/Mpc] # P(k):
8.694000e-04 3.841729e+03 
2.077466e-03 7.748427e+03 
3.285532e-03 1.068120e+04 
4.493598e-03 1.288130e+04 
5.701664e-03 1.448158e+04 
6.909730e-03 1.559365e+04 
8.117797e-03 1.633127e+04 
9.325863e-03 1.675352e+04 
1.053393e-02 1.691686e+04 
1.174199e-02 1.687104e+04 
1.295006e-02 1.664832e+04 
1.415813e-02 1.629067e+04 
1.536619e-02 1.583226e+04 
1.657426e-02 1.529528e+04 
1.778233e-02 1.470147e+04 
1.899039e-02 1.408327e+04 
2.019846e-02 1.345764e+04 
2.140652e-02 1.283934e+04 
2.261459e-02 1.223631e+04 
2.382266e-02 1.165917e+04 
2.503072e-02 1.111591e+04 
2.623879e-02 1.060964e+04 
2.744685e-02 1.014088e+04 
2.865492e-02 9.712112e+03 
2.986299e-02 9.321792e+03 
3.100100e-02 8.988426e+03 
3.220400e-02 8.670029e+03 
3.288100e-02 8.505959e+03 
3.424300e-02 8.204733e+03 
3.555100e-02 7.947432e+03 
3.686000e-02 7.717320e+03 
3.795000e-02 7.542842e+03 
3.929100e-02 7.346715e+03 
4.039800e-02 7.195961e+03 
4.164000e-02 7.035474e+03 
4.294400e-02 6.871839e+03 
4.415000e-02 6.723963e+03 
4.542900e-02 6.565127e+03 
4.660900e-02 6.418261e+03 
4.782300e-02 6.260183e+03 
4.892900e-02 6.113601e+03 
5.031200e-02 5.924627e+03 
5.155900e-02 5.748118e+03 
5.238100e-02 5.629411e+03 
5.378200e-02 5.423747e+03 
5.513400e-02 5.219998e+03 
5.627600e-02 5.044118e+03 
5.735300e-02 4.875249e+03 
5.870100e-02 4.659841e+03 
5.988700e-02 4.468437e+03 
6.113500e-02 4.267460e+03 
6.225900e-02 4.090454e+03 
6.340100e-02 3.918792e+03 
6.480200e-02 3.723705e+03 
6.601100e-02 3.573591e+03 
6.725500e-02 3.437530e+03 
6.829100e-02 3.339485e+03 
6.958600e-02 3.231969e+03 
7.071100e-02 3.152191e+03 
7.192300e-02 3.077600e+03 
7.307400e-02 3.016052e+03 
7.412300e-02 2.966513e+03 
7.550400e-02 2.909931e+03 
7.663100e-02 2.868720e+03 
7.791200e-02 2.827166e+03 
7.912700e-02 2.790921e+03 
8.027600e-02 2.758225e+03 
8.138400e-02 2.727429e+03 
8.272200e-02 2.690291e+03 
8.406100e-02 2.652224e+03 
8.534100e-02 2.613458e+03 
8.653800e-02 2.574526e+03 
8.759800e-02 2.538365e+03 
8.900300e-02 2.487469e+03 
9.009000e-02 2.445395e+03 
9.113300e-02 2.402525e+03 
9.239600e-02 2.349096e+03 
9.358000e-02 2.296949e+03 
9.496100e-02 2.233515e+03 
9.608400e-02 2.181429e+03 
9.727500e-02 2.126263e+03 
9.852600e-02 2.067285e+03 
9.973800e-02 2.011426e+03 
1.009000e-01 1.959105e+03 
1.020900e-01 1.907109e+03 
1.034000e-01 1.852319e+03 
1.046000e-01 1.804391e+03 
1.057200e-01 1.762828e+03 
1.069100e-01 1.720807e+03 
1.082500e-01 1.677561e+03 
1.093900e-01 1.643859e+03 
1.105400e-01 1.611930e+03 
1.116900e-01 1.583824e+03 
1.129600e-01 1.554684e+03 
1.142000e-01 1.529755e+03 
1.153300e-01 1.508673e+03 
1.166400e-01 1.486497e+03 
1.177800e-01 1.468982e+03 
1.190000e-01 1.451296e+03 
1.201200e-01 1.436305e+03 
1.213400e-01 1.420516e+03 
1.227100e-01 1.403484e+03 
1.238900e-01 1.389065e+03 
1.250700e-01 1.374515e+03 
1.263200e-01 1.359075e+03 
1.275500e-01 1.343377e+03 
1.287500e-01 1.327746e+03 
1.299900e-01 1.310904e+03 
1.311300e-01 1.294969e+03 
1.323500e-01 1.277096e+03 
1.335900e-01 1.258481e+03 
1.347100e-01 1.240898e+03 
1.359800e-01 1.220745e+03 
1.372100e-01 1.200362e+03 
1.384300e-01 1.180173e+03 
1.395700e-01 1.160670e+03 
1.407700e-01 1.140517e+03 
1.420300e-01 1.118899e+03 
1.432800e-01 1.097985e+03 
1.444500e-01 1.078522e+03 
1.456300e-01 1.059347e+03 
1.468900e-01 1.039652e+03 
1.480500e-01 1.022030e+03 
1.491700e-01 1.005770e+03 
1.503800e-01 9.890729e+02 
1.516400e-01 9.723261e+02 
1.528200e-01 9.580581e+02 
1.540200e-01 9.438496e+02 
1.551900e-01 9.314065e+02 
1.564300e-01 9.187560e+02 
1.576600e-01 9.070349e+02 
1.588700e-01 8.964191e+02 
1.600900e-01 8.859671e+02 
1.612700e-01 8.769294e+02 
1.625400e-01 8.673832e+02 
1.637600e-01 8.586463e+02 
1.649500e-01 8.504302e+02 
1.662200e-01 8.418128e+02 
1.674000e-01 8.339043e+02 
1.685000e-01 8.266544e+02 
1.697500e-01 8.183181e+02 
1.710300e-01 8.097001e+02 
1.722200e-01 8.018300e+02 
1.734400e-01 7.932251e+02 
1.746400e-01 7.848802e+02 
1.758700e-01 7.762355e+02 
1.770900e-01 7.673239e+02 
1.782700e-01 7.588531e+02 
1.794600e-01 7.500951e+02 
1.807000e-01 7.408868e+02 
1.819100e-01 7.320600e+02 
1.830100e-01 7.238543e+02 
1.842200e-01 7.149251e+02 
1.855000e-01 7.056429e+02 
1.867000e-01 6.969588e+02 
1.879200e-01 6.882833e+02 
1.890900e-01 6.801135e+02 
1.902800e-01 6.719866e+02 
1.915200e-01 6.636630e+02 
1.926900e-01 6.559889e+02 
1.939000e-01 6.483372e+02 
1.951700e-01 6.404423e+02 
1.963100e-01 6.335396e+02 
1.975100e-01 6.265695e+02 
1.987800e-01 6.193136e+02 
2.000100e-01 6.124763e+02 
2.012500e-01 6.058666e+02 
2.023400e-01 6.001435e+02 
2.036100e-01 5.936164e+02 
2.048900e-01 5.873005e+02 
2.060400e-01 5.817123e+02 
2.072200e-01 5.760707e+02 
2.084200e-01 5.705289e+02 
2.096900e-01 5.647525e+02 
2.109200e-01 5.592431e+02 
2.121100e-01 5.540359e+02 
2.132700e-01 5.490339e+02 
2.145200e-01 5.437214e+02 
2.157200e-01 5.387003e+02 
2.168800e-01 5.339165e+02 
2.180700e-01 5.290766e+02 
2.193400e-01 5.239807e+02 
2.206000e-01 5.189899e+02 
2.217500e-01 5.144983e+02 
2.229500e-01 5.098749e+02 
2.241400e-01 5.053364e+02 
2.253500e-01 5.007844e+02 
2.264900e-01 4.965529e+02 
2.277100e-01 4.920854e+02 
2.289900e-01 4.874645e+02 
2.301500e-01 4.833340e+02 
2.313600e-01 4.790823e+02 
2.325600e-01 4.749407e+02 
2.337700e-01 4.708199e+02 
2.350000e-01 4.666869e+02 
2.362000e-01 4.627221e+02 
2.374100e-01 4.587931e+02 
2.386500e-01 4.548197e+02 
2.399100e-01 4.508362e+02 
2.410400e-01 4.473446e+02 
2.422500e-01 4.436564e+02 
2.435000e-01 4.398955e+02 
2.447300e-01 4.362498e+02 
2.458700e-01 4.329408e+02 
2.470600e-01 4.295282e+02 
2.483300e-01 4.259323e+02 
2.495600e-01 4.225041e+02 
2.507600e-01 4.192145e+02 
2.519600e-01 4.159649e+02 
2.532200e-01 4.125949e+02 
2.543700e-01 4.095616e+02 
2.555500e-01 4.064889e+02 
2.568000e-01 4.032731e+02 
2.580100e-01 4.001979e+02 
2.592400e-01 3.971068e+02 
2.604100e-01 3.941997e+02 
2.616100e-01 3.912526e+02 
2.628400e-01 3.882673e+02 
2.640600e-01 3.853324e+02 
2.652200e-01 3.825704e+02 
2.664300e-01 3.797220e+02 
2.676500e-01 3.768833e+02 
2.688400e-01 3.741337e+02 
2.700700e-01 3.713166e+02 
2.712400e-01 3.686671e+02 
2.724800e-01 3.658910e+02 
2.736700e-01 3.632499e+02 
2.748800e-01 3.605871e+02 
2.761000e-01 3.579326e+02 
2.773200e-01 3.553080e+02 
2.785400e-01 3.527080e+02 
2.797000e-01 3.502527e+02 
2.808900e-01 3.477610e+02 
2.821400e-01 3.451727e+02 
2.833900e-01 3.426132e+02 
2.845500e-01 3.402523e+02 
2.857800e-01 3.377759e+02 
2.870300e-01 3.352872e+02 
2.882100e-01 3.329634e+02 
2.893900e-01 3.306599e+02 
2.906300e-01 3.282630e+02 
2.918900e-01 3.258544e+02 
2.930500e-01 3.236606e+02 
2.942500e-01 3.214136e+02 
2.954200e-01 3.192421e+02 
2.966500e-01 3.169831e+02 
2.978900e-01 3.147302e+02 
2.990400e-01 3.126624e+02 
3.002700e-01 3.104721e+02 
3.015100e-01 3.082869e+02 
3.026800e-01 3.062462e+02 
3.038500e-01 3.042258e+02 
3.050300e-01 3.022085e+02 
3.062600e-01 3.001269e+02 
3.075000e-01 2.980503e+02 
3.087000e-01 2.960612e+02 
3.099100e-01 2.940757e+02 
3.111200e-01 2.921117e+02 
3.123100e-01 2.902019e+02 
3.135300e-01 2.882635e+02 
3.147300e-01 2.863759e+02 
3.159900e-01 2.844139e+02 
3.171800e-01 2.825819e+02 
3.183700e-01 2.807692e+02 
3.196300e-01 2.788690e+02 
3.208400e-01 2.770624e+02 
3.220300e-01 2.753028e+02 
3.232000e-01 2.735938e+02 
3.244300e-01 2.718161e+02 
3.256700e-01 2.700416e+02 
3.269200e-01 2.682704e+02 
3.280800e-01 2.666423e+02 
3.292500e-01 2.650212e+02 
3.304800e-01 2.633349e+02 
3.317100e-01 2.616647e+02 
3.328900e-01 2.600774e+02 
3.340700e-01 2.585046e+02 
3.353600e-01 2.568083e+02 
3.365300e-01 2.552869e+02 
3.377100e-01 2.537662e+02 
3.389200e-01 2.522211e+02 
3.401600e-01 2.506524e+02 
3.413700e-01 2.491416e+02 
3.425300e-01 2.477104e+02 
3.437700e-01 2.461941e+02 
3.449800e-01 2.447281e+02 
3.461800e-01 2.432873e+02 
3.473600e-01 2.418858e+02 
3.485800e-01 2.404565e+02 
3.498100e-01 2.390285e+02 
3.510200e-01 2.376363e+02 
3.522000e-01 2.362905e+02 
3.533900e-01 2.349449e+02 
3.546400e-01 2.335530e+02 
3.558400e-01 2.322290e+02 
3.570600e-01 2.308947e+02 
3.582700e-01 2.295829e+02 
3.595000e-01 2.282611e+02 
3.607100e-01 2.269768e+02 
3.618900e-01 2.257386e+02 
3.631200e-01 2.244590e+02 
3.643200e-01 2.232212e+02 
3.655500e-01 2.219634e+02 
3.667300e-01 2.207669e+02 
3.679500e-01 2.195493e+02 
3.691900e-01 2.183224e+02 
3.703600e-01 2.171744e+02 
3.715700e-01 2.159969e+02 
3.727700e-01 2.148388e+02 
3.739900e-01 2.136739e+02 
3.752000e-01 2.125332e+02 
3.763900e-01 2.114205e+02 
3.775800e-01 2.103168e+02 
3.788200e-01 2.091762e+02 
3.800300e-01 2.080723e+02 
3.812100e-01 2.070084e+02 
3.824200e-01 2.059287e+02 
3.836100e-01 2.048754e+02 
3.848600e-01 2.037780e+02 
3.860400e-01 2.027504e+02 
3.872400e-01 2.017135e+02 
3.884600e-01 2.006728e+02 
3.896500e-01 1.996676e+02 
3.908700e-01 1.986451e+02 
3.920600e-01 1.976557e+02 
3.933100e-01 1.966245e+02 
3.945300e-01 1.956262e+02 
3.957200e-01 1.946646e+02 
3.969300e-01 1.936957e+02 
3.981700e-01 1.927105e+02 
3.993500e-01 1.917803e+02 
4.094840e-01 1.840991e+02 
4.272360e-01 1.718736e+02 
4.454600e-01 1.607091e+02 
4.630560e-01 1.510592e+02 
4.804610e-01 1.424574e+02 
4.980690e-01 1.345806e+02 
5.159230e-01 1.273342e+02 
5.317440e-01 1.214598e+02 
5.489640e-01 1.155880e+02 
5.671990e-01 1.098965e+02 
5.838690e-01 1.051119e+02 
6.018840e-01 1.003426e+02 
6.202330e-01 9.587622e+01 
6.379250e-01 9.189462e+01 
6.545410e-01 8.842824e+01 
6.714560e-01 8.513508e+01 
6.892080e-01 8.191666e+01 
7.066010e-01 7.897904e+01 
7.240540e-01 7.622146e+01 
7.420450e-01 7.356766e+01 
7.593780e-01 7.117450e+01 
7.764720e-01 6.895383e+01 
7.942840e-01 6.677898e+01 
8.116170e-01 6.478776e+01 
8.288310e-01 6.292420e+01 
8.462240e-01 6.114467e+01 
8.631980e-01 5.950109e+01 
8.810700e-01 5.786212e+01 
8.989410e-01 5.631068e+01 
9.166330e-01 5.485438e+01 
9.345640e-01 5.345274e+01 
9.515980e-01 5.218644e+01 
9.688720e-01 5.096181e+01 
9.865640e-01 4.976672e+01 
1.031870e+00 4.694398e+01 
1.063490e+00 4.515505e+01 
1.097920e+00 4.335649e+01 
1.134370e+00 4.159867e+01 
1.167730e+00 4.010870e+01 
1.203830e+00 3.860970e+01 
1.240470e+00 3.719486e+01 
1.275790e+00 3.592195e+01 
1.309140e+00 3.479508e+01 
1.342970e+00 3.371723e+01 
1.378420e+00 3.265361e+01 
1.413200e+00 3.166992e+01 
1.448110e+00 3.073517e+01 
1.484090e+00 2.982437e+01 
1.518820e+00 2.899045e+01 
1.552880e+00 2.821281e+01 
1.588630e+00 2.743539e+01 
1.623230e+00 2.671925e+01 
1.657720e+00 2.603788e+01 
1.692450e+00 2.538254e+01 
1.726400e+00 2.476835e+01 
1.762200e+00 2.414765e+01 
1.797880e+00 2.355631e+01 
1.833270e+00 2.299386e+01 
1.869070e+00 2.244751e+01 
1.903200e+00 2.194736e+01 
1.937740e+00 2.145982e+01 
1.973190e+00 2.097795e+01 
2.007440e+00 2.052933e+01 
2.042160e+00 2.009088e+01 
2.077900e+00 1.965536e+01 
2.112390e+00 1.924959e+01 
2.146220e+00 1.886432e+01 
2.181600e+00 1.847511e+01 
2.216930e+00 1.809912e+01 
2.250760e+00 1.775053e+01 
2.286500e+00 1.739387e+01 
2.321770e+00 1.705303e+01 
2.355950e+00 1.673285e+01 
2.391280e+00 1.641130e+01 
2.426240e+00 1.610261e+01 
2.460670e+00 1.580761e+01 
2.495640e+00 1.551683e+01 
2.531080e+00 1.523005e+01 
2.566220e+00 1.495369e+01 
2.600830e+00 1.468917e+01 
2.635080e+00 1.443466e+01 
2.670340e+00 1.417876e+01 
2.705970e+00 1.392745e+01 
2.740040e+00 1.369370e+01 
2.774520e+00 1.346274e+01 
2.809730e+00 1.323274e+01 
2.844390e+00 1.301226e+01 
2.879960e+00 1.279146e+01 
2.914860e+00 1.258003e+01 
2.949410e+00 1.237605e+01 
2.984440e+00 1.217390e+01 
3.019760e+00 1.197501e+01 
3.054730e+00 1.178307e+01 
3.089030e+00 1.159840e+01 
3.124060e+00 1.141442e+01 
3.159560e+00 1.123229e+01 
3.194710e+00 1.105589e+01 
3.229010e+00 1.088794e+01 
3.263320e+00 1.072281e+01 
3.297930e+00 1.056019e+01 
3.332830e+00 1.039967e+01 
3.368040e+00 1.024117e+01 
3.403300e+00 1.008599e+01 
3.438450e+00 9.934303e+00 
3.473060e+00 9.788468e+00 
3.508440e+00 9.641909e+00 
3.543110e+00 9.501632e+00 
3.577470e+00 9.364915e+00 
3.613040e+00 9.226572e+00 
3.648120e+00 9.092786e+00 
3.682910e+00 8.962839e+00 
3.718050e+00 8.833883e+00 
3.753320e+00 8.707160e+00 
3.787980e+00 8.585023e+00 
3.822290e+00 8.466501e+00 
3.857020e+00 8.348678e+00 
3.891920e+00 8.232604e+00 
3.926650e+00 8.119058e+00 
3.961970e+00 8.005905e+00 
3.997360e+00 7.894450e+00 
4.031670e+00 7.788638e+00 
4.066330e+00 7.683537e+00 
4.101420e+00 7.579387e+00 
4.136200e+00 7.477487e+00 
4.170810e+00 7.378223e+00 
4.206250e+00 7.278234e+00 
4.241580e+00 7.180576e+00 
4.276300e+00 7.086136e+00 
4.310970e+00 6.993505e+00 
4.346120e+00 6.901300e+00 
4.380600e+00 6.812332e+00 
4.414730e+00 6.725997e+00 
4.450350e+00 6.637134e+00 
4.485320e+00 6.551646e+00 
4.519810e+00 6.468588e+00 
4.555430e+00 6.384319e+00 
4.590870e+00 6.302005e+00 
4.625480e+00 6.222900e+00 
4.659910e+00 6.145705e+00 
4.695230e+00 6.067607e+00 
4.729960e+00 5.992213e+00 
4.764450e+00 5.918562e+00 
4.799530e+00 5.844751e+00 
4.834910e+00 5.771709e+00 
4.869700e+00 5.700925e+00 
4.904370e+00 5.631628e+00 
4.939450e+00 5.562706e+00 
4.973940e+00 5.495944e+00 
5.008430e+00 5.430374e+00 
5.043810e+00 5.364104e+00 
5.078840e+00 5.299545e+00 
5.113500e+00 5.236800e+00 
5.148890e+00 5.173533e+00 
5.184210e+00 5.111500e+00 
5.219060e+00 5.051312e+00 
5.253660e+00 4.992436e+00 
5.288570e+00 4.934053e+00 
5.323420e+00 4.876659e+00 
5.358440e+00 4.819847e+00 
5.393590e+00 4.763796e+00 
5.428310e+00 4.709216e+00 
5.462800e+00 4.655820e+00 
5.497640e+00 4.602777e+00 
5.532670e+00 4.550188e+00 
5.567280e+00 4.499041e+00 
5.602000e+00 4.448567e+00 
5.637270e+00 4.398010e+00 
5.672410e+00 4.348438e+00 
5.707020e+00 4.300401e+00 
5.742040e+00 4.252476e+00 
5.777430e+00 4.204805e+00 
5.812210e+00 4.158705e+00 
5.846820e+00 4.113449e+00 
5.881610e+00 4.068643e+00 
5.916510e+00 4.024398e+00 
5.951600e+00 3.980520e+00 
5.986560e+00 3.937447e+00 
6.021830e+00 3.894666e+00 
6.056490e+00 3.853235e+00 
6.091160e+00 3.812390e+00 
6.125830e+00 3.772161e+00 
6.161090e+00 3.731851e+00 
6.195760e+00 3.692780e+00 
6.230420e+00 3.654300e+00 
6.265690e+00 3.615724e+00 
6.300950e+00 3.577674e+00 
6.335620e+00 3.540814e+00 
6.370880e+00 3.503877e+00 
6.405550e+00 3.468075e+00 
6.440220e+00 3.432785e+00 
6.475480e+00 3.397414e+00 
6.510150e+00 3.363125e+00 
6.544810e+00 3.329311e+00 
6.580080e+00 3.295392e+00 
6.614750e+00 3.262524e+00 
6.649410e+00 3.230127e+00 
6.684080e+00 3.198173e+00 
6.719340e+00 3.166130e+00 
6.754010e+00 3.135064e+00 
6.788680e+00 3.104428e+00 
6.823940e+00 3.073701e+00 
6.859800e+00 3.042888e+00 
6.894470e+00 3.013512e+00 
6.929140e+00 2.984534e+00 
6.963800e+00 2.955955e+00 
6.999070e+00 2.927267e+00 
7.033730e+00 2.899487e+00 
7.068400e+00 2.872068e+00 
7.103660e+00 2.844553e+00 
7.138330e+00 2.817866e+00 
7.173600e+00 2.791092e+00 
7.208260e+00 2.765126e+00 
7.243530e+00 2.739049e+00 
7.277600e+00 2.714194e+00 
7.312860e+00 2.688811e+00 
7.348120e+00 2.663758e+00 
7.382790e+00 2.639441e+00 
7.417460e+00 2.615461e+00 
7.452720e+00 2.591399e+00 
7.487390e+00 2.568039e+00 
7.522650e+00 2.544581e+00 
7.557320e+00 2.521850e+00 
7.591990e+00 2.499417e+00 
7.627250e+00 2.476886e+00 
7.662510e+00 2.454636e+00 
7.697180e+00 2.433065e+00 
7.731850e+00 2.411770e+00 
7.766510e+00 2.390739e+00 
7.801180e+00 2.369957e+00 
7.836440e+00 2.349112e+00 
7.871110e+00 2.328885e+00 
7.906380e+00 2.308555e+00 
7.941040e+00 2.288817e+00 
7.976310e+00 2.268990e+00 
8.011570e+00 2.249429e+00 
8.046240e+00 2.230424e+00 
8.080900e+00 2.211646e+00 
8.115570e+00 2.193096e+00 
8.150830e+00 2.174512e+00 
8.185500e+00 2.156451e+00 
8.220770e+00 2.138290e+00 
8.255430e+00 2.120649e+00 
8.290100e+00 2.103251e+00 
8.324770e+00 2.086055e+00 
8.359430e+00 2.069059e+00 
8.394700e+00 2.051960e+00 
8.429960e+00 2.035095e+00 
8.464630e+00 2.018732e+00 
8.499890e+00 2.002278e+00 
8.534560e+00 1.986280e+00 
8.569200e+00 1.970472e+00 
