# Parameters:
# omega_b = 0.021642, omega_m = 0.127992, n_s = 1.018504, h = 68.937008, w = -1.000000, sigma_8 = 0.750394
# z = 1.500000
#
# k[1/Mpc] # P(k):
8.694000e-04 3.487951e+03 
2.077466e-03 7.721399e+03 
3.285532e-03 1.108331e+04 
4.493598e-03 1.367345e+04 
5.701664e-03 1.559458e+04 
6.909730e-03 1.694783e+04 
8.117797e-03 1.785231e+04 
9.325863e-03 1.837105e+04 
1.053393e-02 1.856950e+04 
1.174199e-02 1.850889e+04 
1.295006e-02 1.822805e+04 
1.415813e-02 1.777931e+04 
1.536619e-02 1.720846e+04 
1.657426e-02 1.654646e+04 
1.778233e-02 1.582133e+04 
1.899039e-02 1.507377e+04 
2.019846e-02 1.432627e+04 
2.140652e-02 1.359785e+04 
2.261459e-02 1.289931e+04 
2.382266e-02 1.224311e+04 
2.503072e-02 1.163753e+04 
2.623879e-02 1.108515e+04 
2.744685e-02 1.058715e+04 
2.865492e-02 1.014279e+04 
2.986299e-02 9.748594e+03 
3.100100e-02 9.421728e+03 
3.220400e-02 9.118068e+03 
3.288100e-02 8.965507e+03 
3.424300e-02 8.691225e+03 
3.555100e-02 8.462034e+03 
3.686000e-02 8.260124e+03 
3.795000e-02 8.107564e+03 
3.929100e-02 7.934180e+03 
4.039800e-02 7.797526e+03 
4.164000e-02 7.647450e+03 
4.294400e-02 7.485433e+03 
4.415000e-02 7.332907e+03 
4.542900e-02 7.159868e+03 
4.660900e-02 6.994491e+03 
4.782300e-02 6.809204e+03 
4.892900e-02 6.634249e+03 
5.031200e-02 6.405240e+03 
5.155900e-02 6.189573e+03 
5.238100e-02 6.044732e+03 
5.378200e-02 5.795749e+03 
5.513400e-02 5.555038e+03 
5.627600e-02 5.354757e+03 
5.735300e-02 5.171002e+03 
5.870100e-02 4.950637e+03 
5.988700e-02 4.767733e+03 
6.113500e-02 4.587074e+03 
6.225900e-02 4.435641e+03 
6.340100e-02 4.292649e+03 
6.480200e-02 4.130879e+03 
6.601100e-02 4.004599e+03 
6.725500e-02 3.886482e+03 
6.829100e-02 3.798022e+03 
6.958600e-02 3.697527e+03 
7.071100e-02 3.620043e+03 
7.192300e-02 3.545403e+03 
7.307400e-02 3.482154e+03 
7.412300e-02 3.430159e+03 
7.550400e-02 3.369316e+03 
7.663100e-02 3.324103e+03 
7.791200e-02 3.277209e+03 
7.912700e-02 3.235139e+03 
8.027600e-02 3.196366e+03 
8.138400e-02 3.159224e+03 
8.272200e-02 3.113710e+03 
8.406100e-02 3.066533e+03 
8.534100e-02 3.018215e+03 
8.653800e-02 2.969759e+03 
8.759800e-02 2.924908e+03 
8.900300e-02 2.862135e+03 
9.009000e-02 2.810651e+03 
9.113300e-02 2.758671e+03 
9.239600e-02 2.694344e+03 
9.358000e-02 2.632159e+03 
9.496100e-02 2.557468e+03 
9.608400e-02 2.496722e+03 
9.727500e-02 2.432844e+03 
9.852600e-02 2.365752e+03 
9.973800e-02 2.302762e+03 
1.009000e-01 2.244202e+03 
1.020900e-01 2.187203e+03 
1.034000e-01 2.127671e+03 
1.046000e-01 2.076157e+03 
1.057200e-01 2.032449e+03 
1.069100e-01 1.988564e+03 
1.082500e-01 1.944354e+03 
1.093900e-01 1.910397e+03 
1.105400e-01 1.878520e+03 
1.116900e-01 1.850994e+03 
1.129600e-01 1.822562e+03 
1.142000e-01 1.798405e+03 
1.153300e-01 1.777836e+03 
1.166400e-01 1.755982e+03 
1.177800e-01 1.738128e+03 
1.190000e-01 1.719807e+03 
1.201200e-01 1.703101e+03 
1.213400e-01 1.685286e+03 
1.227100e-01 1.664137e+03 
1.238900e-01 1.645870e+03 
1.250700e-01 1.626305e+03 
1.263200e-01 1.605265e+03 
1.275500e-01 1.583273e+03 
1.287500e-01 1.561358e+03 
1.299900e-01 1.537725e+03 
1.311300e-01 1.515683e+03 
1.323500e-01 1.491412e+03 
1.335900e-01 1.466719e+03 
1.347100e-01 1.444120e+03 
1.359800e-01 1.418795e+03 
1.372100e-01 1.394270e+03 
1.384300e-01 1.370442e+03 
1.395700e-01 1.348486e+03 
1.407700e-01 1.325918e+03 
1.420300e-01 1.302989e+03 
1.432800e-01 1.280783e+03 
1.444500e-01 1.261055e+03 
1.456300e-01 1.241589e+03 
1.468900e-01 1.221937e+03 
1.480500e-01 1.204436e+03 
1.491700e-01 1.188286e+03 
1.503800e-01 1.171711e+03 
1.516400e-01 1.154996e+03 
1.528200e-01 1.140456e+03 
1.540200e-01 1.125961e+03 
1.551900e-01 1.112753e+03 
1.564300e-01 1.099185e+03 
1.576600e-01 1.086256e+03 
1.588700e-01 1.074101e+03 
1.600900e-01 1.062091e+03 
1.612700e-01 1.050960e+03 
1.625400e-01 1.039203e+03 
1.637600e-01 1.028089e+03 
1.649500e-01 1.017427e+03 
1.662200e-01 1.006207e+03 
1.674000e-01 9.957001e+02 
1.685000e-01 9.860704e+02 
1.697500e-01 9.750570e+02 
1.710300e-01 9.637299e+02 
1.722200e-01 9.533891e+02 
1.734400e-01 9.424281e+02 
1.746400e-01 9.318146e+02 
1.758700e-01 9.209687e+02 
1.770900e-01 9.100786e+02 
1.782700e-01 8.997291e+02 
1.794600e-01 8.892766e+02 
1.807000e-01 8.784456e+02 
1.819100e-01 8.680629e+02 
1.830100e-01 8.586738e+02 
1.842200e-01 8.484979e+02 
1.855000e-01 8.379265e+02 
1.867000e-01 8.282555e+02 
1.879200e-01 8.185898e+02 
1.890900e-01 8.095046e+02 
1.902800e-01 8.005720e+02 
1.915200e-01 7.914184e+02 
1.926900e-01 7.829866e+02 
1.939000e-01 7.746141e+02 
1.951700e-01 7.659709e+02 
1.963100e-01 7.584072e+02 
1.975100e-01 7.507584e+02 
1.987800e-01 7.427922e+02 
2.000100e-01 7.352660e+02 
2.012500e-01 7.279499e+02 
2.023400e-01 7.216129e+02 
2.036100e-01 7.143662e+02 
2.048900e-01 7.072869e+02 
2.060400e-01 7.010213e+02 
2.072200e-01 6.946875e+02 
2.084200e-01 6.883848e+02 
2.096900e-01 6.818136e+02 
2.109200e-01 6.755446e+02 
2.121100e-01 6.695365e+02 
2.132700e-01 6.637599e+02 
2.145200e-01 6.576236e+02 
2.157200e-01 6.517676e+02 
2.168800e-01 6.461620e+02 
2.180700e-01 6.404901e+02 
2.193400e-01 6.344870e+02 
2.206000e-01 6.285515e+02 
2.217500e-01 6.232092e+02 
2.229500e-01 6.177097e+02 
2.241400e-01 6.122303e+02 
2.253500e-01 6.067324e+02 
2.264900e-01 6.016215e+02 
2.277100e-01 5.961838e+02 
2.289900e-01 5.905135e+02 
2.301500e-01 5.854450e+02 
2.313600e-01 5.802275e+02 
2.325600e-01 5.750621e+02 
2.337700e-01 5.699233e+02 
2.350000e-01 5.647700e+02 
2.362000e-01 5.597932e+02 
2.374100e-01 5.548221e+02 
2.386500e-01 5.497957e+02 
2.399100e-01 5.447575e+02 
2.410400e-01 5.402962e+02 
2.422500e-01 5.355789e+02 
2.435000e-01 5.307697e+02 
2.447300e-01 5.261040e+02 
2.458700e-01 5.218499e+02 
2.470600e-01 5.174637e+02 
2.483300e-01 5.128429e+02 
2.495600e-01 5.084412e+02 
2.507600e-01 5.042217e+02 
2.519600e-01 5.000543e+02 
2.532200e-01 4.957338e+02 
2.543700e-01 4.918657e+02 
2.555500e-01 4.879618e+02 
2.568000e-01 4.838770e+02 
2.580100e-01 4.799717e+02 
2.592400e-01 4.760847e+02 
2.604100e-01 4.724463e+02 
2.616100e-01 4.687583e+02 
2.628400e-01 4.650232e+02 
2.640600e-01 4.613961e+02 
2.652200e-01 4.580004e+02 
2.664300e-01 4.544988e+02 
2.676500e-01 4.510095e+02 
2.688400e-01 4.476660e+02 
2.700700e-01 4.442628e+02 
2.712400e-01 4.410624e+02 
2.724800e-01 4.377089e+02 
2.736700e-01 4.345424e+02 
2.748800e-01 4.313741e+02 
2.761000e-01 4.282155e+02 
2.773200e-01 4.250926e+02 
2.785400e-01 4.220100e+02 
2.797000e-01 4.191221e+02 
2.808900e-01 4.161912e+02 
2.821400e-01 4.131466e+02 
2.833900e-01 4.101367e+02 
2.845500e-01 4.073819e+02 
2.857800e-01 4.044922e+02 
2.870300e-01 4.015879e+02 
2.882100e-01 3.988758e+02 
2.893900e-01 3.961962e+02 
2.906300e-01 3.934127e+02 
2.918900e-01 3.906153e+02 
2.930500e-01 3.880670e+02 
2.942500e-01 3.854585e+02 
2.954200e-01 3.829430e+02 
2.966500e-01 3.803260e+02 
2.978900e-01 3.777156e+02 
2.990400e-01 3.753194e+02 
3.002700e-01 3.727833e+02 
3.015100e-01 3.702539e+02 
3.026800e-01 3.678916e+02 
3.038500e-01 3.655525e+02 
3.050300e-01 3.632167e+02 
3.062600e-01 3.608077e+02 
3.075000e-01 3.584040e+02 
3.087000e-01 3.561014e+02 
3.099100e-01 3.538027e+02 
3.111200e-01 3.515285e+02 
3.123100e-01 3.493169e+02 
3.135300e-01 3.470718e+02 
3.147300e-01 3.448852e+02 
3.159900e-01 3.426122e+02 
3.171800e-01 3.404891e+02 
3.183700e-01 3.383879e+02 
3.196300e-01 3.361848e+02 
3.208400e-01 3.340901e+02 
3.220300e-01 3.320496e+02 
3.232000e-01 3.300668e+02 
3.244300e-01 3.280039e+02 
3.256700e-01 3.259443e+02 
3.269200e-01 3.238884e+02 
3.280800e-01 3.219984e+02 
3.292500e-01 3.201156e+02 
3.304800e-01 3.181566e+02 
3.317100e-01 3.162162e+02 
3.328900e-01 3.143718e+02 
3.340700e-01 3.125441e+02 
3.353600e-01 3.105718e+02 
3.365300e-01 3.088022e+02 
3.377100e-01 3.070334e+02 
3.389200e-01 3.052359e+02 
3.401600e-01 3.034108e+02 
3.413700e-01 3.016525e+02 
3.425300e-01 2.999860e+02 
3.437700e-01 2.982204e+02 
3.449800e-01 2.965131e+02 
3.461800e-01 2.948350e+02 
3.473600e-01 2.932023e+02 
3.485800e-01 2.915366e+02 
3.498100e-01 2.898723e+02 
3.510200e-01 2.882495e+02 
3.522000e-01 2.866806e+02 
3.533900e-01 2.851119e+02 
3.546400e-01 2.834882e+02 
3.558400e-01 2.819436e+02 
3.570600e-01 2.803868e+02 
3.582700e-01 2.788561e+02 
3.595000e-01 2.773135e+02 
3.607100e-01 2.758145e+02 
3.618900e-01 2.743691e+02 
3.631200e-01 2.728751e+02 
3.643200e-01 2.714299e+02 
3.655500e-01 2.699611e+02 
3.667300e-01 2.685638e+02 
3.679500e-01 2.671414e+02 
3.691900e-01 2.657080e+02 
3.703600e-01 2.643666e+02 
3.715700e-01 2.629906e+02 
3.727700e-01 2.616372e+02 
3.739900e-01 2.602758e+02 
3.752000e-01 2.589424e+02 
3.763900e-01 2.576417e+02 
3.775800e-01 2.563514e+02 
3.788200e-01 2.550178e+02 
3.800300e-01 2.537271e+02 
3.812100e-01 2.524829e+02 
3.824200e-01 2.512203e+02 
3.836100e-01 2.499884e+02 
3.848600e-01 2.487047e+02 
3.860400e-01 2.475026e+02 
3.872400e-01 2.462896e+02 
3.884600e-01 2.450719e+02 
3.896500e-01 2.438957e+02 
3.908700e-01 2.426992e+02 
3.920600e-01 2.415411e+02 
3.933100e-01 2.403343e+02 
3.945300e-01 2.391657e+02 
3.957200e-01 2.380402e+02 
3.969300e-01 2.369063e+02 
3.981700e-01 2.357532e+02 
3.993500e-01 2.346643e+02 
4.094840e-01 2.256678e+02 
4.272360e-01 2.113374e+02 
4.454600e-01 1.982291e+02 
4.630560e-01 1.868769e+02 
4.804610e-01 1.767340e+02 
4.980690e-01 1.674235e+02 
5.159230e-01 1.588333e+02 
5.317440e-01 1.518532e+02 
5.489640e-01 1.448566e+02 
5.671990e-01 1.380569e+02 
5.838690e-01 1.323293e+02 
6.018840e-01 1.266096e+02 
6.202330e-01 1.212414e+02 
6.379250e-01 1.164487e+02 
6.545410e-01 1.122696e+02 
6.714560e-01 1.082953e+02 
6.892080e-01 1.044065e+02 
7.066010e-01 1.008541e+02 
7.240540e-01 9.751437e+01 
7.420450e-01 9.429828e+01 
7.593780e-01 9.139443e+01 
7.764720e-01 8.869756e+01 
7.942840e-01 8.605262e+01 
8.116170e-01 8.362929e+01 
8.288310e-01 8.135766e+01 
8.462240e-01 7.918689e+01 
8.631980e-01 7.717870e+01 
8.810700e-01 7.517318e+01 
8.989410e-01 7.327106e+01 
9.166330e-01 7.148317e+01 
9.345640e-01 6.976054e+01 
9.515980e-01 6.820072e+01 
9.688720e-01 6.668920e+01 
9.865640e-01 6.521154e+01 
1.031870e+00 6.170888e+01 
1.063490e+00 5.947906e+01 
1.097920e+00 5.722893e+01 
1.134370e+00 5.502015e+01 
1.167730e+00 5.314041e+01 
1.203830e+00 5.123947e+01 
1.240470e+00 4.943857e+01 
1.275790e+00 4.781126e+01 
1.309140e+00 4.636550e+01 
1.342970e+00 4.497541e+01 
1.378420e+00 4.359990e+01 
1.413200e+00 4.232258e+01 
1.448110e+00 4.110487e+01 
1.484090e+00 3.991408e+01 
1.518820e+00 3.882015e+01 
1.552880e+00 3.779684e+01 
1.588630e+00 3.677096e+01 
1.623230e+00 3.582339e+01 
1.657720e+00 3.491897e+01 
1.692450e+00 3.404741e+01 
1.726400e+00 3.322857e+01 
1.762200e+00 3.239903e+01 
1.797880e+00 3.160660e+01 
1.833270e+00 3.085183e+01 
1.869070e+00 3.011696e+01 
1.903200e+00 2.944283e+01 
1.937740e+00 2.878489e+01 
1.973190e+00 2.813368e+01 
2.007440e+00 2.752667e+01 
2.042160e+00 2.693215e+01 
2.077900e+00 2.634080e+01 
2.112390e+00 2.578950e+01 
2.146220e+00 2.526530e+01 
2.181600e+00 2.473508e+01 
2.216930e+00 2.422231e+01 
2.250760e+00 2.374660e+01 
2.286500e+00 2.325955e+01 
2.321770e+00 2.279371e+01 
2.355950e+00 2.235597e+01 
2.391280e+00 2.191559e+01 
2.426240e+00 2.149270e+01 
2.460670e+00 2.108850e+01 
2.495640e+00 2.069001e+01 
2.531080e+00 2.029666e+01 
2.566220e+00 1.991734e+01 
2.600830e+00 1.955420e+01 
2.635080e+00 1.920481e+01 
2.670340e+00 1.885351e+01 
2.705970e+00 1.850838e+01 
2.740040e+00 1.818729e+01 
2.774520e+00 1.787003e+01 
2.809730e+00 1.755398e+01 
2.844390e+00 1.725104e+01 
2.879960e+00 1.694788e+01 
2.914860e+00 1.665748e+01 
2.949410e+00 1.637733e+01 
2.984440e+00 1.609972e+01 
3.019760e+00 1.582652e+01 
3.054730e+00 1.556286e+01 
3.089030e+00 1.530948e+01 
3.124060e+00 1.505709e+01 
3.159560e+00 1.480732e+01 
3.194710e+00 1.456548e+01 
3.229010e+00 1.433527e+01 
3.263320e+00 1.410904e+01 
3.297930e+00 1.388629e+01 
3.332830e+00 1.366650e+01 
3.368040e+00 1.344965e+01 
3.403300e+00 1.323746e+01 
3.438450e+00 1.303014e+01 
3.473060e+00 1.283087e+01 
3.508440e+00 1.263072e+01 
3.543110e+00 1.243924e+01 
3.577470e+00 1.225294e+01 
3.613040e+00 1.206444e+01 
3.648120e+00 1.188213e+01 
3.682910e+00 1.170520e+01 
3.718050e+00 1.152986e+01 
3.753320e+00 1.135761e+01 
3.787980e+00 1.119166e+01 
3.822290e+00 1.103073e+01 
3.857020e+00 1.087089e+01 
3.891920e+00 1.071351e+01 
3.926650e+00 1.055969e+01 
3.961970e+00 1.040652e+01 
3.997360e+00 1.025586e+01 
4.031670e+00 1.011287e+01 
4.066330e+00 9.970912e+00 
4.101420e+00 9.830278e+00 
4.136200e+00 9.692937e+00 
4.170810e+00 9.559179e+00 
4.206250e+00 9.424586e+00 
4.241580e+00 9.293181e+00 
4.276300e+00 9.166268e+00 
4.310970e+00 9.041885e+00 
4.346120e+00 8.918146e+00 
4.380600e+00 8.798849e+00 
4.414730e+00 8.683113e+00 
4.450350e+00 8.564198e+00 
4.485320e+00 8.449827e+00 
4.519810e+00 8.338855e+00 
4.555430e+00 8.226345e+00 
4.590870e+00 8.116496e+00 
4.625480e+00 8.011010e+00 
4.659910e+00 7.908091e+00 
4.695230e+00 7.804188e+00 
4.729960e+00 7.703935e+00 
4.764450e+00 7.606072e+00 
4.799530e+00 7.508106e+00 
4.834910e+00 7.411182e+00 
4.869700e+00 7.317386e+00 
4.904370e+00 7.225599e+00 
4.939450e+00 7.134361e+00 
4.973940e+00 7.046089e+00 
5.008430e+00 6.959410e+00 
5.043810e+00 6.871898e+00 
5.078840e+00 6.786705e+00 
5.113500e+00 6.703923e+00 
5.148890e+00 6.620623e+00 
5.184210e+00 6.538969e+00 
5.219060e+00 6.459785e+00 
5.253660e+00 6.382414e+00 
5.288570e+00 6.305704e+00 
5.323420e+00 6.230352e+00 
5.358440e+00 6.155828e+00 
5.393590e+00 6.082315e+00 
5.428310e+00 6.010829e+00 
5.462800e+00 5.940952e+00 
5.497640e+00 5.871547e+00 
5.532670e+00 5.802839e+00 
5.567280e+00 5.736052e+00 
5.602000e+00 5.670156e+00 
5.637270e+00 5.604224e+00 
5.672410e+00 5.539597e+00 
5.707020e+00 5.476982e+00 
5.742040e+00 5.414611e+00 
5.777430e+00 5.352598e+00 
5.812210e+00 5.292636e+00 
5.846820e+00 5.233831e+00 
5.881610e+00 5.175632e+00 
5.916510e+00 5.118170e+00 
5.951600e+00 5.061257e+00 
5.986560e+00 5.005424e+00 
6.021830e+00 4.949976e+00 
6.056490e+00 4.896330e+00 
6.091160e+00 4.843487e+00 
6.125830e+00 4.791448e+00 
6.161090e+00 4.739325e+00 
6.195760e+00 4.688844e+00 
6.230420e+00 4.639133e+00 
6.265690e+00 4.589307e+00 
6.300950e+00 4.540237e+00 
6.335620e+00 4.492705e+00 
6.370880e+00 4.445080e+00 
6.405550e+00 4.398954e+00 
6.440220e+00 4.353504e+00 
6.475480e+00 4.307953e+00 
6.510150e+00 4.263821e+00 
6.544810e+00 4.220348e+00 
6.580080e+00 4.176745e+00 
6.614750e+00 4.134496e+00 
6.649410e+00 4.092886e+00 
6.684080e+00 4.051854e+00 
6.719340e+00 4.010712e+00 
6.754010e+00 3.970843e+00 
6.788680e+00 3.931568e+00 
6.823940e+00 3.892180e+00 
6.859800e+00 3.852684e+00 
6.894470e+00 3.815055e+00 
6.929140e+00 3.777947e+00 
6.963800e+00 3.741352e+00 
6.999070e+00 3.704621e+00 
7.033730e+00 3.669083e+00 
7.068400e+00 3.634008e+00 
7.103660e+00 3.598813e+00 
7.138330e+00 3.564688e+00 
7.173600e+00 3.530472e+00 
7.208260e+00 3.497291e+00 
7.243530e+00 3.463970e+00 
7.277600e+00 3.432225e+00 
7.312860e+00 3.399818e+00 
7.348120e+00 3.367834e+00 
7.382790e+00 3.336792e+00 
7.417460e+00 3.306207e+00 
7.452720e+00 3.275531e+00 
7.487390e+00 3.245753e+00 
7.522650e+00 3.215852e+00 
7.557320e+00 3.186881e+00 
7.591990e+00 3.158292e+00 
7.627250e+00 3.129581e+00 
7.662510e+00 3.101229e+00 
7.697180e+00 3.073757e+00 
7.731850e+00 3.046642e+00 
7.766510e+00 3.019866e+00 
7.801180e+00 2.993407e+00 
7.836440e+00 2.966871e+00 
7.871110e+00 2.941124e+00 
7.906380e+00 2.915248e+00 
7.941040e+00 2.890125e+00 
7.976310e+00 2.864898e+00 
8.011570e+00 2.840020e+00 
8.046240e+00 2.815849e+00 
8.080900e+00 2.791968e+00 
8.115570e+00 2.768380e+00 
8.150830e+00 2.744749e+00 
8.185500e+00 2.721785e+00 
8.220770e+00 2.698695e+00 
8.255430e+00 2.676267e+00 
8.290100e+00 2.654160e+00 
8.324770e+00 2.632313e+00 
8.359430e+00 2.610720e+00 
8.394700e+00 2.588998e+00 
8.429960e+00 2.567573e+00 
8.464630e+00 2.546788e+00 
8.499890e+00 2.525888e+00 
8.534560e+00 2.505568e+00 
8.569200e+00 2.485490e+00 
