# Parameters:
# omega_b = 0.023169, omega_m = 0.126890, n_s = 0.964961, h = 72.716535, w = -1.000000, sigma_8 = 0.756693
# z = 1.500000
#
# k[1/Mpc] # P(k):
8.694000e-04 4.831921e+03 
2.077466e-03 1.021741e+04 
3.285532e-03 1.429570e+04 
4.493598e-03 1.732741e+04 
5.701664e-03 1.947616e+04 
6.909730e-03 2.090638e+04 
8.117797e-03 2.179082e+04 
9.325863e-03 2.221790e+04 
1.053393e-02 2.227156e+04 
1.174199e-02 2.202582e+04 
1.295006e-02 2.153000e+04 
1.415813e-02 2.084889e+04 
1.536619e-02 2.003732e+04 
1.657426e-02 1.913326e+04 
1.778233e-02 1.817091e+04 
1.899039e-02 1.719832e+04 
2.019846e-02 1.624068e+04 
2.140652e-02 1.531886e+04 
2.261459e-02 1.444441e+04 
2.382266e-02 1.363001e+04 
2.503072e-02 1.288300e+04 
2.623879e-02 1.220464e+04 
2.744685e-02 1.159488e+04 
2.865492e-02 1.105195e+04 
2.986299e-02 1.057095e+04 
3.100100e-02 1.017229e+04 
3.220400e-02 9.802205e+03 
3.288100e-02 9.616507e+03 
3.424300e-02 9.283726e+03 
3.555100e-02 9.007555e+03 
3.686000e-02 8.766913e+03 
3.795000e-02 8.587482e+03 
3.929100e-02 8.387653e+03 
4.039800e-02 8.233251e+03 
4.164000e-02 8.066594e+03 
4.294400e-02 7.890416e+03 
4.415000e-02 7.726120e+03 
4.542900e-02 7.541076e+03 
4.660900e-02 7.364500e+03 
4.782300e-02 7.166262e+03 
4.892900e-02 6.978515e+03 
5.031200e-02 6.731454e+03 
5.155900e-02 6.497411e+03 
5.238100e-02 6.339501e+03 
5.378200e-02 6.066855e+03 
5.513400e-02 5.801536e+03 
5.627600e-02 5.579247e+03 
5.735300e-02 5.374049e+03 
5.870100e-02 5.126279e+03 
5.988700e-02 4.919496e+03 
6.113500e-02 4.714842e+03 
6.225900e-02 4.543665e+03 
6.340100e-02 4.383308e+03 
6.480200e-02 4.204243e+03 
6.601100e-02 4.067070e+03 
6.725500e-02 3.941126e+03 
6.829100e-02 3.848540e+03 
6.958600e-02 3.744700e+03 
7.071100e-02 3.665755e+03 
7.192300e-02 3.590459e+03 
7.307400e-02 3.527155e+03 
7.412300e-02 3.475382e+03 
7.550400e-02 3.414989e+03 
7.663100e-02 3.370079e+03 
7.791200e-02 3.323193e+03 
7.912700e-02 3.280586e+03 
8.027600e-02 3.240787e+03 
8.138400e-02 3.202166e+03 
8.272200e-02 3.154143e+03 
8.406100e-02 3.103691e+03 
8.534100e-02 3.051398e+03 
8.653800e-02 2.998641e+03 
8.759800e-02 2.949711e+03 
8.900300e-02 2.881181e+03 
9.009000e-02 2.825046e+03 
9.113300e-02 2.768532e+03 
9.239600e-02 2.698792e+03 
9.358000e-02 2.631648e+03 
9.496100e-02 2.551459e+03 
9.608400e-02 2.486541e+03 
9.727500e-02 2.418529e+03 
9.852600e-02 2.347636e+03 
9.973800e-02 2.281378e+03 
1.009000e-01 2.220032e+03 
1.020900e-01 2.160875e+03 
1.034000e-01 2.099402e+03 
1.046000e-01 2.046525e+03 
1.057200e-01 2.002194e+03 
1.069100e-01 1.957896e+03 
1.082500e-01 1.913873e+03 
1.093900e-01 1.880446e+03 
1.105400e-01 1.849306e+03 
1.116900e-01 1.822930e+03 
1.129600e-01 1.795855e+03 
1.142000e-01 1.773245e+03 
1.153300e-01 1.754067e+03 
1.166400e-01 1.733816e+03 
1.177800e-01 1.717182e+03 
1.190000e-01 1.700072e+03 
1.201200e-01 1.684075e+03 
1.213400e-01 1.666947e+03 
1.227100e-01 1.645815e+03 
1.238900e-01 1.627398e+03 
1.250700e-01 1.607151e+03 
1.263200e-01 1.585210e+03 
1.275500e-01 1.561921e+03 
1.287500e-01 1.538602e+03 
1.299900e-01 1.513291e+03 
1.311300e-01 1.489680e+03 
1.323500e-01 1.463672e+03 
1.335900e-01 1.437301e+03 
1.347100e-01 1.413272e+03 
1.359800e-01 1.386472e+03 
1.372100e-01 1.360746e+03 
1.384300e-01 1.335882e+03 
1.395700e-01 1.313249e+03 
1.407700e-01 1.290038e+03 
1.420300e-01 1.266853e+03 
1.432800e-01 1.244408e+03 
1.444500e-01 1.224833e+03 
1.456300e-01 1.205523e+03 
1.468900e-01 1.186246e+03 
1.480500e-01 1.169145e+03 
1.491700e-01 1.153440e+03 
1.503800e-01 1.137419e+03 
1.516400e-01 1.121276e+03 
1.528200e-01 1.107291e+03 
1.540200e-01 1.093348e+03 
1.551900e-01 1.080626e+03 
1.564300e-01 1.067552e+03 
1.576600e-01 1.055054e+03 
1.588700e-01 1.043254e+03 
1.600900e-01 1.031589e+03 
1.612700e-01 1.020655e+03 
1.625400e-01 1.009106e+03 
1.637600e-01 9.981087e+02 
1.649500e-01 9.875110e+02 
1.662200e-01 9.763435e+02 
1.674000e-01 9.657922e+02 
1.685000e-01 9.561232e+02 
1.697500e-01 9.450316e+02 
1.710300e-01 9.335923e+02 
1.722200e-01 9.231512e+02 
1.734400e-01 9.120559e+02 
1.746400e-01 9.013138e+02 
1.758700e-01 8.903418e+02 
1.770900e-01 8.793332e+02 
1.782700e-01 8.688739e+02 
1.794600e-01 8.583296e+02 
1.807000e-01 8.474172e+02 
1.819100e-01 8.369595e+02 
1.830100e-01 8.275382e+02 
1.842200e-01 8.173356e+02 
1.855000e-01 8.067412e+02 
1.867000e-01 7.970933e+02 
1.879200e-01 7.874529e+02 
1.890900e-01 7.783999e+02 
1.902800e-01 7.695341e+02 
1.915200e-01 7.604506e+02 
1.926900e-01 7.520925e+02 
1.939000e-01 7.438190e+02 
1.951700e-01 7.352792e+02 
1.963100e-01 7.278129e+02 
1.975100e-01 7.202785e+02 
1.987800e-01 7.124326e+02 
2.000100e-01 7.050237e+02 
2.012500e-01 6.978290e+02 
2.023400e-01 6.915979e+02 
2.036100e-01 6.844731e+02 
2.048900e-01 6.775140e+02 
2.060400e-01 6.713555e+02 
2.072200e-01 6.651302e+02 
2.084200e-01 6.589322e+02 
2.096900e-01 6.524710e+02 
2.109200e-01 6.463075e+02 
2.121100e-01 6.403988e+02 
2.132700e-01 6.347182e+02 
2.145200e-01 6.286845e+02 
2.157200e-01 6.229294e+02 
2.168800e-01 6.174220e+02 
2.180700e-01 6.118499e+02 
2.193400e-01 6.059584e+02 
2.206000e-01 6.001432e+02 
2.217500e-01 5.949097e+02 
2.229500e-01 5.895227e+02 
2.241400e-01 5.841809e+02 
2.253500e-01 5.788220e+02 
2.264900e-01 5.738409e+02 
2.277100e-01 5.685593e+02 
2.289900e-01 5.630714e+02 
2.301500e-01 5.581663e+02 
2.313600e-01 5.531177e+02 
2.325600e-01 5.481621e+02 
2.337700e-01 5.432321e+02 
2.350000e-01 5.382882e+02 
2.362000e-01 5.335330e+02 
2.374100e-01 5.288059e+02 
2.386500e-01 5.240262e+02 
2.399100e-01 5.192352e+02 
2.410400e-01 5.150231e+02 
2.422500e-01 5.105729e+02 
2.435000e-01 5.060359e+02 
2.447300e-01 5.016386e+02 
2.458700e-01 4.976472e+02 
2.470600e-01 4.935316e+02 
2.483300e-01 4.891957e+02 
2.495600e-01 4.850688e+02 
2.507600e-01 4.811176e+02 
2.519600e-01 4.772150e+02 
2.532200e-01 4.731687e+02 
2.543700e-01 4.695422e+02 
2.555500e-01 4.658793e+02 
2.568000e-01 4.620464e+02 
2.580100e-01 4.583817e+02 
2.592400e-01 4.547217e+02 
2.604100e-01 4.512904e+02 
2.616100e-01 4.478121e+02 
2.628400e-01 4.442891e+02 
2.640600e-01 4.408507e+02 
2.652200e-01 4.376245e+02 
2.664300e-01 4.342978e+02 
2.676500e-01 4.309826e+02 
2.688400e-01 4.277905e+02 
2.700700e-01 4.245317e+02 
2.712400e-01 4.214671e+02 
2.724800e-01 4.182560e+02 
2.736700e-01 4.152131e+02 
2.748800e-01 4.121576e+02 
2.761000e-01 4.091116e+02 
2.773200e-01 4.061000e+02 
2.785400e-01 4.031222e+02 
2.797000e-01 4.003215e+02 
2.808900e-01 3.974793e+02 
2.821400e-01 3.945270e+02 
2.833900e-01 3.916080e+02 
2.845500e-01 3.889259e+02 
2.857800e-01 3.861126e+02 
2.870300e-01 3.832852e+02 
2.882100e-01 3.806452e+02 
2.893900e-01 3.780327e+02 
2.906300e-01 3.753167e+02 
2.918900e-01 3.725873e+02 
2.930500e-01 3.701012e+02 
2.942500e-01 3.675557e+02 
2.954200e-01 3.650990e+02 
2.966500e-01 3.625432e+02 
2.978900e-01 3.599941e+02 
2.990400e-01 3.576543e+02 
3.002700e-01 3.551777e+02 
3.015100e-01 3.527073e+02 
3.026800e-01 3.504004e+02 
3.038500e-01 3.481163e+02 
3.050300e-01 3.458356e+02 
3.062600e-01 3.434838e+02 
3.075000e-01 3.411374e+02 
3.087000e-01 3.388898e+02 
3.099100e-01 3.366462e+02 
3.111200e-01 3.344271e+02 
3.123100e-01 3.322695e+02 
3.135300e-01 3.300795e+02 
3.147300e-01 3.279468e+02 
3.159900e-01 3.257299e+02 
3.171800e-01 3.236601e+02 
3.183700e-01 3.216124e+02 
3.196300e-01 3.194656e+02 
3.208400e-01 3.174244e+02 
3.220300e-01 3.154363e+02 
3.232000e-01 3.135051e+02 
3.244300e-01 3.114963e+02 
3.256700e-01 3.094909e+02 
3.269200e-01 3.074891e+02 
3.280800e-01 3.056491e+02 
3.292500e-01 3.038167e+02 
3.304800e-01 3.019104e+02 
3.317100e-01 3.000224e+02 
3.328900e-01 2.982279e+02 
3.340700e-01 2.964498e+02 
3.353600e-01 2.945316e+02 
3.365300e-01 2.928109e+02 
3.377100e-01 2.910910e+02 
3.389200e-01 2.893434e+02 
3.401600e-01 2.875690e+02 
3.413700e-01 2.858598e+02 
3.425300e-01 2.842400e+02 
3.437700e-01 2.825241e+02 
3.449800e-01 2.808649e+02 
3.461800e-01 2.792342e+02 
3.473600e-01 2.776478e+02 
3.485800e-01 2.760294e+02 
3.498100e-01 2.744123e+02 
3.510200e-01 2.728358e+02 
3.522000e-01 2.713117e+02 
3.533900e-01 2.697879e+02 
3.546400e-01 2.682105e+02 
3.558400e-01 2.667100e+02 
3.570600e-01 2.651978e+02 
3.582700e-01 2.637110e+02 
3.595000e-01 2.622127e+02 
3.607100e-01 2.607566e+02 
3.618900e-01 2.593526e+02 
3.631200e-01 2.579014e+02 
3.643200e-01 2.564977e+02 
3.655500e-01 2.550712e+02 
3.667300e-01 2.537142e+02 
3.679500e-01 2.523324e+02 
3.691900e-01 2.509399e+02 
3.703600e-01 2.496370e+02 
3.715700e-01 2.483005e+02 
3.727700e-01 2.469861e+02 
3.739900e-01 2.456636e+02 
3.752000e-01 2.443681e+02 
3.763900e-01 2.431043e+02 
3.775800e-01 2.418507e+02 
3.788200e-01 2.405551e+02 
3.800300e-01 2.393013e+02 
3.812100e-01 2.380924e+02 
3.824200e-01 2.368655e+02 
3.836100e-01 2.356685e+02 
3.848600e-01 2.344213e+02 
3.860400e-01 2.332534e+02 
3.872400e-01 2.320750e+02 
3.884600e-01 2.308917e+02 
3.896500e-01 2.297486e+02 
3.908700e-01 2.285859e+02 
3.920600e-01 2.274606e+02 
3.933100e-01 2.262879e+02 
3.945300e-01 2.251525e+02 
3.957200e-01 2.240586e+02 
3.969300e-01 2.229563e+02 
3.981700e-01 2.218355e+02 
3.993500e-01 2.207772e+02 
4.094840e-01 2.120351e+02 
4.272360e-01 1.981132e+02 
4.454600e-01 1.853938e+02 
4.630560e-01 1.743983e+02 
4.804610e-01 1.645967e+02 
4.980690e-01 1.556235e+02 
5.159230e-01 1.473679e+02 
5.317440e-01 1.406772e+02 
5.489640e-01 1.339889e+02 
5.671990e-01 1.275063e+02 
5.838690e-01 1.220578e+02 
6.018840e-01 1.166280e+02 
6.202330e-01 1.115424e+02 
6.379250e-01 1.070083e+02 
6.545410e-01 1.030605e+02 
6.714560e-01 9.930975e+01 
6.892080e-01 9.564316e+01 
7.066010e-01 9.229633e+01 
7.240540e-01 8.915237e+01 
7.420450e-01 8.612615e+01 
7.593780e-01 8.339503e+01 
7.764720e-01 8.085982e+01 
7.942840e-01 7.837440e+01 
8.116170e-01 7.609784e+01 
8.288310e-01 7.396472e+01 
8.462240e-01 7.192675e+01 
8.631980e-01 7.004230e+01 
8.810700e-01 6.816100e+01 
8.989410e-01 6.637745e+01 
9.166330e-01 6.470159e+01 
9.345640e-01 6.308773e+01 
9.515980e-01 6.162711e+01 
9.688720e-01 6.021242e+01 
9.865640e-01 5.883012e+01 
1.031870e+00 5.555710e+01 
1.063490e+00 5.347675e+01 
1.097920e+00 5.137990e+01 
1.134370e+00 4.932485e+01 
1.167730e+00 4.757853e+01 
1.203830e+00 4.581584e+01 
1.240470e+00 4.414848e+01 
1.275790e+00 4.264478e+01 
1.309140e+00 4.131068e+01 
1.342970e+00 4.003076e+01 
1.378420e+00 3.876604e+01 
1.413200e+00 3.759376e+01 
1.448110e+00 3.647812e+01 
1.484090e+00 3.538879e+01 
1.518820e+00 3.438984e+01 
1.552880e+00 3.345704e+01 
1.588630e+00 3.252329e+01 
1.623230e+00 3.166211e+01 
1.657720e+00 3.084127e+01 
1.692450e+00 3.005141e+01 
1.726400e+00 2.931055e+01 
1.762200e+00 2.856105e+01 
1.797880e+00 2.784601e+01 
1.833270e+00 2.716578e+01 
1.869070e+00 2.650442e+01 
1.903200e+00 2.589845e+01 
1.937740e+00 2.530772e+01 
1.973190e+00 2.472369e+01 
2.007440e+00 2.417988e+01 
2.042160e+00 2.364787e+01 
2.077900e+00 2.311925e+01 
2.112390e+00 2.262690e+01 
2.146220e+00 2.215927e+01 
2.181600e+00 2.168673e+01 
2.216930e+00 2.123015e+01 
2.250760e+00 2.080691e+01 
2.286500e+00 2.037395e+01 
2.321770e+00 1.996019e+01 
2.355950e+00 1.957168e+01 
2.391280e+00 1.918124e+01 
2.426240e+00 1.880655e+01 
2.460670e+00 1.844864e+01 
2.495640e+00 1.809597e+01 
2.531080e+00 1.774822e+01 
2.566220e+00 1.741306e+01 
2.600830e+00 1.709237e+01 
2.635080e+00 1.678400e+01 
2.670340e+00 1.647419e+01 
2.705970e+00 1.616995e+01 
2.740040e+00 1.588703e+01 
2.774520e+00 1.560768e+01 
2.809730e+00 1.532954e+01 
2.844390e+00 1.506304e+01 
2.879960e+00 1.479646e+01 
2.914860e+00 1.454125e+01 
2.949410e+00 1.429512e+01 
2.984440e+00 1.405136e+01 
3.019760e+00 1.381157e+01 
3.054730e+00 1.358023e+01 
3.089030e+00 1.335802e+01 
3.124060e+00 1.313672e+01 
3.159560e+00 1.291778e+01 
3.194710e+00 1.270590e+01 
3.229010e+00 1.250424e+01 
3.263320e+00 1.230614e+01 
3.297930e+00 1.211113e+01 
3.332830e+00 1.191879e+01 
3.368040e+00 1.172905e+01 
3.403300e+00 1.154342e+01 
3.438450e+00 1.136213e+01 
3.473060e+00 1.118790e+01 
3.508440e+00 1.101293e+01 
3.543110e+00 1.084556e+01 
3.577470e+00 1.068277e+01 
3.613040e+00 1.051808e+01 
3.648120e+00 1.035882e+01 
3.682910e+00 1.020428e+01 
3.718050e+00 1.005116e+01 
3.753320e+00 9.900760e+00 
3.787980e+00 9.755880e+00 
3.822290e+00 9.615391e+00 
3.857020e+00 9.475870e+00 
3.891920e+00 9.338509e+00 
3.926650e+00 9.204277e+00 
3.961970e+00 9.070613e+00 
3.997360e+00 8.939155e+00 
4.031670e+00 8.814394e+00 
4.066330e+00 8.690549e+00 
4.101420e+00 8.567859e+00 
4.136200e+00 8.448045e+00 
4.170810e+00 8.331357e+00 
4.206250e+00 8.213954e+00 
4.241580e+00 8.099335e+00 
4.276300e+00 7.988635e+00 
4.310970e+00 7.880144e+00 
4.346120e+00 7.772219e+00 
4.380600e+00 7.668177e+00 
4.414730e+00 7.567242e+00 
4.450350e+00 7.463525e+00 
4.485320e+00 7.363772e+00 
4.519810e+00 7.266979e+00 
4.555430e+00 7.168842e+00 
4.590870e+00 7.073030e+00 
4.625480e+00 6.981032e+00 
4.659910e+00 6.891274e+00 
4.695230e+00 6.800643e+00 
4.729960e+00 6.713193e+00 
4.764450e+00 6.627830e+00 
4.799530e+00 6.542378e+00 
4.834910e+00 6.457836e+00 
4.869700e+00 6.376011e+00 
4.904370e+00 6.295936e+00 
4.939450e+00 6.216340e+00 
4.973940e+00 6.139328e+00 
5.008430e+00 6.063707e+00 
5.043810e+00 5.987356e+00 
5.078840e+00 5.913028e+00 
5.113500e+00 5.840803e+00 
5.148890e+00 5.768115e+00 
5.184210e+00 5.696864e+00 
5.219060e+00 5.627768e+00 
5.253660e+00 5.560251e+00 
5.288570e+00 5.493312e+00 
5.323420e+00 5.427554e+00 
5.358440e+00 5.362514e+00 
5.393590e+00 5.298357e+00 
5.428310e+00 5.235964e+00 
5.462800e+00 5.174973e+00 
5.497640e+00 5.114394e+00 
5.532670e+00 5.054417e+00 
5.567280e+00 4.996116e+00 
5.602000e+00 4.938593e+00 
5.637270e+00 4.881038e+00 
5.672410e+00 4.824622e+00 
5.707020e+00 4.769964e+00 
5.742040e+00 4.715512e+00 
5.777430e+00 4.661373e+00 
5.812210e+00 4.609025e+00 
5.846820e+00 4.557683e+00 
5.881610e+00 4.506869e+00 
5.916510e+00 4.456699e+00 
5.951600e+00 4.407006e+00 
5.986560e+00 4.358254e+00 
6.021830e+00 4.309839e+00 
6.056490e+00 4.262997e+00 
6.091160e+00 4.216856e+00 
6.125830e+00 4.171417e+00 
6.161090e+00 4.125905e+00 
6.195760e+00 4.081823e+00 
6.230420e+00 4.038415e+00 
6.265690e+00 3.994907e+00 
6.300950e+00 3.952062e+00 
6.335620e+00 3.910561e+00 
6.370880e+00 3.868979e+00 
6.405550e+00 3.828704e+00 
6.440220e+00 3.789018e+00 
6.475480e+00 3.749245e+00 
6.510150e+00 3.710711e+00 
6.544810e+00 3.672752e+00 
6.580080e+00 3.634680e+00 
6.614750e+00 3.597792e+00 
6.649410e+00 3.561464e+00 
6.684080e+00 3.525642e+00 
6.719340e+00 3.489724e+00 
6.754010e+00 3.454918e+00 
6.788680e+00 3.420631e+00 
6.823940e+00 3.386245e+00 
6.859800e+00 3.351765e+00 
6.894470e+00 3.318921e+00 
6.929140e+00 3.286532e+00 
6.963800e+00 3.254592e+00 
6.999070e+00 3.222534e+00 
7.033730e+00 3.191519e+00 
7.068400e+00 3.160909e+00 
7.103660e+00 3.130195e+00 
7.138330e+00 3.100416e+00 
7.173600e+00 3.070559e+00 
7.208260e+00 3.041606e+00 
7.243530e+00 3.012531e+00 
7.277600e+00 2.984835e+00 
7.312860e+00 2.956566e+00 
7.348120e+00 2.928666e+00 
7.382790e+00 2.901587e+00 
7.417460e+00 2.874910e+00 
7.452720e+00 2.848156e+00 
7.487390e+00 2.822185e+00 
7.522650e+00 2.796107e+00 
7.557320e+00 2.770845e+00 
7.591990e+00 2.745918e+00 
7.627250e+00 2.720885e+00 
7.662510e+00 2.696166e+00 
7.697180e+00 2.672217e+00 
7.731850e+00 2.648583e+00 
7.766510e+00 2.625243e+00 
7.801180e+00 2.602180e+00 
7.836440e+00 2.579055e+00 
7.871110e+00 2.556621e+00 
7.906380e+00 2.534074e+00 
7.941040e+00 2.512184e+00 
7.976310e+00 2.490207e+00 
8.011570e+00 2.468537e+00 
8.046240e+00 2.447483e+00 
8.080900e+00 2.426682e+00 
8.115570e+00 2.406137e+00 
8.150830e+00 2.385561e+00 
8.185500e+00 2.365565e+00 
8.220770e+00 2.345460e+00 
8.255430e+00 2.325932e+00 
8.290100e+00 2.306690e+00 
8.324770e+00 2.287674e+00 
8.359430e+00 2.268880e+00 
8.394700e+00 2.249974e+00 
8.429960e+00 2.231330e+00 
8.464630e+00 2.213249e+00 
8.499890e+00 2.195066e+00 
8.534560e+00 2.177389e+00 
8.569200e+00 2.159922e+00 
