# Parameters:
# omega_b = 0.022917, omega_m = 0.126063, n_s = 0.961811, h = 76.732283, w = -1.000000, sigma_8 = 0.827559
# z = 1.500000
#
# k[1/Mpc] # P(k):
8.694000e-04 5.799764e+03 
2.077466e-03 1.220561e+04 
3.285532e-03 1.704332e+04 
4.493598e-03 2.062405e+04 
5.701664e-03 2.315056e+04 
6.909730e-03 2.482156e+04 
8.117797e-03 2.584395e+04 
9.325863e-03 2.632396e+04 
1.053393e-02 2.636230e+04 
1.174199e-02 2.604768e+04 
1.295006e-02 2.543920e+04 
1.415813e-02 2.461429e+04 
1.536619e-02 2.363776e+04 
1.657426e-02 2.255443e+04 
1.778233e-02 2.140492e+04 
1.899039e-02 2.024612e+04 
2.019846e-02 1.910781e+04 
2.140652e-02 1.801437e+04 
2.261459e-02 1.697936e+04 
2.382266e-02 1.601737e+04 
2.503072e-02 1.513686e+04 
2.623879e-02 1.433895e+04 
2.744685e-02 1.362344e+04 
2.865492e-02 1.298763e+04 
2.986299e-02 1.242539e+04 
3.100100e-02 1.196026e+04 
3.220400e-02 1.152907e+04 
3.288100e-02 1.131294e+04 
3.424300e-02 1.092570e+04 
3.555100e-02 1.060413e+04 
3.686000e-02 1.032336e+04 
3.795000e-02 1.011341e+04 
3.929100e-02 9.878389e+03 
4.039800e-02 9.695783e+03 
4.164000e-02 9.497701e+03 
4.294400e-02 9.286929e+03 
4.415000e-02 9.089764e+03 
4.542900e-02 8.867137e+03 
4.660900e-02 8.654599e+03 
4.782300e-02 8.416247e+03 
4.892900e-02 8.190842e+03 
5.031200e-02 7.894956e+03 
5.155900e-02 7.615577e+03 
5.238100e-02 7.427523e+03 
5.378200e-02 7.103422e+03 
5.513400e-02 6.788499e+03 
5.627600e-02 6.524577e+03 
5.735300e-02 6.280373e+03 
5.870100e-02 5.984093e+03 
5.988700e-02 5.735220e+03 
6.113500e-02 5.487326e+03 
6.225900e-02 5.278995e+03 
6.340100e-02 5.083517e+03 
6.480200e-02 4.865669e+03 
6.601100e-02 4.700071e+03 
6.725500e-02 4.549748e+03 
6.829100e-02 4.440819e+03 
6.958600e-02 4.320199e+03 
7.071100e-02 4.229933e+03 
7.192300e-02 4.144945e+03 
7.307400e-02 4.074328e+03 
7.412300e-02 4.017092e+03 
7.550400e-02 3.950884e+03 
7.663100e-02 3.901842e+03 
7.791200e-02 3.850634e+03 
7.912700e-02 3.803769e+03 
8.027600e-02 3.759588e+03 
8.138400e-02 3.716294e+03 
8.272200e-02 3.661808e+03 
8.406100e-02 3.603857e+03 
8.534100e-02 3.543030e+03 
8.653800e-02 3.481148e+03 
8.759800e-02 3.423502e+03 
8.900300e-02 3.342451e+03 
9.009000e-02 3.275885e+03 
9.113300e-02 3.208823e+03 
9.239600e-02 3.126080e+03 
9.358000e-02 3.046483e+03 
9.496100e-02 2.951631e+03 
9.608400e-02 2.875018e+03 
9.727500e-02 2.794905e+03 
9.852600e-02 2.711803e+03 
9.973800e-02 2.634349e+03 
1.009000e-01 2.562813e+03 
1.020900e-01 2.494276e+03 
1.034000e-01 2.423267e+03 
1.046000e-01 2.362408e+03 
1.057200e-01 2.311758e+03 
1.069100e-01 2.261277e+03 
1.082500e-01 2.211496e+03 
1.093900e-01 2.173926e+03 
1.105400e-01 2.139067e+03 
1.116900e-01 2.109831e+03 
1.129600e-01 2.079912e+03 
1.142000e-01 2.055131e+03 
1.153300e-01 2.034139e+03 
1.166400e-01 2.012016e+03 
1.177800e-01 1.993758e+03 
1.190000e-01 1.974940e+03 
1.201200e-01 1.957064e+03 
1.213400e-01 1.937879e+03 
1.227100e-01 1.913710e+03 
1.238900e-01 1.892551e+03 
1.250700e-01 1.868988e+03 
1.263200e-01 1.843363e+03 
1.275500e-01 1.815971e+03 
1.287500e-01 1.788489e+03 
1.299900e-01 1.758573e+03 
1.311300e-01 1.730665e+03 
1.323500e-01 1.699922e+03 
1.335900e-01 1.668795e+03 
1.347100e-01 1.640490e+03 
1.359800e-01 1.608983e+03 
1.372100e-01 1.578858e+03 
1.384300e-01 1.549806e+03 
1.395700e-01 1.523507e+03 
1.407700e-01 1.496556e+03 
1.420300e-01 1.469850e+03 
1.432800e-01 1.443994e+03 
1.444500e-01 1.421643e+03 
1.456300e-01 1.399590e+03 
1.468900e-01 1.377693e+03 
1.480500e-01 1.358303e+03 
1.491700e-01 1.340534e+03 
1.503800e-01 1.322462e+03 
1.516400e-01 1.304255e+03 
1.528200e-01 1.288509e+03 
1.540200e-01 1.272808e+03 
1.551900e-01 1.258469e+03 
1.564300e-01 1.243727e+03 
1.576600e-01 1.229607e+03 
1.588700e-01 1.216245e+03 
1.600900e-01 1.203029e+03 
1.612700e-01 1.190562e+03 
1.625400e-01 1.177395e+03 
1.637600e-01 1.164804e+03 
1.649500e-01 1.152641e+03 
1.662200e-01 1.139812e+03 
1.674000e-01 1.127634e+03 
1.685000e-01 1.116474e+03 
1.697500e-01 1.103650e+03 
1.710300e-01 1.090402e+03 
1.722200e-01 1.078310e+03 
1.734400e-01 1.065444e+03 
1.746400e-01 1.052987e+03 
1.758700e-01 1.040265e+03 
1.770900e-01 1.027504e+03 
1.782700e-01 1.015380e+03 
1.794600e-01 1.003169e+03 
1.807000e-01 9.905409e+02 
1.819100e-01 9.784378e+02 
1.830100e-01 9.675575e+02 
1.842200e-01 9.557780e+02 
1.855000e-01 9.435465e+02 
1.867000e-01 9.324400e+02 
1.879200e-01 9.213409e+02 
1.890900e-01 9.109219e+02 
1.902800e-01 9.007424e+02 
1.915200e-01 8.903118e+02 
1.926900e-01 8.807182e+02 
1.939000e-01 8.712378e+02 
1.951700e-01 8.614511e+02 
1.963100e-01 8.528966e+02 
1.975100e-01 8.442717e+02 
1.987800e-01 8.352889e+02 
2.000100e-01 8.268057e+02 
2.012500e-01 8.185669e+02 
2.023400e-01 8.114307e+02 
2.036100e-01 8.032682e+02 
2.048900e-01 7.952863e+02 
2.060400e-01 7.882220e+02 
2.072200e-01 7.810793e+02 
2.084200e-01 7.739528e+02 
2.096900e-01 7.665229e+02 
2.109200e-01 7.594349e+02 
2.121100e-01 7.526237e+02 
2.132700e-01 7.460741e+02 
2.145200e-01 7.391169e+02 
2.157200e-01 7.324726e+02 
2.168800e-01 7.261101e+02 
2.180700e-01 7.196726e+02 
2.193400e-01 7.128624e+02 
2.206000e-01 7.061344e+02 
2.217500e-01 7.000792e+02 
2.229500e-01 6.938458e+02 
2.241400e-01 6.876644e+02 
2.253500e-01 6.814628e+02 
2.264900e-01 6.756980e+02 
2.277100e-01 6.695868e+02 
2.289900e-01 6.632385e+02 
2.301500e-01 6.575640e+02 
2.313600e-01 6.517230e+02 
2.325600e-01 6.459974e+02 
2.337700e-01 6.403010e+02 
2.350000e-01 6.345879e+02 
2.362000e-01 6.290967e+02 
2.374100e-01 6.236421e+02 
2.386500e-01 6.181264e+02 
2.399100e-01 6.125971e+02 
2.410400e-01 6.077421e+02 
2.422500e-01 6.026131e+02 
2.435000e-01 5.973835e+02 
2.447300e-01 5.923156e+02 
2.458700e-01 5.877207e+02 
2.470600e-01 5.829822e+02 
2.483300e-01 5.779896e+02 
2.495600e-01 5.732389e+02 
2.507600e-01 5.686927e+02 
2.519600e-01 5.642018e+02 
2.532200e-01 5.595451e+02 
2.543700e-01 5.553722e+02 
2.555500e-01 5.511577e+02 
2.568000e-01 5.467472e+02 
2.580100e-01 5.425297e+02 
2.592400e-01 5.383180e+02 
2.604100e-01 5.343692e+02 
2.616100e-01 5.303660e+02 
2.628400e-01 5.263110e+02 
2.640600e-01 5.223522e+02 
2.652200e-01 5.186374e+02 
2.664300e-01 5.148063e+02 
2.676500e-01 5.109883e+02 
2.688400e-01 5.073110e+02 
2.700700e-01 5.035564e+02 
2.712400e-01 5.000251e+02 
2.724800e-01 4.963246e+02 
2.736700e-01 4.928175e+02 
2.748800e-01 4.892949e+02 
2.761000e-01 4.857831e+02 
2.773200e-01 4.823106e+02 
2.785400e-01 4.788766e+02 
2.797000e-01 4.756464e+02 
2.808900e-01 4.723679e+02 
2.821400e-01 4.689621e+02 
2.833900e-01 4.655945e+02 
2.845500e-01 4.625004e+02 
2.857800e-01 4.592546e+02 
2.870300e-01 4.559923e+02 
2.882100e-01 4.529458e+02 
2.893900e-01 4.499315e+02 
2.906300e-01 4.467978e+02 
2.918900e-01 4.436484e+02 
2.930500e-01 4.407795e+02 
2.942500e-01 4.378421e+02 
2.954200e-01 4.350079e+02 
2.966500e-01 4.320591e+02 
2.978900e-01 4.291178e+02 
2.990400e-01 4.264177e+02 
3.002700e-01 4.235605e+02 
3.015100e-01 4.207109e+02 
3.026800e-01 4.180495e+02 
3.038500e-01 4.154142e+02 
3.050300e-01 4.127825e+02 
3.062600e-01 4.100705e+02 
3.075000e-01 4.073645e+02 
3.087000e-01 4.047721e+02 
3.099100e-01 4.021841e+02 
3.111200e-01 3.996245e+02 
3.123100e-01 3.971366e+02 
3.135300e-01 3.946110e+02 
3.147300e-01 3.921512e+02 
3.159900e-01 3.895940e+02 
3.171800e-01 3.872069e+02 
3.183700e-01 3.848454e+02 
3.196300e-01 3.823694e+02 
3.208400e-01 3.800150e+02 
3.220300e-01 3.777216e+02 
3.232000e-01 3.754938e+02 
3.244300e-01 3.731764e+02 
3.256700e-01 3.708627e+02 
3.269200e-01 3.685529e+02 
3.280800e-01 3.664296e+02 
3.292500e-01 3.643148e+02 
3.304800e-01 3.621146e+02 
3.317100e-01 3.599352e+02 
3.328900e-01 3.578636e+02 
3.340700e-01 3.558106e+02 
3.353600e-01 3.535951e+02 
3.365300e-01 3.516072e+02 
3.377100e-01 3.496201e+02 
3.389200e-01 3.476008e+02 
3.401600e-01 3.455503e+02 
3.413700e-01 3.435741e+02 
3.425300e-01 3.417006e+02 
3.437700e-01 3.397156e+02 
3.449800e-01 3.377961e+02 
3.461800e-01 3.359093e+02 
3.473600e-01 3.340732e+02 
3.485800e-01 3.321987e+02 
3.498100e-01 3.303256e+02 
3.510200e-01 3.284992e+02 
3.522000e-01 3.267334e+02 
3.533900e-01 3.249679e+02 
3.546400e-01 3.231376e+02 
3.558400e-01 3.213963e+02 
3.570600e-01 3.196412e+02 
3.582700e-01 3.179154e+02 
3.595000e-01 3.161762e+02 
3.607100e-01 3.144846e+02 
3.618900e-01 3.128524e+02 
3.631200e-01 3.111652e+02 
3.643200e-01 3.095332e+02 
3.655500e-01 3.078744e+02 
3.667300e-01 3.062963e+02 
3.679500e-01 3.046866e+02 
3.691900e-01 3.030643e+02 
3.703600e-01 3.015462e+02 
3.715700e-01 2.999890e+02 
3.727700e-01 2.984572e+02 
3.739900e-01 2.969151e+02 
3.752000e-01 2.954027e+02 
3.763900e-01 2.939272e+02 
3.775800e-01 2.924635e+02 
3.788200e-01 2.909507e+02 
3.800300e-01 2.894865e+02 
3.812100e-01 2.880734e+02 
3.824200e-01 2.866381e+02 
3.836100e-01 2.852377e+02 
3.848600e-01 2.837784e+02 
3.860400e-01 2.824119e+02 
3.872400e-01 2.810329e+02 
3.884600e-01 2.796465e+02 
3.896500e-01 2.783063e+02 
3.908700e-01 2.769431e+02 
3.920600e-01 2.756237e+02 
3.933100e-01 2.742486e+02 
3.945300e-01 2.729172e+02 
3.957200e-01 2.716328e+02 
3.969300e-01 2.703379e+02 
3.981700e-01 2.690213e+02 
3.993500e-01 2.677780e+02 
4.094840e-01 2.574960e+02 
4.272360e-01 2.410717e+02 
4.454600e-01 2.260280e+02 
4.630560e-01 2.130020e+02 
4.804610e-01 2.013793e+02 
4.980690e-01 1.907362e+02 
5.159230e-01 1.809408e+02 
5.317440e-01 1.730033e+02 
5.489640e-01 1.650667e+02 
5.671990e-01 1.573739e+02 
5.838690e-01 1.509085e+02 
6.018840e-01 1.444653e+02 
6.202330e-01 1.384278e+02 
6.379250e-01 1.330423e+02 
6.545410e-01 1.283513e+02 
6.714560e-01 1.238921e+02 
6.892080e-01 1.195299e+02 
7.066010e-01 1.155464e+02 
7.240540e-01 1.117993e+02 
7.420450e-01 1.081906e+02 
7.593780e-01 1.049295e+02 
7.764720e-01 1.018999e+02 
7.942840e-01 9.892506e+01 
8.116170e-01 9.619801e+01 
8.288310e-01 9.363822e+01 
8.462240e-01 9.119061e+01 
8.631980e-01 8.892344e+01 
8.810700e-01 8.665638e+01 
8.989410e-01 8.450254e+01 
9.166330e-01 8.247585e+01 
9.345640e-01 8.052222e+01 
9.515980e-01 7.874986e+01 
9.688720e-01 7.702971e+01 
9.865640e-01 7.534600e+01 
1.031870e+00 7.134537e+01 
1.063490e+00 6.879184e+01 
1.097920e+00 6.620916e+01 
1.134370e+00 6.366781e+01 
1.167730e+00 6.150045e+01 
1.203830e+00 5.930254e+01 
1.240470e+00 5.721673e+01 
1.275790e+00 5.532882e+01 
1.309140e+00 5.364849e+01 
1.342970e+00 5.202916e+01 
1.378420e+00 5.042548e+01 
1.413200e+00 4.893395e+01 
1.448110e+00 4.751082e+01 
1.484090e+00 4.611688e+01 
1.518820e+00 4.483515e+01 
1.552880e+00 4.363534e+01 
1.588630e+00 4.243159e+01 
1.623230e+00 4.131898e+01 
1.657720e+00 4.025556e+01 
1.692450e+00 3.923090e+01 
1.726400e+00 3.826802e+01 
1.762200e+00 3.729199e+01 
1.797880e+00 3.635870e+01 
1.833270e+00 3.547001e+01 
1.869070e+00 3.460435e+01 
1.903200e+00 3.380984e+01 
1.937740e+00 3.303469e+01 
1.973190e+00 3.226752e+01 
2.007440e+00 3.155256e+01 
2.042160e+00 3.085183e+01 
2.077900e+00 3.015485e+01 
2.112390e+00 2.950549e+01 
2.146220e+00 2.888805e+01 
2.181600e+00 2.826353e+01 
2.216930e+00 2.765955e+01 
2.250760e+00 2.709946e+01 
2.286500e+00 2.652626e+01 
2.321770e+00 2.597813e+01 
2.355950e+00 2.546339e+01 
2.391280e+00 2.494530e+01 
2.426240e+00 2.444806e+01 
2.460670e+00 2.397306e+01 
2.495640e+00 2.350499e+01 
2.531080e+00 2.304314e+01 
2.566220e+00 2.259774e+01 
2.600830e+00 2.217155e+01 
2.635080e+00 2.176175e+01 
2.670340e+00 2.135011e+01 
2.705970e+00 2.094573e+01 
2.740040e+00 2.056961e+01 
2.774520e+00 2.019829e+01 
2.809730e+00 1.982845e+01 
2.844390e+00 1.947414e+01 
2.879960e+00 1.911997e+01 
2.914860e+00 1.878080e+01 
2.949410e+00 1.845371e+01 
2.984440e+00 1.812983e+01 
3.019760e+00 1.781114e+01 
3.054730e+00 1.750367e+01 
3.089030e+00 1.720864e+01 
3.124060e+00 1.691489e+01 
3.159560e+00 1.662434e+01 
3.194710e+00 1.634323e+01 
3.229010e+00 1.607573e+01 
3.263320e+00 1.581304e+01 
3.297930e+00 1.555451e+01 
3.332830e+00 1.529958e+01 
3.368040e+00 1.504828e+01 
3.403300e+00 1.480256e+01 
3.438450e+00 1.456265e+01 
3.473060e+00 1.433213e+01 
3.508440e+00 1.410072e+01 
3.543110e+00 1.387945e+01 
3.577470e+00 1.366457e+01 
3.613040e+00 1.344719e+01 
3.648120e+00 1.323692e+01 
3.682910e+00 1.303304e+01 
3.718050e+00 1.283127e+01 
3.753320e+00 1.263312e+01 
3.787980e+00 1.244230e+01 
3.822290e+00 1.225736e+01 
3.857020e+00 1.207382e+01 
3.891920e+00 1.189320e+01 
3.926650e+00 1.171682e+01 
3.961970e+00 1.154130e+01 
3.997360e+00 1.136888e+01 
4.031670e+00 1.120528e+01 
4.066330e+00 1.104292e+01 
4.101420e+00 1.088212e+01 
4.136200e+00 1.072532e+01 
4.170810e+00 1.057264e+01 
4.206250e+00 1.041914e+01 
4.241580e+00 1.026933e+01 
4.276300e+00 1.012480e+01 
4.310970e+00 9.983236e+00 
4.346120e+00 9.842476e+00 
4.380600e+00 9.706860e+00 
4.414730e+00 9.575324e+00 
4.450350e+00 9.440349e+00 
4.485320e+00 9.310558e+00 
4.519810e+00 9.184747e+00 
4.555430e+00 9.057264e+00 
4.590870e+00 8.932843e+00 
4.625480e+00 8.813437e+00 
4.659910e+00 8.696961e+00 
4.695230e+00 8.579553e+00 
4.729960e+00 8.466315e+00 
4.764450e+00 8.355845e+00 
4.799530e+00 8.245357e+00 
4.834910e+00 8.136063e+00 
4.869700e+00 8.030394e+00 
4.904370e+00 7.927018e+00 
4.939450e+00 7.824305e+00 
4.973940e+00 7.725017e+00 
5.008430e+00 7.627539e+00 
5.043810e+00 7.529197e+00 
5.078840e+00 7.433513e+00 
5.113500e+00 7.340552e+00 
5.148890e+00 7.247150e+00 
5.184210e+00 7.155614e+00 
5.219060e+00 7.066881e+00 
5.253660e+00 6.980247e+00 
5.288570e+00 6.894369e+00 
5.323420e+00 6.810054e+00 
5.358440e+00 6.726710e+00 
5.393590e+00 6.644510e+00 
5.428310e+00 6.564658e+00 
5.462800e+00 6.486651e+00 
5.497640e+00 6.409181e+00 
5.532670e+00 6.332573e+00 
5.567280e+00 6.258142e+00 
5.602000e+00 6.184713e+00 
5.637270e+00 6.111299e+00 
5.672410e+00 6.039359e+00 
5.707020e+00 5.969669e+00 
5.742040e+00 5.900328e+00 
5.777430e+00 5.831409e+00 
5.812210e+00 5.764778e+00 
5.846820e+00 5.699473e+00 
5.881610e+00 5.634857e+00 
5.916510e+00 5.571067e+00 
5.951600e+00 5.507946e+00 
5.986560e+00 5.446053e+00 
6.021830e+00 5.384595e+00 
6.056490e+00 5.325180e+00 
6.091160e+00 5.266695e+00 
6.125830e+00 5.209105e+00 
6.161090e+00 5.151439e+00 
6.195760e+00 5.095615e+00 
6.230420e+00 5.040649e+00 
6.265690e+00 4.985564e+00 
6.300950e+00 4.931390e+00 
6.335620e+00 4.878920e+00 
6.370880e+00 4.826352e+00 
6.405550e+00 4.775461e+00 
6.440220e+00 4.725327e+00 
6.475480e+00 4.675088e+00 
6.510150e+00 4.626436e+00 
6.544810e+00 4.578552e+00 
6.580080e+00 4.530531e+00 
6.614750e+00 4.484005e+00 
6.649410e+00 4.438213e+00 
6.684080e+00 4.393065e+00 
6.719340e+00 4.347801e+00 
6.754010e+00 4.303955e+00 
6.788680e+00 4.260800e+00 
6.823940e+00 4.217523e+00 
6.859800e+00 4.174131e+00 
6.894470e+00 4.132817e+00 
6.929140e+00 4.092086e+00 
6.963800e+00 4.051920e+00 
6.999070e+00 4.011611e+00 
7.033730e+00 3.972635e+00 
7.068400e+00 3.934170e+00 
7.103660e+00 3.895577e+00 
7.138330e+00 3.858166e+00 
7.173600e+00 3.820674e+00 
7.208260e+00 3.784319e+00 
7.243530e+00 3.747812e+00 
7.277600e+00 3.713050e+00 
7.312860e+00 3.677578e+00 
7.348120e+00 3.642571e+00 
7.382790e+00 3.608598e+00 
7.417460e+00 3.575154e+00 
7.452720e+00 3.541627e+00 
7.487390e+00 3.509082e+00 
7.522650e+00 3.476405e+00 
7.557320e+00 3.444751e+00 
7.591990e+00 3.413519e+00 
7.627250e+00 3.382153e+00 
7.662510e+00 3.351184e+00 
7.697180e+00 3.321191e+00 
7.731850e+00 3.291598e+00 
7.766510e+00 3.262375e+00 
7.801180e+00 3.233500e+00 
7.836440e+00 3.204548e+00 
7.871110e+00 3.176461e+00 
7.906380e+00 3.148235e+00 
7.941040e+00 3.120831e+00 
7.976310e+00 3.093327e+00 
8.011570e+00 3.066216e+00 
8.046240e+00 3.039876e+00 
8.080900e+00 3.013854e+00 
8.115570e+00 2.988153e+00 
8.150830e+00 2.962413e+00 
8.185500e+00 2.937400e+00 
8.220770e+00 2.912252e+00 
8.255430e+00 2.887825e+00 
8.290100e+00 2.863769e+00 
8.324770e+00 2.839999e+00 
8.359430e+00 2.816506e+00 
8.394700e+00 2.792873e+00 
8.429960e+00 2.769570e+00 
8.464630e+00 2.746970e+00 
8.499890e+00 2.724244e+00 
8.534560e+00 2.702150e+00 
8.569200e+00 2.680321e+00 
