# Parameters:
# omega_b = 0.021610, omega_m = 0.137638, n_s = 0.906693, h = 66.102362, w = -1.000000, sigma_8 = 0.851181
# z = 1.500000
#
# k[1/Mpc] # P(k):
8.694000e-04 6.104589e+03 
2.077466e-03 1.237400e+04 
3.285532e-03 1.702122e+04 
4.493598e-03 2.044632e+04 
5.701664e-03 2.288831e+04 
6.909730e-03 2.453461e+04 
8.117797e-03 2.557355e+04 
9.325863e-03 2.610387e+04 
1.053393e-02 2.622130e+04 
1.174199e-02 2.601105e+04 
1.295006e-02 2.552640e+04 
1.415813e-02 2.483610e+04 
1.536619e-02 2.399894e+04 
1.657426e-02 2.305357e+04 
1.778233e-02 2.203435e+04 
1.899039e-02 2.099220e+04 
2.019846e-02 1.995422e+04 
2.140652e-02 1.894354e+04 
2.261459e-02 1.797264e+04 
2.382266e-02 1.705667e+04 
2.503072e-02 1.620633e+04 
2.623879e-02 1.542484e+04 
2.744685e-02 1.471269e+04 
2.865492e-02 1.407034e+04 
2.986299e-02 1.349357e+04 
3.100100e-02 1.300811e+04 
3.220400e-02 1.255026e+04 
3.288100e-02 1.231682e+04 
3.424300e-02 1.189158e+04 
3.555100e-02 1.153086e+04 
3.686000e-02 1.120919e+04 
3.795000e-02 1.096480e+04 
3.929100e-02 1.068759e+04 
4.039800e-02 1.047160e+04 
4.164000e-02 1.023832e+04 
4.294400e-02 9.994594e+03 
4.415000e-02 9.770776e+03 
4.542900e-02 9.525580e+03 
4.660900e-02 9.296423e+03 
4.782300e-02 9.046893e+03 
4.892900e-02 8.814855e+03 
5.031200e-02 8.515589e+03 
5.155900e-02 8.236988e+03 
5.238100e-02 8.050855e+03 
5.378200e-02 7.731896e+03 
5.513400e-02 7.423703e+03 
5.627600e-02 7.166508e+03 
5.735300e-02 6.929344e+03 
5.870100e-02 6.642712e+03 
5.988700e-02 6.402448e+03 
6.113500e-02 6.162498e+03 
6.225900e-02 5.958831e+03 
6.340100e-02 5.764162e+03 
6.480200e-02 5.541408e+03 
6.601100e-02 5.364774e+03 
6.725500e-02 5.197344e+03 
6.829100e-02 5.069901e+03 
6.958600e-02 4.923397e+03 
7.071100e-02 4.808496e+03 
7.192300e-02 4.696106e+03 
7.307400e-02 4.599407e+03 
7.412300e-02 4.518894e+03 
7.550400e-02 4.423456e+03 
7.663100e-02 4.352089e+03 
7.791200e-02 4.278076e+03 
7.912700e-02 4.212544e+03 
8.027600e-02 4.153280e+03 
8.138400e-02 4.097742e+03 
8.272200e-02 4.031685e+03 
8.406100e-02 3.965490e+03 
8.534100e-02 3.900264e+03 
8.653800e-02 3.836805e+03 
8.759800e-02 3.779114e+03 
8.900300e-02 3.699818e+03 
9.009000e-02 3.635779e+03 
9.113300e-02 3.571771e+03 
9.239600e-02 3.492978e+03 
9.358000e-02 3.417167e+03 
9.496100e-02 3.326286e+03 
9.608400e-02 3.252302e+03 
9.727500e-02 3.174393e+03 
9.852600e-02 3.092027e+03 
9.973800e-02 3.014259e+03 
1.009000e-01 2.941593e+03 
1.020900e-01 2.869734e+03 
1.034000e-01 2.793987e+03 
1.046000e-01 2.727703e+03 
1.057200e-01 2.670055e+03 
1.069100e-01 2.611607e+03 
1.082500e-01 2.551004e+03 
1.093900e-01 2.503309e+03 
1.105400e-01 2.457834e+03 
1.116900e-01 2.416934e+03 
1.129600e-01 2.374144e+03 
1.142000e-01 2.336449e+03 
1.153300e-01 2.304022e+03 
1.166400e-01 2.269022e+03 
1.177800e-01 2.240469e+03 
1.190000e-01 2.211182e+03 
1.201200e-01 2.185418e+03 
1.213400e-01 2.158102e+03 
1.227100e-01 2.127813e+03 
1.238900e-01 2.102129e+03 
1.250700e-01 2.076151e+03 
1.263200e-01 2.048768e+03 
1.275500e-01 2.021330e+03 
1.287500e-01 1.994463e+03 
1.299900e-01 1.966203e+03 
1.311300e-01 1.940081e+03 
1.323500e-01 1.911653e+03 
1.335900e-01 1.882745e+03 
1.347100e-01 1.856313e+03 
1.359800e-01 1.826555e+03 
1.372100e-01 1.797488e+03 
1.384300e-01 1.769052e+03 
1.395700e-01 1.742419e+03 
1.407700e-01 1.714958e+03 
1.420300e-01 1.686327e+03 
1.432800e-01 1.658589e+03 
1.444500e-01 1.633178e+03 
1.456300e-01 1.608104e+03 
1.468900e-01 1.582262e+03 
1.480500e-01 1.559090e+03 
1.491700e-01 1.537480e+03 
1.503800e-01 1.515005e+03 
1.516400e-01 1.492282e+03 
1.528200e-01 1.472221e+03 
1.540200e-01 1.452230e+03 
1.551900e-01 1.433884e+03 
1.564300e-01 1.415008e+03 
1.576600e-01 1.397032e+03 
1.588700e-01 1.380143e+03 
1.600900e-01 1.363470e+03 
1.612700e-01 1.348193e+03 
1.625400e-01 1.332062e+03 
1.637600e-01 1.317010e+03 
1.649500e-01 1.302685e+03 
1.662200e-01 1.287667e+03 
1.674000e-01 1.273907e+03 
1.685000e-01 1.261297e+03 
1.697500e-01 1.247051e+03 
1.710300e-01 1.232570e+03 
1.722200e-01 1.219350e+03 
1.734400e-01 1.205601e+03 
1.746400e-01 1.192298e+03 
1.758700e-01 1.178752e+03 
1.770900e-01 1.165252e+03 
1.782700e-01 1.152419e+03 
1.794600e-01 1.139485e+03 
1.807000e-01 1.126100e+03 
1.819100e-01 1.113266e+03 
1.830100e-01 1.101620e+03 
1.842200e-01 1.088990e+03 
1.855000e-01 1.075860e+03 
1.867000e-01 1.063740e+03 
1.879200e-01 1.051623e+03 
1.890900e-01 1.040210e+03 
1.902800e-01 1.028864e+03 
1.915200e-01 1.017237e+03 
1.926900e-01 1.006491e+03 
1.939000e-01 9.957062e+02 
1.951700e-01 9.845725e+02 
1.963100e-01 9.747972e+02 
1.975100e-01 9.648249e+02 
1.987800e-01 9.544396e+02 
2.000100e-01 9.446054e+02 
2.012500e-01 9.349922e+02 
2.023400e-01 9.266662e+02 
2.036100e-01 9.171416e+02 
2.048900e-01 9.078203e+02 
2.060400e-01 8.995714e+02 
2.072200e-01 8.912355e+02 
2.084200e-01 8.829663e+02 
2.096900e-01 8.743455e+02 
2.109200e-01 8.661219e+02 
2.121100e-01 8.582988e+02 
2.132700e-01 8.507805e+02 
2.145200e-01 8.427944e+02 
2.157200e-01 8.352228e+02 
2.168800e-01 8.279975e+02 
2.180700e-01 8.206869e+02 
2.193400e-01 8.129736e+02 
2.206000e-01 8.053912e+02 
2.217500e-01 7.985666e+02 
2.229500e-01 7.915410e+02 
2.241400e-01 7.845943e+02 
2.253500e-01 7.776251e+02 
2.264900e-01 7.711463e+02 
2.277100e-01 7.642684e+02 
2.289900e-01 7.571130e+02 
2.301500e-01 7.507167e+02 
2.313600e-01 7.441320e+02 
2.325600e-01 7.376296e+02 
2.337700e-01 7.311602e+02 
2.350000e-01 7.246718e+02 
2.362000e-01 7.184061e+02 
2.374100e-01 7.121481e+02 
2.386500e-01 7.058199e+02 
2.399100e-01 6.994763e+02 
2.410400e-01 6.938525e+02 
2.422500e-01 6.879049e+02 
2.435000e-01 6.818409e+02 
2.447300e-01 6.759554e+02 
2.458700e-01 6.705811e+02 
2.470600e-01 6.650396e+02 
2.483300e-01 6.592013e+02 
2.495600e-01 6.536350e+02 
2.507600e-01 6.482926e+02 
2.519600e-01 6.430160e+02 
2.532200e-01 6.375451e+02 
2.543700e-01 6.326416e+02 
2.555500e-01 6.276889e+02 
2.568000e-01 6.225064e+02 
2.580100e-01 6.175513e+02 
2.592400e-01 6.126163e+02 
2.604100e-01 6.079955e+02 
2.616100e-01 6.033114e+02 
2.628400e-01 5.985672e+02 
2.640600e-01 5.939589e+02 
2.652200e-01 5.896440e+02 
2.664300e-01 5.851943e+02 
2.676500e-01 5.807601e+02 
2.688400e-01 5.765121e+02 
2.700700e-01 5.721888e+02 
2.712400e-01 5.681230e+02 
2.724800e-01 5.638625e+02 
2.736700e-01 5.598415e+02 
2.748800e-01 5.558201e+02 
2.761000e-01 5.518110e+02 
2.773200e-01 5.478469e+02 
2.785400e-01 5.439353e+02 
2.797000e-01 5.402740e+02 
2.808900e-01 5.365579e+02 
2.821400e-01 5.326974e+02 
2.833900e-01 5.288810e+02 
2.845500e-01 5.253921e+02 
2.857800e-01 5.217320e+02 
2.870300e-01 5.180532e+02 
2.882100e-01 5.146178e+02 
2.893900e-01 5.112255e+02 
2.906300e-01 5.077026e+02 
2.918900e-01 5.041618e+02 
2.930500e-01 5.009362e+02 
2.942500e-01 4.976346e+02 
2.954200e-01 4.944521e+02 
2.966500e-01 4.911408e+02 
2.978900e-01 4.878378e+02 
2.990400e-01 4.848056e+02 
3.002700e-01 4.815964e+02 
3.015100e-01 4.783954e+02 
3.026800e-01 4.754057e+02 
3.038500e-01 4.724452e+02 
3.050300e-01 4.694887e+02 
3.062600e-01 4.664384e+02 
3.075000e-01 4.633947e+02 
3.087000e-01 4.604788e+02 
3.099100e-01 4.575676e+02 
3.111200e-01 4.546865e+02 
3.123100e-01 4.518829e+02 
3.135300e-01 4.490366e+02 
3.147300e-01 4.462644e+02 
3.159900e-01 4.433824e+02 
3.171800e-01 4.406889e+02 
3.183700e-01 4.380220e+02 
3.196300e-01 4.352259e+02 
3.208400e-01 4.325669e+02 
3.220300e-01 4.299767e+02 
3.232000e-01 4.274574e+02 
3.244300e-01 4.248352e+02 
3.256700e-01 4.222172e+02 
3.269200e-01 4.196037e+02 
3.280800e-01 4.172010e+02 
3.292500e-01 4.148055e+02 
3.304800e-01 4.123123e+02 
3.317100e-01 4.098427e+02 
3.328900e-01 4.074952e+02 
3.340700e-01 4.051688e+02 
3.353600e-01 4.026568e+02 
3.365300e-01 4.004024e+02 
3.377100e-01 3.981488e+02 
3.389200e-01 3.958587e+02 
3.401600e-01 3.935332e+02 
3.413700e-01 3.912919e+02 
3.425300e-01 3.891670e+02 
3.437700e-01 3.869157e+02 
3.449800e-01 3.847387e+02 
3.461800e-01 3.825987e+02 
3.473600e-01 3.805167e+02 
3.485800e-01 3.783925e+02 
3.498100e-01 3.762698e+02 
3.510200e-01 3.742001e+02 
3.522000e-01 3.721991e+02 
3.533900e-01 3.701982e+02 
3.546400e-01 3.681272e+02 
3.558400e-01 3.661571e+02 
3.570600e-01 3.641712e+02 
3.582700e-01 3.622186e+02 
3.595000e-01 3.602507e+02 
3.607100e-01 3.583393e+02 
3.618900e-01 3.564970e+02 
3.631200e-01 3.545927e+02 
3.643200e-01 3.527505e+02 
3.655500e-01 3.508782e+02 
3.667300e-01 3.490968e+02 
3.679500e-01 3.472854e+02 
3.691900e-01 3.454598e+02 
3.703600e-01 3.437513e+02 
3.715700e-01 3.419987e+02 
3.727700e-01 3.402748e+02 
3.739900e-01 3.385414e+02 
3.752000e-01 3.368452e+02 
3.763900e-01 3.351904e+02 
3.775800e-01 3.335488e+02 
3.788200e-01 3.318520e+02 
3.800300e-01 3.302097e+02 
3.812100e-01 3.286283e+02 
3.824200e-01 3.270246e+02 
3.836100e-01 3.254598e+02 
3.848600e-01 3.238291e+02 
3.860400e-01 3.223020e+02 
3.872400e-01 3.207610e+02 
3.884600e-01 3.192159e+02 
3.896500e-01 3.177240e+02 
3.908700e-01 3.162064e+02 
3.920600e-01 3.147374e+02 
3.933100e-01 3.132065e+02 
3.945300e-01 3.117239e+02 
3.957200e-01 3.102991e+02 
3.969300e-01 3.088640e+02 
3.981700e-01 3.074048e+02 
3.993500e-01 3.060267e+02 
4.094840e-01 2.946453e+02 
4.272360e-01 2.765749e+02 
4.454600e-01 2.600709e+02 
4.630560e-01 2.457829e+02 
4.804610e-01 2.330031e+02 
4.980690e-01 2.212521e+02 
5.159230e-01 2.103774e+02 
5.317440e-01 2.015213e+02 
5.489640e-01 1.926154e+02 
5.671990e-01 1.839348e+02 
5.838690e-01 1.766104e+02 
6.018840e-01 1.692853e+02 
6.202330e-01 1.623963e+02 
6.379250e-01 1.562395e+02 
6.545410e-01 1.508648e+02 
6.714560e-01 1.457514e+02 
6.892080e-01 1.407445e+02 
7.066010e-01 1.361708e+02 
7.240540e-01 1.318656e+02 
7.420450e-01 1.277198e+02 
7.593780e-01 1.239721e+02 
7.764720e-01 1.204906e+02 
7.942840e-01 1.170707e+02 
8.116170e-01 1.139363e+02 
8.288310e-01 1.109923e+02 
8.462240e-01 1.081775e+02 
8.631980e-01 1.055684e+02 
8.810700e-01 1.029576e+02 
8.989410e-01 1.004744e+02 
9.166330e-01 9.813617e+01 
9.345640e-01 9.588116e+01 
9.515980e-01 9.383217e+01 
9.688720e-01 9.184073e+01 
9.865640e-01 8.988890e+01 
1.031870e+00 8.523892e+01 
1.063490e+00 8.226043e+01 
1.097920e+00 7.923844e+01 
1.134370e+00 7.625439e+01 
1.167730e+00 7.370071e+01 
1.203830e+00 7.109981e+01 
1.240470e+00 6.862403e+01 
1.275790e+00 6.637480e+01 
1.309140e+00 6.436710e+01 
1.342970e+00 6.242419e+01 
1.378420e+00 6.049594e+01 
1.413200e+00 5.869676e+01 
1.448110e+00 5.697583e+01 
1.484090e+00 5.528579e+01 
1.518820e+00 5.372807e+01 
1.552880e+00 5.226665e+01 
1.588630e+00 5.079772e+01 
1.623230e+00 4.943766e+01 
1.657720e+00 4.813507e+01 
1.692450e+00 4.687849e+01 
1.726400e+00 4.569605e+01 
1.762200e+00 4.449586e+01 
1.797880e+00 4.334648e+01 
1.833270e+00 4.225133e+01 
1.869070e+00 4.118347e+01 
1.903200e+00 4.020244e+01 
1.937740e+00 3.924488e+01 
1.973190e+00 3.829680e+01 
2.007440e+00 3.741298e+01 
2.042160e+00 3.654607e+01 
2.077900e+00 3.568350e+01 
2.112390e+00 3.487992e+01 
2.146220e+00 3.411566e+01 
2.181600e+00 3.334245e+01 
2.216930e+00 3.259466e+01 
2.250760e+00 3.190135e+01 
2.286500e+00 3.119195e+01 
2.321770e+00 3.051371e+01 
2.355950e+00 2.987698e+01 
2.391280e+00 2.923602e+01 
2.426240e+00 2.862114e+01 
2.460670e+00 2.803410e+01 
2.495640e+00 2.745591e+01 
2.531080e+00 2.688561e+01 
2.566220e+00 2.633582e+01 
2.600830e+00 2.581003e+01 
2.635080e+00 2.530481e+01 
2.670340e+00 2.479779e+01 
2.705970e+00 2.429995e+01 
2.740040e+00 2.383718e+01 
2.774520e+00 2.338069e+01 
2.809730e+00 2.292631e+01 
2.844390e+00 2.249131e+01 
2.879960e+00 2.205703e+01 
2.914860e+00 2.164146e+01 
2.949410e+00 2.124095e+01 
2.984440e+00 2.084476e+01 
3.019760e+00 2.045519e+01 
3.054730e+00 2.007957e+01 
3.089030e+00 1.971977e+01 
3.124060e+00 1.936182e+01 
3.159560e+00 1.900813e+01 
3.194710e+00 1.866629e+01 
3.229010e+00 1.834125e+01 
3.263320e+00 1.802250e+01 
3.297930e+00 1.770903e+01 
3.332830e+00 1.740027e+01 
3.368040e+00 1.709629e+01 
3.403300e+00 1.679940e+01 
3.438450e+00 1.650988e+01 
3.473060e+00 1.623187e+01 
3.508440e+00 1.595323e+01 
3.543110e+00 1.568700e+01 
3.577470e+00 1.542902e+01 
3.613040e+00 1.516819e+01 
3.648120e+00 1.491613e+01 
3.682910e+00 1.467199e+01 
3.718050e+00 1.443082e+01 
3.753320e+00 1.419419e+01 
3.787980e+00 1.396655e+01 
3.822290e+00 1.374617e+01 
3.857020e+00 1.352778e+01 
3.891920e+00 1.331309e+01 
3.926650e+00 1.310373e+01 
3.961970e+00 1.289559e+01 
3.997360e+00 1.269152e+01 
4.031670e+00 1.249802e+01 
4.066330e+00 1.230625e+01 
4.101420e+00 1.211641e+01 
4.136200e+00 1.193174e+01 
4.170810e+00 1.175200e+01 
4.206250e+00 1.157162e+01 
4.241580e+00 1.139570e+01 
4.276300e+00 1.122625e+01 
4.310970e+00 1.106047e+01 
4.346120e+00 1.089581e+01 
4.380600e+00 1.073738e+01 
4.414730e+00 1.058379e+01 
4.450350e+00 1.042656e+01 
4.485320e+00 1.027542e+01 
4.519810e+00 1.012919e+01 
4.555430e+00 9.981160e+00 
4.590870e+00 9.836814e+00 
4.625480e+00 9.698479e+00 
4.659910e+00 9.563590e+00 
4.695230e+00 9.427953e+00 
4.729960e+00 9.297226e+00 
4.764450e+00 9.169834e+00 
4.799530e+00 9.042624e+00 
4.834910e+00 8.916836e+00 
4.869700e+00 8.795459e+00 
4.904370e+00 8.676791e+00 
4.939450e+00 8.558988e+00 
4.973940e+00 8.445312e+00 
5.008430e+00 8.333746e+00 
5.043810e+00 8.221363e+00 
5.078840e+00 8.112131e+00 
5.113500e+00 8.006043e+00 
5.148890e+00 7.899718e+00 
5.184210e+00 7.795562e+00 
5.219060e+00 7.694675e+00 
5.253660e+00 7.596342e+00 
5.288570e+00 7.498895e+00 
5.323420e+00 7.403334e+00 
5.358440e+00 7.308996e+00 
5.393590e+00 7.215982e+00 
5.428310e+00 7.125781e+00 
5.462800e+00 7.037756e+00 
5.497640e+00 6.950364e+00 
5.532670e+00 6.864106e+00 
5.567280e+00 6.780365e+00 
5.602000e+00 6.697774e+00 
5.637270e+00 6.615341e+00 
5.672410e+00 6.534613e+00 
5.707020e+00 6.456429e+00 
5.742040e+00 6.378795e+00 
5.777430e+00 6.301681e+00 
5.812210e+00 6.227146e+00 
5.846820e+00 6.154210e+00 
5.881610e+00 6.082087e+00 
5.916510e+00 6.010901e+00 
5.951600e+00 5.940584e+00 
5.986560e+00 5.871695e+00 
6.021830e+00 5.803306e+00 
6.056490e+00 5.737276e+00 
6.091160e+00 5.672352e+00 
6.125830e+00 5.608435e+00 
6.161090e+00 5.544481e+00 
6.195760e+00 5.482654e+00 
6.230420e+00 5.421788e+00 
6.265690e+00 5.360808e+00 
6.300950e+00 5.300965e+00 
6.335620e+00 5.243015e+00 
6.370880e+00 5.184967e+00 
6.405550e+00 5.128846e+00 
6.440220e+00 5.073595e+00 
6.475480e+00 5.018238e+00 
6.510150e+00 4.964670e+00 
6.544810e+00 4.912030e+00 
6.580080e+00 4.859247e+00 
6.614750e+00 4.808117e+00 
6.649410e+00 4.757866e+00 
6.684080e+00 4.708344e+00 
6.719340e+00 4.658700e+00 
6.754010e+00 4.610648e+00 
6.788680e+00 4.563422e+00 
6.823940e+00 4.516070e+00 
6.859800e+00 4.468599e+00 
6.894470e+00 4.423458e+00 
6.929140e+00 4.378979e+00 
6.963800e+00 4.335122e+00 
6.999070e+00 4.291119e+00 
7.033730e+00 4.248635e+00 
7.068400e+00 4.206714e+00 
7.103660e+00 4.164657e+00 
7.138330e+00 4.123914e+00 
7.173600e+00 4.083130e+00 
7.208260e+00 4.043587e+00 
7.243530e+00 4.003883e+00 
7.277600e+00 3.966109e+00 
7.312860e+00 3.927595e+00 
7.348120e+00 3.889590e+00 
7.382790e+00 3.852709e+00 
7.417460e+00 3.816451e+00 
7.452720e+00 3.780128e+00 
7.487390e+00 3.744873e+00 
7.522650e+00 3.709478e+00 
7.557320e+00 3.675221e+00 
7.591990e+00 3.641432e+00 
7.627250e+00 3.607503e+00 
7.662510e+00 3.574004e+00 
7.697180e+00 3.541598e+00 
7.731850e+00 3.509638e+00 
7.766510e+00 3.478080e+00 
7.801180e+00 3.446899e+00 
7.836440e+00 3.415658e+00 
7.871110e+00 3.385365e+00 
7.906380e+00 3.354923e+00 
7.941040e+00 3.325372e+00 
7.976310e+00 3.295731e+00 
8.011570e+00 3.266538e+00 
8.046240e+00 3.238177e+00 
8.080900e+00 3.210161e+00 
8.115570e+00 3.182497e+00 
8.150830e+00 3.154813e+00 
8.185500e+00 3.127913e+00 
8.220770e+00 3.100868e+00 
8.255430e+00 3.074602e+00 
8.290100e+00 3.048766e+00 
8.324770e+00 3.023243e+00 
8.359430e+00 2.998019e+00 
8.394700e+00 2.972646e+00 
8.429960e+00 2.947639e+00 
8.464630e+00 2.923398e+00 
8.499890e+00 2.899024e+00 
8.534560e+00 2.875328e+00 
8.569200e+00 2.851917e+00 
