# Parameters:
# omega_b = 0.022933, omega_m = 0.138189, n_s = 1.031102, h = 59.488189, w = -1.000000, sigma_8 = 0.879528
# z = 1.500000
#
# k[1/Mpc] # P(k):
8.694000e-04 3.925508e+03 
2.077466e-03 8.862724e+03 
3.285532e-03 1.290000e+04 
4.493598e-03 1.612333e+04 
5.701664e-03 1.859845e+04 
6.909730e-03 2.042198e+04 
8.117797e-03 2.172154e+04 
9.325863e-03 2.256174e+04 
1.053393e-02 2.301080e+04 
1.174199e-02 2.313373e+04 
1.295006e-02 2.297230e+04 
1.415813e-02 2.258650e+04 
1.536619e-02 2.203034e+04 
1.657426e-02 2.134153e+04 
1.778233e-02 2.055384e+04 
1.899039e-02 1.971757e+04 
2.019846e-02 1.886085e+04 
2.140652e-02 1.800878e+04 
2.261459e-02 1.717570e+04 
2.382266e-02 1.637867e+04 
2.503072e-02 1.563030e+04 
2.623879e-02 1.493592e+04 
2.744685e-02 1.429771e+04 
2.865492e-02 1.371879e+04 
2.986299e-02 1.319712e+04 
3.100100e-02 1.275742e+04 
3.220400e-02 1.234331e+04 
3.288100e-02 1.213303e+04 
3.424300e-02 1.175258e+04 
3.555100e-02 1.143377e+04 
3.686000e-02 1.115416e+04 
3.795000e-02 1.094529e+04 
3.929100e-02 1.071339e+04 
4.039800e-02 1.053579e+04 
4.164000e-02 1.034586e+04 
4.294400e-02 1.014848e+04 
4.415000e-02 9.966444e+03 
4.542900e-02 9.763992e+03 
4.660900e-02 9.571883e+03 
4.782300e-02 9.356871e+03 
4.892900e-02 9.152955e+03 
5.031200e-02 8.883597e+03 
5.155900e-02 8.626271e+03 
5.238100e-02 8.451419e+03 
5.378200e-02 8.147345e+03 
5.513400e-02 7.849234e+03 
5.627600e-02 7.598754e+03 
5.735300e-02 7.368117e+03 
5.870100e-02 7.091918e+03 
5.988700e-02 6.864260e+03 
6.113500e-02 6.641194e+03 
6.225900e-02 6.455064e+03 
6.340100e-02 6.278700e+03 
6.480200e-02 6.076581e+03 
6.601100e-02 5.913613e+03 
6.725500e-02 5.755174e+03 
6.829100e-02 5.630783e+03 
6.958600e-02 5.484100e+03 
7.071100e-02 5.365833e+03 
7.192300e-02 5.247809e+03 
7.307400e-02 5.144652e+03 
7.412300e-02 5.057914e+03 
7.550400e-02 4.954406e+03 
7.663100e-02 4.876874e+03 
7.791200e-02 4.796793e+03 
7.912700e-02 4.726563e+03 
8.027600e-02 4.663732e+03 
8.138400e-02 4.605495e+03 
8.272200e-02 4.537138e+03 
8.406100e-02 4.469523e+03 
8.534100e-02 4.403714e+03 
8.653800e-02 4.340088e+03 
8.759800e-02 4.282346e+03 
8.900300e-02 4.202969e+03 
9.009000e-02 4.138678e+03 
9.113300e-02 4.074070e+03 
9.239600e-02 3.994150e+03 
9.358000e-02 3.916702e+03 
9.496100e-02 3.822932e+03 
9.608400e-02 3.746009e+03 
9.727500e-02 3.664518e+03 
9.852600e-02 3.577276e+03 
9.973800e-02 3.494357e+03 
1.009000e-01 3.416420e+03 
1.020900e-01 3.338384e+03 
1.034000e-01 3.255633e+03 
1.046000e-01 3.182726e+03 
1.057200e-01 3.118584e+03 
1.069100e-01 3.053267e+03 
1.082500e-01 2.984815e+03 
1.093900e-01 2.930521e+03 
1.105400e-01 2.878499e+03 
1.116900e-01 2.831220e+03 
1.129600e-01 2.781603e+03 
1.142000e-01 2.737576e+03 
1.153300e-01 2.699657e+03 
1.166400e-01 2.658654e+03 
1.177800e-01 2.625319e+03 
1.190000e-01 2.591181e+03 
1.201200e-01 2.561502e+03 
1.213400e-01 2.530098e+03 
1.227100e-01 2.495998e+03 
1.238900e-01 2.467242e+03 
1.250700e-01 2.438669e+03 
1.263200e-01 2.408738e+03 
1.275500e-01 2.379153e+03 
1.287500e-01 2.350346e+03 
1.299900e-01 2.320294e+03 
1.311300e-01 2.292582e+03 
1.323500e-01 2.262524e+03 
1.335900e-01 2.231940e+03 
1.347100e-01 2.203954e+03 
1.359800e-01 2.172370e+03 
1.372100e-01 2.141388e+03 
1.384300e-01 2.110973e+03 
1.395700e-01 2.082274e+03 
1.407700e-01 2.052628e+03 
1.420300e-01 2.021376e+03 
1.432800e-01 1.991075e+03 
1.444500e-01 1.962959e+03 
1.456300e-01 1.935197e+03 
1.468900e-01 1.906313e+03 
1.480500e-01 1.880321e+03 
1.491700e-01 1.855953e+03 
1.503800e-01 1.830449e+03 
1.516400e-01 1.804608e+03 
1.528200e-01 1.781599e+03 
1.540200e-01 1.758661e+03 
1.551900e-01 1.737473e+03 
1.564300e-01 1.715634e+03 
1.576600e-01 1.694786e+03 
1.588700e-01 1.675139e+03 
1.600900e-01 1.655738e+03 
1.612700e-01 1.637926e+03 
1.625400e-01 1.619115e+03 
1.637600e-01 1.601576e+03 
1.649500e-01 1.584890e+03 
1.662200e-01 1.567407e+03 
1.674000e-01 1.551450e+03 
1.685000e-01 1.536825e+03 
1.697500e-01 1.520347e+03 
1.710300e-01 1.503642e+03 
1.722200e-01 1.488388e+03 
1.734400e-01 1.472620e+03 
1.746400e-01 1.457362e+03 
1.758700e-01 1.441846e+03 
1.770900e-01 1.426425e+03 
1.782700e-01 1.411762e+03 
1.794600e-01 1.397007e+03 
1.807000e-01 1.381751e+03 
1.819100e-01 1.367118e+03 
1.830100e-01 1.353844e+03 
1.842200e-01 1.339443e+03 
1.855000e-01 1.324467e+03 
1.867000e-01 1.310629e+03 
1.879200e-01 1.296790e+03 
1.890900e-01 1.283745e+03 
1.902800e-01 1.270752e+03 
1.915200e-01 1.257430e+03 
1.926900e-01 1.245107e+03 
1.939000e-01 1.232709e+03 
1.951700e-01 1.219907e+03 
1.963100e-01 1.208654e+03 
1.975100e-01 1.197150e+03 
1.987800e-01 1.185166e+03 
2.000100e-01 1.173807e+03 
2.012500e-01 1.162684e+03 
2.023400e-01 1.153048e+03 
2.036100e-01 1.142018e+03 
2.048900e-01 1.131206e+03 
2.060400e-01 1.121635e+03 
2.072200e-01 1.111961e+03 
2.084200e-01 1.102348e+03 
2.096900e-01 1.092324e+03 
2.109200e-01 1.082759e+03 
2.121100e-01 1.073640e+03 
2.132700e-01 1.064873e+03 
2.145200e-01 1.055558e+03 
2.157200e-01 1.046705e+03 
2.168800e-01 1.038247e+03 
2.180700e-01 1.029688e+03 
2.193400e-01 1.020636e+03 
2.206000e-01 1.011703e+03 
2.217500e-01 1.003660e+03 
2.229500e-01 9.953794e+02 
2.241400e-01 9.871252e+02 
2.253500e-01 9.788409e+02 
2.264900e-01 9.711379e+02 
2.277100e-01 9.629175e+02 
2.289900e-01 9.543180e+02 
2.301500e-01 9.466293e+02 
2.313600e-01 9.387120e+02 
2.325600e-01 9.307998e+02 
2.337700e-01 9.229265e+02 
2.350000e-01 9.150290e+02 
2.362000e-01 9.073614e+02 
2.374100e-01 8.996549e+02 
2.386500e-01 8.918613e+02 
2.399100e-01 8.840478e+02 
2.410400e-01 8.770578e+02 
2.422500e-01 8.696568e+02 
2.435000e-01 8.621106e+02 
2.447300e-01 8.547774e+02 
2.458700e-01 8.480466e+02 
2.470600e-01 8.411060e+02 
2.483300e-01 8.337934e+02 
2.495600e-01 8.268152e+02 
2.507600e-01 8.201092e+02 
2.519600e-01 8.134856e+02 
2.532200e-01 8.066179e+02 
2.543700e-01 8.004725e+02 
2.555500e-01 7.942721e+02 
2.568000e-01 7.877837e+02 
2.580100e-01 7.815800e+02 
2.592400e-01 7.754298e+02 
2.604100e-01 7.696837e+02 
2.616100e-01 7.638584e+02 
2.628400e-01 7.579582e+02 
2.640600e-01 7.522656e+02 
2.652200e-01 7.469505e+02 
2.664300e-01 7.414689e+02 
2.676500e-01 7.360059e+02 
2.688400e-01 7.308068e+02 
2.700700e-01 7.255370e+02 
2.712400e-01 7.205803e+02 
2.724800e-01 7.153858e+02 
2.736700e-01 7.105070e+02 
2.748800e-01 7.056524e+02 
2.761000e-01 7.008118e+02 
2.773200e-01 6.960249e+02 
2.785400e-01 6.913130e+02 
2.797000e-01 6.869273e+02 
2.808900e-01 6.824754e+02 
2.821400e-01 6.778497e+02 
2.833900e-01 6.732771e+02 
2.845500e-01 6.691225e+02 
2.857800e-01 6.647633e+02 
2.870300e-01 6.603811e+02 
2.882100e-01 6.562880e+02 
2.893900e-01 6.522568e+02 
2.906300e-01 6.480755e+02 
2.918900e-01 6.438723e+02 
2.930500e-01 6.400426e+02 
2.942500e-01 6.361240e+02 
2.954200e-01 6.323527e+02 
2.966500e-01 6.284280e+02 
2.978900e-01 6.245124e+02 
2.990400e-01 6.209172e+02 
3.002700e-01 6.171136e+02 
3.015100e-01 6.133200e+02 
3.026800e-01 6.097762e+02 
3.038500e-01 6.062664e+02 
3.050300e-01 6.027607e+02 
3.062600e-01 5.991440e+02 
3.075000e-01 5.955344e+02 
3.087000e-01 5.920757e+02 
3.099100e-01 5.886220e+02 
3.111200e-01 5.852028e+02 
3.123100e-01 5.818738e+02 
3.135300e-01 5.784936e+02 
3.147300e-01 5.752007e+02 
3.159900e-01 5.717768e+02 
3.171800e-01 5.685741e+02 
3.183700e-01 5.654012e+02 
3.196300e-01 5.620738e+02 
3.208400e-01 5.589091e+02 
3.220300e-01 5.558257e+02 
3.232000e-01 5.528241e+02 
3.244300e-01 5.496986e+02 
3.256700e-01 5.465775e+02 
3.269200e-01 5.434611e+02 
3.280800e-01 5.405956e+02 
3.292500e-01 5.377362e+02 
3.304800e-01 5.347591e+02 
3.317100e-01 5.318095e+02 
3.328900e-01 5.290053e+02 
3.340700e-01 5.262258e+02 
3.353600e-01 5.232215e+02 
3.365300e-01 5.205239e+02 
3.377100e-01 5.178268e+02 
3.389200e-01 5.150855e+02 
3.401600e-01 5.123014e+02 
3.413700e-01 5.096160e+02 
3.425300e-01 5.070687e+02 
3.437700e-01 5.043694e+02 
3.449800e-01 5.017587e+02 
3.461800e-01 4.991920e+02 
3.473600e-01 4.966938e+02 
3.485800e-01 4.941433e+02 
3.498100e-01 4.915943e+02 
3.510200e-01 4.891084e+02 
3.522000e-01 4.867046e+02 
3.533900e-01 4.843007e+02 
3.546400e-01 4.818102e+02 
3.558400e-01 4.794407e+02 
3.570600e-01 4.770519e+02 
3.582700e-01 4.747026e+02 
3.595000e-01 4.723347e+02 
3.607100e-01 4.700338e+02 
3.618900e-01 4.678155e+02 
3.631200e-01 4.655223e+02 
3.643200e-01 4.633035e+02 
3.655500e-01 4.610480e+02 
3.667300e-01 4.589018e+02 
3.679500e-01 4.567181e+02 
3.691900e-01 4.545168e+02 
3.703600e-01 4.524566e+02 
3.715700e-01 4.503429e+02 
3.727700e-01 4.482634e+02 
3.739900e-01 4.461722e+02 
3.752000e-01 4.441257e+02 
3.763900e-01 4.421290e+02 
3.775800e-01 4.401477e+02 
3.788200e-01 4.380997e+02 
3.800300e-01 4.361171e+02 
3.812100e-01 4.342076e+02 
3.824200e-01 4.322708e+02 
3.836100e-01 4.303807e+02 
3.848600e-01 4.284109e+02 
3.860400e-01 4.265658e+02 
3.872400e-01 4.247037e+02 
3.884600e-01 4.228363e+02 
3.896500e-01 4.210329e+02 
3.908700e-01 4.191980e+02 
3.920600e-01 4.174219e+02 
3.933100e-01 4.155705e+02 
3.945300e-01 4.137775e+02 
3.957200e-01 4.120544e+02 
3.969300e-01 4.103190e+02 
3.981700e-01 4.085541e+02 
3.993500e-01 4.068871e+02 
4.094840e-01 3.931065e+02 
4.272360e-01 3.711899e+02 
4.454600e-01 3.511085e+02 
4.630560e-01 3.336534e+02 
4.804610e-01 3.179660e+02 
4.980690e-01 3.034675e+02 
5.159230e-01 2.899707e+02 
5.317440e-01 2.789250e+02 
5.489640e-01 2.677533e+02 
5.671990e-01 2.568044e+02 
5.838690e-01 2.475275e+02 
6.018840e-01 2.382143e+02 
6.202330e-01 2.294172e+02 
6.379250e-01 2.215326e+02 
6.545410e-01 2.146283e+02 
6.714560e-01 2.080481e+02 
6.892080e-01 2.015914e+02 
7.066010e-01 1.956855e+02 
7.240540e-01 1.901130e+02 
7.420450e-01 1.847431e+02 
7.593780e-01 1.798806e+02 
7.764720e-01 1.753584e+02 
7.942840e-01 1.709080e+02 
8.116170e-01 1.668264e+02 
8.288310e-01 1.629843e+02 
8.462240e-01 1.593085e+02 
8.631980e-01 1.558932e+02 
8.810700e-01 1.524692e+02 
8.989410e-01 1.492035e+02 
9.166330e-01 1.461230e+02 
9.345640e-01 1.431475e+02 
9.515980e-01 1.404346e+02 
9.688720e-01 1.377900e+02 
9.865640e-01 1.351911e+02 
1.031870e+00 1.289640e+02 
1.063490e+00 1.249453e+02 
1.097920e+00 1.208437e+02 
1.134370e+00 1.167631e+02 
1.167730e+00 1.132471e+02 
1.203830e+00 1.096338e+02 
1.240470e+00 1.061718e+02 
1.275790e+00 1.030019e+02 
1.309140e+00 1.001550e+02 
1.342970e+00 9.737435e+01 
1.378420e+00 9.460081e+01 
1.413200e+00 9.199419e+01 
1.448110e+00 8.948585e+01 
1.484090e+00 8.700732e+01 
1.518820e+00 8.470876e+01 
1.552880e+00 8.253965e+01 
1.588630e+00 8.034825e+01 
1.623230e+00 7.830922e+01 
1.657720e+00 7.634598e+01 
1.692450e+00 7.444451e+01 
1.726400e+00 7.264666e+01 
1.762200e+00 7.081373e+01 
1.797880e+00 6.905047e+01 
1.833270e+00 6.736518e+01 
1.869070e+00 6.571493e+01 
1.903200e+00 6.419321e+01 
1.937740e+00 6.270385e+01 
1.973190e+00 6.122496e+01 
2.007440e+00 5.984263e+01 
2.042160e+00 5.848184e+01 
2.077900e+00 5.712428e+01 
2.112390e+00 5.585710e+01 
2.146220e+00 5.464859e+01 
2.181600e+00 5.342294e+01 
2.216930e+00 5.223487e+01 
2.250760e+00 5.113155e+01 
2.286500e+00 5.000071e+01 
2.321770e+00 4.891744e+01 
2.355950e+00 4.789919e+01 
2.391280e+00 4.687115e+01 
2.426240e+00 4.588379e+01 
2.460670e+00 4.494029e+01 
2.495640e+00 4.401019e+01 
2.531080e+00 4.309082e+01 
2.566220e+00 4.220333e+01 
2.600830e+00 4.135379e+01 
2.635080e+00 4.053690e+01 
2.670340e+00 3.971625e+01 
2.705970e+00 3.890973e+01 
2.740040e+00 3.815946e+01 
2.774520e+00 3.741872e+01 
2.809730e+00 3.668060e+01 
2.844390e+00 3.597372e+01 
2.879960e+00 3.526802e+01 
2.914860e+00 3.459205e+01 
2.949410e+00 3.394030e+01 
2.984440e+00 3.329520e+01 
3.019760e+00 3.266039e+01 
3.054730e+00 3.204807e+01 
3.089030e+00 3.146170e+01 
3.124060e+00 3.087830e+01 
3.159560e+00 3.030174e+01 
3.194710e+00 2.974428e+01 
3.229010e+00 2.921420e+01 
3.263320e+00 2.869432e+01 
3.297930e+00 2.818303e+01 
3.332830e+00 2.767930e+01 
3.368040e+00 2.718356e+01 
3.403300e+00 2.669953e+01 
3.438450e+00 2.622739e+01 
3.473060e+00 2.577405e+01 
3.508440e+00 2.531973e+01 
3.543110e+00 2.488579e+01 
3.577470e+00 2.446568e+01 
3.613040e+00 2.404092e+01 
3.648120e+00 2.363025e+01 
3.682910e+00 2.323272e+01 
3.718050e+00 2.284035e+01 
3.753320e+00 2.245542e+01 
3.787980e+00 2.208513e+01 
3.822290e+00 2.172681e+01 
3.857020e+00 2.137191e+01 
3.891920e+00 2.102313e+01 
3.926650e+00 2.068317e+01 
3.961970e+00 2.034538e+01 
3.997360e+00 2.001452e+01 
4.031670e+00 1.970085e+01 
4.066330e+00 1.939003e+01 
4.101420e+00 1.908243e+01 
4.136200e+00 1.878360e+01 
4.170810e+00 1.849282e+01 
4.206250e+00 1.820118e+01 
4.241580e+00 1.791682e+01 
4.276300e+00 1.764318e+01 
4.310970e+00 1.737566e+01 
4.346120e+00 1.711001e+01 
4.380600e+00 1.685455e+01 
4.414730e+00 1.660697e+01 
4.450350e+00 1.635385e+01 
4.485320e+00 1.611060e+01 
4.519810e+00 1.587549e+01 
4.555430e+00 1.563764e+01 
4.590870e+00 1.540577e+01 
4.625480e+00 1.518365e+01 
4.659910e+00 1.496711e+01 
4.695230e+00 1.474975e+01 
4.729960e+00 1.454036e+01 
4.764450e+00 1.433643e+01 
4.799530e+00 1.413295e+01 
4.834910e+00 1.393178e+01 
4.869700e+00 1.373790e+01 
4.904370e+00 1.354842e+01 
4.939450e+00 1.336040e+01 
4.973940e+00 1.317914e+01 
5.008430e+00 1.300128e+01 
5.043810e+00 1.282226e+01 
5.078840e+00 1.264836e+01 
5.113500e+00 1.247949e+01 
5.148890e+00 1.231054e+01 
5.184210e+00 1.214507e+01 
5.219060e+00 1.198486e+01 
5.253660e+00 1.182884e+01 
5.288570e+00 1.167425e+01 
5.323420e+00 1.152276e+01 
5.358440e+00 1.137330e+01 
5.393590e+00 1.122597e+01 
5.428310e+00 1.108325e+01 
5.462800e+00 1.094408e+01 
5.497640e+00 1.080593e+01 
5.532670e+00 1.066974e+01 
5.567280e+00 1.053759e+01 
5.602000e+00 1.040728e+01 
5.637270e+00 1.027731e+01 
5.672410e+00 1.015007e+01 
5.707020e+00 1.002685e+01 
5.742040e+00 9.904667e+00 
5.777430e+00 9.783343e+00 
5.812210e+00 9.666087e+00 
5.846820e+00 9.551444e+00 
5.881610e+00 9.438110e+00 
5.916510e+00 9.326260e+00 
5.951600e+00 9.215894e+00 
5.986560e+00 9.107830e+00 
6.021830e+00 9.000558e+00 
6.056490e+00 8.897066e+00 
6.091160e+00 8.795376e+00 
6.125830e+00 8.695270e+00 
6.161090e+00 8.595140e+00 
6.195760e+00 8.498403e+00 
6.230420e+00 8.403177e+00 
6.265690e+00 8.307780e+00 
6.300950e+00 8.214273e+00 
6.335620e+00 8.123729e+00 
6.370880e+00 8.033037e+00 
6.405550e+00 7.945410e+00 
6.440220e+00 7.859166e+00 
6.475480e+00 7.772762e+00 
6.510150e+00 7.689185e+00 
6.544810e+00 7.607131e+00 
6.580080e+00 7.524857e+00 
6.614750e+00 7.445163e+00 
6.649410e+00 7.366877e+00 
6.684080e+00 7.289736e+00 
6.719340e+00 7.212409e+00 
6.754010e+00 7.137590e+00 
6.788680e+00 7.064121e+00 
6.823940e+00 6.990458e+00 
6.859800e+00 6.916613e+00 
6.894470e+00 6.846414e+00 
6.929140e+00 6.777252e+00 
6.963800e+00 6.709060e+00 
6.999070e+00 6.640646e+00 
7.033730e+00 6.574626e+00 
7.068400e+00 6.509480e+00 
7.103660e+00 6.444127e+00 
7.138330e+00 6.380827e+00 
7.173600e+00 6.317484e+00 
7.208260e+00 6.256070e+00 
7.243530e+00 6.194409e+00 
7.277600e+00 6.135752e+00 
7.312860e+00 6.075953e+00 
7.348120e+00 6.016947e+00 
7.382790e+00 5.959688e+00 
7.417460e+00 5.903428e+00 
7.452720e+00 5.847087e+00 
7.487390e+00 5.792402e+00 
7.522650e+00 5.737501e+00 
7.557320e+00 5.684352e+00 
7.591990e+00 5.631927e+00 
7.627250e+00 5.579284e+00 
7.662510e+00 5.527311e+00 
7.697180e+00 5.477040e+00 
7.731850e+00 5.427465e+00 
7.766510e+00 5.378515e+00 
7.801180e+00 5.330152e+00 
7.836440e+00 5.281681e+00 
7.871110e+00 5.234673e+00 
7.906380e+00 5.187435e+00 
7.941040e+00 5.141580e+00 
7.976310e+00 5.095588e+00 
8.011570e+00 5.050294e+00 
8.046240e+00 5.006293e+00 
8.080900e+00 4.962826e+00 
8.115570e+00 4.919903e+00 
8.150830e+00 4.876934e+00 
8.185500e+00 4.835183e+00 
8.220770e+00 4.793208e+00 
8.255430e+00 4.752441e+00 
8.290100e+00 4.712343e+00 
8.324770e+00 4.672730e+00 
8.359430e+00 4.633582e+00 
8.394700e+00 4.594203e+00 
8.429960e+00 4.555380e+00 
8.464630e+00 4.517734e+00 
8.499890e+00 4.479882e+00 
8.534560e+00 4.443084e+00 
8.569200e+00 4.406729e+00 
