# Parameters:
# omega_b = 0.023469, omega_m = 0.122756, n_s = 0.985433, h = 56.889764, w = -1.000000, sigma_8 = 0.725197
# z = 1.500000
#
# k[1/Mpc] # P(k):
8.694000e-04 5.318666e+03 
2.077466e-03 1.138719e+04 
3.285532e-03 1.603647e+04 
4.493598e-03 1.950868e+04 
5.701664e-03 2.198332e+04 
6.909730e-03 2.363475e+04 
8.117797e-03 2.465289e+04 
9.325863e-03 2.513633e+04 
1.053393e-02 2.518289e+04 
1.174199e-02 2.488140e+04 
1.295006e-02 2.428897e+04 
1.415813e-02 2.348082e+04 
1.536619e-02 2.252404e+04 
1.657426e-02 2.146500e+04 
1.778233e-02 2.034247e+04 
1.899039e-02 1.921157e+04 
2.019846e-02 1.810167e+04 
2.140652e-02 1.703723e+04 
2.261459e-02 1.603152e+04 
2.382266e-02 1.509878e+04 
2.503072e-02 1.424710e+04 
2.623879e-02 1.347761e+04 
2.744685e-02 1.279046e+04 
2.865492e-02 1.218252e+04 
2.986299e-02 1.164769e+04 
3.100100e-02 1.120818e+04 
3.220400e-02 1.080365e+04 
3.288100e-02 1.060230e+04 
3.424300e-02 1.024419e+04 
3.555100e-02 9.949602e+03 
3.686000e-02 9.694896e+03 
3.795000e-02 9.505768e+03 
3.929100e-02 9.295280e+03 
4.039800e-02 9.131962e+03 
4.164000e-02 8.954506e+03 
4.294400e-02 8.764277e+03 
4.415000e-02 8.585028e+03 
4.542900e-02 8.380397e+03 
4.660900e-02 8.183523e+03 
4.782300e-02 7.960172e+03 
4.892900e-02 7.747743e+03 
5.031200e-02 7.467168e+03 
5.155900e-02 7.200687e+03 
5.238100e-02 7.021035e+03 
5.378200e-02 6.712169e+03 
5.513400e-02 6.415717e+03 
5.627600e-02 6.172957e+03 
5.735300e-02 5.955909e+03 
5.870100e-02 5.706361e+03 
5.988700e-02 5.510550e+03 
6.113500e-02 5.328443e+03 
6.225900e-02 5.184074e+03 
6.340100e-02 5.052341e+03 
6.480200e-02 4.904328e+03 
6.601100e-02 4.785405e+03 
6.725500e-02 4.667984e+03 
6.829100e-02 4.573971e+03 
6.958600e-02 4.461022e+03 
7.071100e-02 4.368398e+03 
7.192300e-02 4.274908e+03 
7.307400e-02 4.192449e+03 
7.412300e-02 4.122617e+03 
7.550400e-02 4.038490e+03 
7.663100e-02 3.974849e+03 
7.791200e-02 3.907916e+03 
7.912700e-02 3.847830e+03 
8.027600e-02 3.792878e+03 
8.138400e-02 3.740879e+03 
8.272200e-02 3.678382e+03 
8.406100e-02 3.615173e+03 
8.534100e-02 3.552390e+03 
8.653800e-02 3.491062e+03 
8.759800e-02 3.435244e+03 
8.900300e-02 3.358512e+03 
9.009000e-02 3.296631e+03 
9.113300e-02 3.234955e+03 
9.239600e-02 3.159242e+03 
9.358000e-02 3.086701e+03 
9.496100e-02 3.000291e+03 
9.608400e-02 2.930323e+03 
9.727500e-02 2.856957e+03 
9.852600e-02 2.780221e+03 
9.973800e-02 2.708205e+03 
1.009000e-01 2.641269e+03 
1.020900e-01 2.576008e+03 
1.034000e-01 2.507684e+03 
1.046000e-01 2.448386e+03 
1.057200e-01 2.397643e+03 
1.069100e-01 2.346488e+03 
1.082500e-01 2.294303e+03 
1.093900e-01 2.253709e+03 
1.105400e-01 2.215288e+03 
1.116900e-01 2.181269e+03 
1.129600e-01 2.145807e+03 
1.142000e-01 2.114806e+03 
1.153300e-01 2.088072e+03 
1.166400e-01 2.059121e+03 
1.177800e-01 2.035105e+03 
1.190000e-01 2.010281e+03 
1.201200e-01 1.987617e+03 
1.213400e-01 1.963437e+03 
1.227100e-01 1.935227e+03 
1.238900e-01 1.911033e+03 
1.250700e-01 1.885699e+03 
1.263200e-01 1.858743e+03 
1.275500e-01 1.831179e+03 
1.287500e-01 1.804070e+03 
1.299900e-01 1.775371e+03 
1.311300e-01 1.748933e+03 
1.323500e-01 1.720290e+03 
1.335900e-01 1.691442e+03 
1.347100e-01 1.665412e+03 
1.359800e-01 1.636430e+03 
1.372100e-01 1.608735e+03 
1.384300e-01 1.581933e+03 
1.395700e-01 1.557495e+03 
1.407700e-01 1.532387e+03 
1.420300e-01 1.507069e+03 
1.432800e-01 1.482539e+03 
1.444500e-01 1.460747e+03 
1.456300e-01 1.439236e+03 
1.468900e-01 1.417355e+03 
1.480500e-01 1.397814e+03 
1.491700e-01 1.379620e+03 
1.503800e-01 1.360738e+03 
1.516400e-01 1.341602e+03 
1.528200e-01 1.324548e+03 
1.540200e-01 1.307547e+03 
1.551900e-01 1.291633e+03 
1.564300e-01 1.275178e+03 
1.576600e-01 1.259292e+03 
1.588700e-01 1.244104e+03 
1.600900e-01 1.229086e+03 
1.612700e-01 1.214881e+03 
1.625400e-01 1.199884e+03 
1.637600e-01 1.185677e+03 
1.649500e-01 1.172032e+03 
1.662200e-01 1.157703e+03 
1.674000e-01 1.144418e+03 
1.685000e-01 1.132247e+03 
1.697500e-01 1.118498e+03 
1.710300e-01 1.104524e+03 
1.722200e-01 1.091771e+03 
1.734400e-01 1.078631e+03 
1.746400e-01 1.065925e+03 
1.758700e-01 1.053057e+03 
1.770900e-01 1.040369e+03 
1.782700e-01 1.028311e+03 
1.794600e-01 1.016287e+03 
1.807000e-01 1.003929e+03 
1.819100e-01 9.920815e+02 
1.830100e-01 9.814848e+02 
1.842200e-01 9.700191e+02 
1.855000e-01 9.581084e+02 
1.867000e-01 9.472531e+02 
1.879200e-01 9.364024e+02 
1.890900e-01 9.261965e+02 
1.902800e-01 9.161307e+02 
1.915200e-01 9.058149e+02 
1.926900e-01 8.962925e+02 
1.939000e-01 8.867730e+02 
1.951700e-01 8.769454e+02 
1.963100e-01 8.683194e+02 
1.975100e-01 8.595273e+02 
1.987800e-01 8.503705e+02 
2.000100e-01 8.416940e+02 
2.012500e-01 8.331994e+02 
2.023400e-01 8.258421e+02 
2.036100e-01 8.174175e+02 
2.048900e-01 8.091420e+02 
2.060400e-01 8.018185e+02 
2.072200e-01 7.944140e+02 
2.084200e-01 7.870248e+02 
2.096900e-01 7.793217e+02 
2.109200e-01 7.719735e+02 
2.121100e-01 7.649330e+02 
2.132700e-01 7.581645e+02 
2.145200e-01 7.509751e+02 
2.157200e-01 7.441195e+02 
2.168800e-01 7.375597e+02 
2.180700e-01 7.309230e+02 
2.193400e-01 7.238989e+02 
2.206000e-01 7.169533e+02 
2.217500e-01 7.107027e+02 
2.229500e-01 7.042686e+02 
2.241400e-01 6.978411e+02 
2.253500e-01 6.913921e+02 
2.264900e-01 6.853979e+02 
2.277100e-01 6.790011e+02 
2.289900e-01 6.723095e+02 
2.301500e-01 6.663291e+02 
2.313600e-01 6.601734e+02 
2.325600e-01 6.540252e+02 
2.337700e-01 6.479098e+02 
2.350000e-01 6.417785e+02 
2.362000e-01 6.358303e+02 
2.374100e-01 6.298570e+02 
2.386500e-01 6.238190e+02 
2.399100e-01 6.177686e+02 
2.410400e-01 6.123679e+02 
2.422500e-01 6.066535e+02 
2.435000e-01 6.008299e+02 
2.447300e-01 5.951751e+02 
2.458700e-01 5.899942e+02 
2.470600e-01 5.846543e+02 
2.483300e-01 5.790310e+02 
2.495600e-01 5.736724e+02 
2.507600e-01 5.685323e+02 
2.519600e-01 5.634576e+02 
2.532200e-01 5.581983e+02 
2.543700e-01 5.535010e+02 
2.555500e-01 5.487682e+02 
2.568000e-01 5.438178e+02 
2.580100e-01 5.390865e+02 
2.592400e-01 5.344044e+02 
2.604100e-01 5.300344e+02 
2.616100e-01 5.256060e+02 
2.628400e-01 5.211223e+02 
2.640600e-01 5.168035e+02 
2.652200e-01 5.127746e+02 
2.664300e-01 5.086211e+02 
2.676500e-01 5.044832e+02 
2.688400e-01 5.005488e+02 
2.700700e-01 4.965636e+02 
2.712400e-01 4.928164e+02 
2.724800e-01 4.888908e+02 
2.736700e-01 4.852059e+02 
2.748800e-01 4.815412e+02 
2.761000e-01 4.778883e+02 
2.773200e-01 4.742770e+02 
2.785400e-01 4.707234e+02 
2.797000e-01 4.674168e+02 
2.808900e-01 4.640613e+02 
2.821400e-01 4.605759e+02 
2.833900e-01 4.571314e+02 
2.845500e-01 4.540000e+02 
2.857800e-01 4.507154e+02 
2.870300e-01 4.474144e+02 
2.882100e-01 4.443321e+02 
2.893900e-01 4.412957e+02 
2.906300e-01 4.381464e+02 
2.918900e-01 4.349815e+02 
2.930500e-01 4.320987e+02 
2.942500e-01 4.291494e+02 
2.954200e-01 4.263107e+02 
2.966500e-01 4.233575e+02 
2.978900e-01 4.204119e+02 
2.990400e-01 4.177081e+02 
3.002700e-01 4.148483e+02 
3.015100e-01 4.119968e+02 
3.026800e-01 4.093338e+02 
3.038500e-01 4.066971e+02 
3.050300e-01 4.040641e+02 
3.062600e-01 4.013483e+02 
3.075000e-01 3.986386e+02 
3.087000e-01 3.960430e+02 
3.099100e-01 3.934518e+02 
3.111200e-01 3.908877e+02 
3.123100e-01 3.883928e+02 
3.135300e-01 3.858603e+02 
3.147300e-01 3.833939e+02 
3.159900e-01 3.808301e+02 
3.171800e-01 3.784342e+02 
3.183700e-01 3.760624e+02 
3.196300e-01 3.735757e+02 
3.208400e-01 3.712114e+02 
3.220300e-01 3.689084e+02 
3.232000e-01 3.666688e+02 
3.244300e-01 3.643381e+02 
3.256700e-01 3.620114e+02 
3.269200e-01 3.596889e+02 
3.280800e-01 3.575539e+02 
3.292500e-01 3.554258e+02 
3.304800e-01 3.532113e+02 
3.317100e-01 3.510178e+02 
3.328900e-01 3.489331e+02 
3.340700e-01 3.468673e+02 
3.353600e-01 3.446376e+02 
3.365300e-01 3.426370e+02 
3.377100e-01 3.406373e+02 
3.389200e-01 3.386054e+02 
3.401600e-01 3.365423e+02 
3.413700e-01 3.345547e+02 
3.425300e-01 3.326711e+02 
3.437700e-01 3.306755e+02 
3.449800e-01 3.287460e+02 
3.461800e-01 3.268495e+02 
3.473600e-01 3.250048e+02 
3.485800e-01 3.231237e+02 
3.498100e-01 3.212441e+02 
3.510200e-01 3.194116e+02 
3.522000e-01 3.176401e+02 
3.533900e-01 3.158688e+02 
3.546400e-01 3.140372e+02 
3.558400e-01 3.122950e+02 
3.570600e-01 3.105391e+02 
3.582700e-01 3.088127e+02 
3.595000e-01 3.070730e+02 
3.607100e-01 3.053839e+02 
3.618900e-01 3.037567e+02 
3.631200e-01 3.020748e+02 
3.643200e-01 3.004479e+02 
3.655500e-01 2.987945e+02 
3.667300e-01 2.972216e+02 
3.679500e-01 2.956238e+02 
3.691900e-01 2.940136e+02 
3.703600e-01 2.925069e+02 
3.715700e-01 2.909613e+02 
3.727700e-01 2.894412e+02 
3.739900e-01 2.879132e+02 
3.752000e-01 2.864191e+02 
3.763900e-01 2.849615e+02 
3.775800e-01 2.835156e+02 
3.788200e-01 2.820212e+02 
3.800300e-01 2.805749e+02 
3.812100e-01 2.791831e+02 
3.824200e-01 2.777723e+02 
3.836100e-01 2.763957e+02 
3.848600e-01 2.749614e+02 
3.860400e-01 2.736182e+02 
3.872400e-01 2.722629e+02 
3.884600e-01 2.709050e+02 
3.896500e-01 2.695943e+02 
3.908700e-01 2.682611e+02 
3.920600e-01 2.669707e+02 
3.933100e-01 2.656259e+02 
3.945300e-01 2.643238e+02 
3.957200e-01 2.630731e+02 
3.969300e-01 2.618138e+02 
3.981700e-01 2.605333e+02 
3.993500e-01 2.593241e+02 
4.094840e-01 2.493457e+02 
4.272360e-01 2.335340e+02 
4.454600e-01 2.191213e+02 
4.630560e-01 2.066640e+02 
4.804610e-01 1.955371e+02 
4.980690e-01 1.853164e+02 
5.159230e-01 1.758701e+02 
5.317440e-01 1.681833e+02 
5.489640e-01 1.604626e+02 
5.671990e-01 1.529451e+02 
5.838690e-01 1.466068e+02 
6.018840e-01 1.402721e+02 
6.202330e-01 1.343212e+02 
6.379250e-01 1.290069e+02 
6.545410e-01 1.243717e+02 
6.714560e-01 1.199645e+02 
6.892080e-01 1.156526e+02 
7.066010e-01 1.117156e+02 
7.240540e-01 1.080142e+02 
7.420450e-01 1.044516e+02 
7.593780e-01 1.012346e+02 
7.764720e-01 9.824815e+01 
7.942840e-01 9.531820e+01 
8.116170e-01 9.263451e+01 
8.288310e-01 9.011763e+01 
8.462240e-01 8.771261e+01 
8.631980e-01 8.548655e+01 
8.810700e-01 8.326206e+01 
8.989410e-01 8.115011e+01 
9.166330e-01 7.916381e+01 
9.345640e-01 7.724986e+01 
9.515980e-01 7.551434e+01 
9.688720e-01 7.383057e+01 
9.865640e-01 7.218284e+01 
1.031870e+00 6.826958e+01 
1.063490e+00 6.577264e+01 
1.097920e+00 6.324719e+01 
1.134370e+00 6.076272e+01 
1.167730e+00 5.864372e+01 
1.203830e+00 5.649492e+01 
1.240470e+00 5.445579e+01 
1.275790e+00 5.260976e+01 
1.309140e+00 5.096684e+01 
1.342970e+00 4.938367e+01 
1.378420e+00 4.781588e+01 
1.413200e+00 4.635777e+01 
1.448110e+00 4.496663e+01 
1.484090e+00 4.360443e+01 
1.518820e+00 4.235215e+01 
1.552880e+00 4.118014e+01 
1.588630e+00 4.000468e+01 
1.623230e+00 3.891862e+01 
1.657720e+00 3.788104e+01 
1.692450e+00 3.688155e+01 
1.726400e+00 3.594280e+01 
1.762200e+00 3.499174e+01 
1.797880e+00 3.408283e+01 
1.833270e+00 3.321770e+01 
1.869070e+00 3.237564e+01 
1.903200e+00 3.160328e+01 
1.937740e+00 3.085006e+01 
1.973190e+00 3.010511e+01 
2.007440e+00 2.941129e+01 
2.042160e+00 2.873185e+01 
2.077900e+00 2.805649e+01 
2.112390e+00 2.742763e+01 
2.146220e+00 2.683017e+01 
2.181600e+00 2.622628e+01 
2.216930e+00 2.564276e+01 
2.250760e+00 2.510200e+01 
2.286500e+00 2.454897e+01 
2.321770e+00 2.402057e+01 
2.355950e+00 2.352464e+01 
2.391280e+00 2.302607e+01 
2.426240e+00 2.254791e+01 
2.460670e+00 2.209145e+01 
2.495640e+00 2.164195e+01 
2.531080e+00 2.119889e+01 
2.566220e+00 2.077198e+01 
2.600830e+00 2.036379e+01 
2.635080e+00 1.997157e+01 
2.670340e+00 1.957798e+01 
2.705970e+00 1.919165e+01 
2.740040e+00 1.883259e+01 
2.774520e+00 1.847842e+01 
2.809730e+00 1.812601e+01 
2.844390e+00 1.778861e+01 
2.879960e+00 1.745161e+01 
2.914860e+00 1.712924e+01 
2.949410e+00 1.681856e+01 
2.984440e+00 1.651122e+01 
3.019760e+00 1.620908e+01 
3.054730e+00 1.591777e+01 
3.089030e+00 1.563855e+01 
3.124060e+00 1.536072e+01 
3.159560e+00 1.508616e+01 
3.194710e+00 1.482077e+01 
3.229010e+00 1.456838e+01 
3.263320e+00 1.432083e+01 
3.297930e+00 1.407734e+01 
3.332830e+00 1.383747e+01 
3.368040e+00 1.360121e+01 
3.403300e+00 1.337035e+01 
3.438450e+00 1.314520e+01 
3.473060e+00 1.292896e+01 
3.508440e+00 1.271218e+01 
3.543110e+00 1.250498e+01 
3.577470e+00 1.230399e+01 
3.613040e+00 1.210076e+01 
3.648120e+00 1.190442e+01 
3.682910e+00 1.171414e+01 
3.718050e+00 1.152600e+01 
3.753320e+00 1.134138e+01 
3.787980e+00 1.116375e+01 
3.822290e+00 1.099170e+01 
3.857020e+00 1.082113e+01 
3.891920e+00 1.065338e+01 
3.926650e+00 1.048971e+01 
3.961970e+00 1.032693e+01 
3.997360e+00 1.016719e+01 
4.031670e+00 1.001569e+01 
4.066330e+00 9.865520e+00 
4.101420e+00 9.716835e+00 
4.136200e+00 9.572031e+00 
4.170810e+00 9.431070e+00 
4.206250e+00 9.289526e+00 
4.241580e+00 9.151443e+00 
4.276300e+00 9.018338e+00 
4.310970e+00 8.888057e+00 
4.346120e+00 8.758599e+00 
4.380600e+00 8.633996e+00 
4.414730e+00 8.513174e+00 
4.450350e+00 8.389351e+00 
4.485320e+00 8.270313e+00 
4.519810e+00 8.155043e+00 
4.555430e+00 8.038307e+00 
4.590870e+00 7.924445e+00 
4.625480e+00 7.815281e+00 
4.659910e+00 7.708819e+00 
4.695230e+00 7.601626e+00 
4.729960e+00 7.498278e+00 
4.764450e+00 7.397521e+00 
4.799530e+00 7.296841e+00 
4.834910e+00 7.197272e+00 
4.869700e+00 7.101115e+00 
4.904370e+00 7.007080e+00 
4.939450e+00 6.913696e+00 
4.973940e+00 6.823521e+00 
5.008430e+00 6.735008e+00 
5.043810e+00 6.645791e+00 
5.078840e+00 6.559039e+00 
5.113500e+00 6.474773e+00 
5.148890e+00 6.390210e+00 
5.184210e+00 6.307358e+00 
5.219060e+00 6.227081e+00 
5.253660e+00 6.148786e+00 
5.288570e+00 6.071186e+00 
5.323420e+00 5.995055e+00 
5.358440e+00 5.919860e+00 
5.393590e+00 5.845712e+00 
5.428310e+00 5.773744e+00 
5.462800e+00 5.703477e+00 
5.497640e+00 5.633708e+00 
5.532670e+00 5.564779e+00 
5.567280e+00 5.497837e+00 
5.602000e+00 5.431808e+00 
5.637270e+00 5.365865e+00 
5.672410e+00 5.301272e+00 
5.707020e+00 5.238708e+00 
5.742040e+00 5.176525e+00 
5.777430e+00 5.114740e+00 
5.812210e+00 5.055016e+00 
5.846820e+00 4.996541e+00 
5.881610e+00 4.938704e+00 
5.916510e+00 4.881615e+00 
5.951600e+00 4.825177e+00 
5.986560e+00 4.769864e+00 
6.021830e+00 4.714947e+00 
6.056490e+00 4.661893e+00 
6.091160e+00 4.609699e+00 
6.125830e+00 4.558312e+00 
6.161090e+00 4.506882e+00 
6.195760e+00 4.457141e+00 
6.230420e+00 4.408170e+00 
6.265690e+00 4.359101e+00 
6.300950e+00 4.310900e+00 
6.335620e+00 4.264221e+00 
6.370880e+00 4.217460e+00 
6.405550e+00 4.172232e+00 
6.440220e+00 4.127696e+00 
6.475480e+00 4.083072e+00 
6.510150e+00 4.039876e+00 
6.544810e+00 3.997398e+00 
6.580080e+00 3.954802e+00 
6.614750e+00 3.913537e+00 
6.649410e+00 3.872965e+00 
6.684080e+00 3.832976e+00 
6.719340e+00 3.792886e+00 
6.754010e+00 3.754070e+00 
6.788680e+00 3.715895e+00 
6.823940e+00 3.677617e+00 
6.859800e+00 3.639241e+00 
6.894470e+00 3.602736e+00 
6.929140e+00 3.566759e+00 
6.963800e+00 3.531285e+00 
6.999070e+00 3.495690e+00 
7.033730e+00 3.461310e+00 
7.068400e+00 3.427383e+00 
7.103660e+00 3.393345e+00 
7.138330e+00 3.360364e+00 
7.173600e+00 3.327340e+00 
7.208260e+00 3.295319e+00 
7.243530e+00 3.263167e+00 
7.277600e+00 3.232570e+00 
7.312860e+00 3.201367e+00 
7.348120e+00 3.170575e+00 
7.382790e+00 3.140693e+00 
7.417460e+00 3.111299e+00 
7.452720e+00 3.081843e+00 
7.487390e+00 3.053252e+00 
7.522650e+00 3.024547e+00 
7.557320e+00 2.996765e+00 
7.591990e+00 2.969362e+00 
7.627250e+00 2.941846e+00 
7.662510e+00 2.914677e+00 
7.697180e+00 2.888386e+00 
7.731850e+00 2.862454e+00 
7.766510e+00 2.836848e+00 
7.801180e+00 2.811547e+00 
7.836440e+00 2.786198e+00 
7.871110e+00 2.761618e+00 
7.906380e+00 2.736916e+00 
7.941040e+00 2.712937e+00 
7.976310e+00 2.688880e+00 
8.011570e+00 2.665182e+00 
8.046240e+00 2.642159e+00 
8.080900e+00 2.619414e+00 
8.115570e+00 2.596955e+00 
8.150830e+00 2.574482e+00 
8.185500e+00 2.552644e+00 
8.220770e+00 2.530688e+00 
8.255430e+00 2.509363e+00 
8.290100e+00 2.488382e+00 
8.324770e+00 2.467652e+00 
8.359430e+00 2.447166e+00 
8.394700e+00 2.426557e+00 
8.429960e+00 2.406247e+00 
8.464630e+00 2.386559e+00 
8.499890e+00 2.366763e+00 
8.534560e+00 2.347517e+00 
8.569200e+00 2.328502e+00 
