# Parameters:
# omega_b = 0.023012, omega_m = 0.120551, n_s = 0.898819, h = 76.968504, w = -1.000000, sigma_8 = 0.898425
# z = 1.500000
#
# k[1/Mpc] # P(k):
8.694000e-04 1.078001e+04 
2.077466e-03 2.133040e+04 
3.285532e-03 2.881813e+04 
4.493598e-03 3.405206e+04 
5.701664e-03 3.750278e+04 
6.909730e-03 3.956901e+04 
8.117797e-03 4.062517e+04 
9.325863e-03 4.086153e+04 
1.053393e-02 4.045021e+04 
1.174199e-02 3.953748e+04 
1.295006e-02 3.822004e+04 
1.415813e-02 3.662010e+04 
1.536619e-02 3.483790e+04 
1.657426e-02 3.294189e+04 
1.778233e-02 3.099194e+04 
1.899039e-02 2.907066e+04 
2.019846e-02 2.721902e+04 
2.140652e-02 2.546900e+04 
2.261459e-02 2.383730e+04 
2.382266e-02 2.234053e+04 
2.503072e-02 2.098625e+04 
2.623879e-02 1.977193e+04 
2.744685e-02 1.869443e+04 
2.865492e-02 1.774539e+04 
2.986299e-02 1.691282e+04 
3.100100e-02 1.622927e+04 
3.220400e-02 1.559954e+04 
3.288100e-02 1.528545e+04 
3.424300e-02 1.472478e+04 
3.555100e-02 1.426079e+04 
3.686000e-02 1.385640e+04 
3.795000e-02 1.355398e+04 
3.929100e-02 1.321469e+04 
4.039800e-02 1.295014e+04 
4.164000e-02 1.266241e+04 
4.294400e-02 1.235504e+04 
4.415000e-02 1.206714e+04 
4.542900e-02 1.174207e+04 
4.660900e-02 1.143223e+04 
4.782300e-02 1.108606e+04 
4.892900e-02 1.076005e+04 
5.031200e-02 1.033441e+04 
5.155900e-02 9.935330e+03 
5.238100e-02 9.668250e+03 
5.378200e-02 9.210926e+03 
5.513400e-02 8.770945e+03 
5.627600e-02 8.405925e+03 
5.735300e-02 8.071556e+03 
5.870100e-02 7.670846e+03 
5.988700e-02 7.338677e+03 
6.113500e-02 7.011935e+03 
6.225900e-02 6.740500e+03 
6.340100e-02 6.488010e+03 
6.480200e-02 6.208260e+03 
6.601100e-02 5.996489e+03 
6.725500e-02 5.804397e+03 
6.829100e-02 5.665083e+03 
6.958600e-02 5.510511e+03 
7.071100e-02 5.394555e+03 
7.192300e-02 5.285064e+03 
7.307400e-02 5.193753e+03 
7.412300e-02 5.119430e+03 
7.550400e-02 5.032855e+03 
7.663100e-02 4.968250e+03 
7.791200e-02 4.899953e+03 
7.912700e-02 4.836633e+03 
8.027600e-02 4.776353e+03 
8.138400e-02 4.716861e+03 
8.272200e-02 4.641545e+03 
8.406100e-02 4.561188e+03 
8.534100e-02 4.476828e+03 
8.653800e-02 4.391277e+03 
8.759800e-02 4.311871e+03 
8.900300e-02 4.200795e+03 
9.009000e-02 4.110170e+03 
9.113300e-02 4.019546e+03 
9.239600e-02 3.908394e+03 
9.358000e-02 3.802310e+03 
9.496100e-02 3.677192e+03 
9.608400e-02 3.576923e+03 
9.727500e-02 3.472710e+03 
9.852600e-02 3.366016e+03 
9.973800e-02 3.267214e+03 
1.009000e-01 3.176480e+03 
1.020900e-01 3.090666e+03 
1.034000e-01 3.002222e+03 
1.046000e-01 2.926894e+03 
1.057200e-01 2.864853e+03 
1.069100e-01 2.803222e+03 
1.082500e-01 2.742960e+03 
1.093900e-01 2.697687e+03 
1.105400e-01 2.655811e+03 
1.116900e-01 2.620785e+03 
1.129600e-01 2.584925e+03 
1.142000e-01 2.555059e+03 
1.153300e-01 2.529560e+03 
1.166400e-01 2.502365e+03 
1.177800e-01 2.479433e+03 
1.190000e-01 2.455560e+03 
1.201200e-01 2.432231e+03 
1.213400e-01 2.407078e+03 
1.227100e-01 2.374685e+03 
1.238900e-01 2.346248e+03 
1.250700e-01 2.314376e+03 
1.263200e-01 2.279738e+03 
1.275500e-01 2.242756e+03 
1.287500e-01 2.205794e+03 
1.299900e-01 2.165767e+03 
1.311300e-01 2.128663e+03 
1.323500e-01 2.088121e+03 
1.335900e-01 2.047384e+03 
1.347100e-01 2.010724e+03 
1.359800e-01 1.970194e+03 
1.372100e-01 1.931958e+03 
1.384300e-01 1.895306e+03 
1.395700e-01 1.862630e+03 
1.407700e-01 1.829210e+03 
1.420300e-01 1.796705e+03 
1.432800e-01 1.765234e+03 
1.444500e-01 1.738488e+03 
1.456300e-01 1.712095e+03 
1.468900e-01 1.686063e+03 
1.480500e-01 1.663062e+03 
1.491700e-01 1.641981e+03 
1.503800e-01 1.620534e+03 
1.516400e-01 1.598882e+03 
1.528200e-01 1.579973e+03 
1.540200e-01 1.561115e+03 
1.551900e-01 1.543602e+03 
1.564300e-01 1.525524e+03 
1.576600e-01 1.508028e+03 
1.588700e-01 1.491248e+03 
1.600900e-01 1.474636e+03 
1.612700e-01 1.458642e+03 
1.625400e-01 1.441751e+03 
1.637600e-01 1.425492e+03 
1.649500e-01 1.409724e+03 
1.662200e-01 1.393095e+03 
1.674000e-01 1.377301e+03 
1.685000e-01 1.362830e+03 
1.697500e-01 1.346280e+03 
1.710300e-01 1.329259e+03 
1.722200e-01 1.313728e+03 
1.734400e-01 1.297429e+03 
1.746400e-01 1.281661e+03 
1.758700e-01 1.265642e+03 
1.770900e-01 1.249740e+03 
1.782700e-01 1.234634e+03 
1.794600e-01 1.219550e+03 
1.807000e-01 1.204035e+03 
1.819100e-01 1.189167e+03 
1.830100e-01 1.175930e+03 
1.842200e-01 1.161620e+03 
1.855000e-01 1.146765e+03 
1.867000e-01 1.133369e+03 
1.879200e-01 1.119983e+03 
1.890900e-01 1.107421e+03 
1.902800e-01 1.095179e+03 
1.915200e-01 1.082634e+03 
1.926900e-01 1.071093e+03 
1.939000e-01 1.059680e+03 
1.951700e-01 1.047898e+03 
1.963100e-01 1.037588e+03 
1.975100e-01 1.027164e+03 
1.987800e-01 1.016307e+03 
2.000100e-01 1.006037e+03 
2.012500e-01 9.960234e+02 
2.023400e-01 9.873497e+02 
2.036100e-01 9.774169e+02 
2.048900e-01 9.676581e+02 
2.060400e-01 9.590216e+02 
2.072200e-01 9.502859e+02 
2.084200e-01 9.415297e+02 
2.096900e-01 9.324011e+02 
2.109200e-01 9.236929e+02 
2.121100e-01 9.152987e+02 
2.132700e-01 9.072261e+02 
2.145200e-01 8.986515e+02 
2.157200e-01 8.904523e+02 
2.168800e-01 8.825966e+02 
2.180700e-01 8.746487e+02 
2.193400e-01 8.662369e+02 
2.206000e-01 8.579190e+02 
2.217500e-01 8.504333e+02 
2.229500e-01 8.427280e+02 
2.241400e-01 8.350786e+02 
2.253500e-01 8.274047e+02 
2.264900e-01 8.202717e+02 
2.277100e-01 8.127027e+02 
2.289900e-01 8.048317e+02 
2.301500e-01 7.977968e+02 
2.313600e-01 7.905560e+02 
2.325600e-01 7.834395e+02 
2.337700e-01 7.763600e+02 
2.350000e-01 7.692606e+02 
2.362000e-01 7.624267e+02 
2.374100e-01 7.556262e+02 
2.386500e-01 7.487504e+02 
2.399100e-01 7.418584e+02 
2.410400e-01 7.357911e+02 
2.422500e-01 7.293801e+02 
2.435000e-01 7.228443e+02 
2.447300e-01 7.165094e+02 
2.458700e-01 7.107580e+02 
2.470600e-01 7.048278e+02 
2.483300e-01 6.985803e+02 
2.495600e-01 6.926376e+02 
2.507600e-01 6.869528e+02 
2.519600e-01 6.813380e+02 
2.532200e-01 6.755167e+02 
2.543700e-01 6.703098e+02 
2.555500e-01 6.650579e+02 
2.568000e-01 6.595624e+02 
2.580100e-01 6.543082e+02 
2.592400e-01 6.490807e+02 
2.604100e-01 6.441886e+02 
2.616100e-01 6.392294e+02 
2.628400e-01 6.342067e+02 
2.640600e-01 6.293266e+02 
2.652200e-01 6.247566e+02 
2.664300e-01 6.200439e+02 
2.676500e-01 6.153476e+02 
2.688400e-01 6.108444e+02 
2.700700e-01 6.062589e+02 
2.712400e-01 6.019463e+02 
2.724800e-01 5.974274e+02 
2.736700e-01 5.931585e+02 
2.748800e-01 5.888852e+02 
2.761000e-01 5.846250e+02 
2.773200e-01 5.804126e+02 
2.785400e-01 5.762538e+02 
2.797000e-01 5.723564e+02 
2.808900e-01 5.684007e+02 
2.821400e-01 5.642914e+02 
2.833900e-01 5.602287e+02 
2.845500e-01 5.565100e+02 
2.857800e-01 5.526089e+02 
2.870300e-01 5.486880e+02 
2.882100e-01 5.450264e+02 
2.893900e-01 5.414100e+02 
2.906300e-01 5.376539e+02 
2.918900e-01 5.338789e+02 
2.930500e-01 5.304400e+02 
2.942500e-01 5.269205e+02 
2.954200e-01 5.235298e+02 
2.966500e-01 5.200018e+02 
2.978900e-01 5.164827e+02 
2.990400e-01 5.132523e+02 
3.002700e-01 5.098367e+02 
3.015100e-01 5.064316e+02 
3.026800e-01 5.032512e+02 
3.038500e-01 5.001021e+02 
3.050300e-01 4.969573e+02 
3.062600e-01 4.937193e+02 
3.075000e-01 4.904884e+02 
3.087000e-01 4.873932e+02 
3.099100e-01 4.843031e+02 
3.111200e-01 4.812474e+02 
3.123100e-01 4.782780e+02 
3.135300e-01 4.752636e+02 
3.147300e-01 4.723276e+02 
3.159900e-01 4.692753e+02 
3.171800e-01 4.664268e+02 
3.183700e-01 4.636093e+02 
3.196300e-01 4.606551e+02 
3.208400e-01 4.578459e+02 
3.220300e-01 4.551093e+02 
3.232000e-01 4.524510e+02 
3.244300e-01 4.496855e+02 
3.256700e-01 4.469243e+02 
3.269200e-01 4.441679e+02 
3.280800e-01 4.416337e+02 
3.292500e-01 4.391096e+02 
3.304800e-01 4.364834e+02 
3.317100e-01 4.338818e+02 
3.328900e-01 4.314089e+02 
3.340700e-01 4.289582e+02 
3.353600e-01 4.263128e+02 
3.365300e-01 4.239390e+02 
3.377100e-01 4.215660e+02 
3.389200e-01 4.191544e+02 
3.401600e-01 4.167056e+02 
3.413700e-01 4.143446e+02 
3.425300e-01 4.121056e+02 
3.437700e-01 4.097335e+02 
3.449800e-01 4.074395e+02 
3.461800e-01 4.051846e+02 
3.473600e-01 4.029898e+02 
3.485800e-01 4.007483e+02 
3.498100e-01 3.985084e+02 
3.510200e-01 3.963244e+02 
3.522000e-01 3.942128e+02 
3.533900e-01 3.921014e+02 
3.546400e-01 3.899104e+02 
3.558400e-01 3.878259e+02 
3.570600e-01 3.857248e+02 
3.582700e-01 3.836588e+02 
3.595000e-01 3.815767e+02 
3.607100e-01 3.795508e+02 
3.618900e-01 3.775955e+02 
3.631200e-01 3.755745e+02 
3.643200e-01 3.736194e+02 
3.655500e-01 3.716322e+02 
3.667300e-01 3.697417e+02 
3.679500e-01 3.678117e+02 
3.691900e-01 3.658665e+02 
3.703600e-01 3.640462e+02 
3.715700e-01 3.621790e+02 
3.727700e-01 3.603423e+02 
3.739900e-01 3.584926e+02 
3.752000e-01 3.566775e+02 
3.763900e-01 3.549068e+02 
3.775800e-01 3.531501e+02 
3.788200e-01 3.513345e+02 
3.800300e-01 3.495772e+02 
3.812100e-01 3.478806e+02 
3.824200e-01 3.461571e+02 
3.836100e-01 3.444754e+02 
3.848600e-01 3.427231e+02 
3.860400e-01 3.410820e+02 
3.872400e-01 3.394261e+02 
3.884600e-01 3.377603e+02 
3.896500e-01 3.361499e+02 
3.908700e-01 3.345117e+02 
3.920600e-01 3.329262e+02 
3.933100e-01 3.312738e+02 
3.945300e-01 3.296737e+02 
3.957200e-01 3.281299e+02 
3.969300e-01 3.265734e+02 
3.981700e-01 3.249908e+02 
3.993500e-01 3.234962e+02 
4.094840e-01 3.111324e+02 
4.272360e-01 2.913798e+02 
4.454600e-01 2.732908e+02 
4.630560e-01 2.576388e+02 
4.804610e-01 2.436852e+02 
4.980690e-01 2.309249e+02 
5.159230e-01 2.191908e+02 
5.317440e-01 2.096946e+02 
5.489640e-01 2.002063e+02 
5.671990e-01 1.910186e+02 
5.838690e-01 1.833056e+02 
6.018840e-01 1.756281e+02 
6.202330e-01 1.684381e+02 
6.379250e-01 1.620277e+02 
6.545410e-01 1.564468e+02 
6.714560e-01 1.511436e+02 
6.892080e-01 1.459565e+02 
7.066010e-01 1.412217e+02 
7.240540e-01 1.367648e+02 
7.420450e-01 1.324728e+02 
7.593780e-01 1.285906e+02 
7.764720e-01 1.249832e+02 
7.942840e-01 1.214362e+02 
8.116170e-01 1.181833e+02 
8.288310e-01 1.151248e+02 
8.462240e-01 1.121986e+02 
8.631980e-01 1.094837e+02 
8.810700e-01 1.067645e+02 
8.989410e-01 1.041752e+02 
9.166330e-01 1.017352e+02 
9.345640e-01 9.938172e+01 
9.515980e-01 9.724083e+01 
9.688720e-01 9.515832e+01 
9.865640e-01 9.311615e+01 
1.031870e+00 8.824639e+01 
1.063490e+00 8.512533e+01 
1.097920e+00 8.195708e+01 
1.134370e+00 7.882757e+01 
1.167730e+00 7.614926e+01 
1.203830e+00 7.342091e+01 
1.240470e+00 7.082438e+01 
1.275790e+00 6.846717e+01 
1.309140e+00 6.636310e+01 
1.342970e+00 6.432774e+01 
1.378420e+00 6.230908e+01 
1.413200e+00 6.042663e+01 
1.448110e+00 5.862770e+01 
1.484090e+00 5.686129e+01 
1.518820e+00 5.523452e+01 
1.552880e+00 5.370982e+01 
1.588630e+00 5.217822e+01 
1.623230e+00 5.076106e+01 
1.657720e+00 4.940392e+01 
1.692450e+00 4.809621e+01 
1.726400e+00 4.686688e+01 
1.762200e+00 4.561975e+01 
1.797880e+00 4.442564e+01 
1.833270e+00 4.328900e+01 
1.869070e+00 4.218125e+01 
1.903200e+00 4.116393e+01 
1.937740e+00 4.017189e+01 
1.973190e+00 3.919027e+01 
2.007440e+00 3.827584e+01 
2.042160e+00 3.737899e+01 
2.077900e+00 3.648706e+01 
2.112390e+00 3.565693e+01 
2.146220e+00 3.486775e+01 
2.181600e+00 3.406968e+01 
2.216930e+00 3.329810e+01 
2.250760e+00 3.258315e+01 
2.286500e+00 3.185200e+01 
2.321770e+00 3.115327e+01 
2.355950e+00 3.049775e+01 
2.391280e+00 2.983784e+01 
2.426240e+00 2.920512e+01 
2.460670e+00 2.860132e+01 
2.495640e+00 2.800685e+01 
2.531080e+00 2.742082e+01 
2.566220e+00 2.685586e+01 
2.600830e+00 2.631574e+01 
2.635080e+00 2.579703e+01 
2.670340e+00 2.527682e+01 
2.705970e+00 2.476603e+01 
2.740040e+00 2.429128e+01 
2.774520e+00 2.382326e+01 
2.809730e+00 2.335743e+01 
2.844390e+00 2.291160e+01 
2.879960e+00 2.246680e+01 
2.914860e+00 2.204117e+01 
2.949410e+00 2.163103e+01 
2.984440e+00 2.122546e+01 
3.019760e+00 2.082667e+01 
3.054730e+00 2.044219e+01 
3.089030e+00 2.007418e+01 
3.124060e+00 1.970811e+01 
3.159560e+00 1.934646e+01 
3.194710e+00 1.899702e+01 
3.229010e+00 1.866479e+01 
3.263320e+00 1.833902e+01 
3.297930e+00 1.801868e+01 
3.332830e+00 1.770323e+01 
3.368040e+00 1.739276e+01 
3.403300e+00 1.708958e+01 
3.438450e+00 1.679401e+01 
3.473060e+00 1.651021e+01 
3.508440e+00 1.622571e+01 
3.543110e+00 1.595393e+01 
3.577470e+00 1.569079e+01 
3.613040e+00 1.542472e+01 
3.648120e+00 1.516748e+01 
3.682910e+00 1.491840e+01 
3.718050e+00 1.467248e+01 
3.753320e+00 1.443118e+01 
3.787980e+00 1.419904e+01 
3.822290e+00 1.397431e+01 
3.857020e+00 1.375162e+01 
3.891920e+00 1.353273e+01 
3.926650e+00 1.331931e+01 
3.961970e+00 1.310718e+01 
3.997360e+00 1.289927e+01 
4.031670e+00 1.270211e+01 
4.066330e+00 1.250666e+01 
4.101420e+00 1.231318e+01 
4.136200e+00 1.212503e+01 
4.170810e+00 1.194191e+01 
4.206250e+00 1.175813e+01 
4.241580e+00 1.157890e+01 
4.276300e+00 1.140629e+01 
4.310970e+00 1.123746e+01 
4.346120e+00 1.106974e+01 
4.380600e+00 1.090838e+01 
4.414730e+00 1.075195e+01 
4.450350e+00 1.059182e+01 
4.485320e+00 1.043791e+01 
4.519810e+00 1.028899e+01 
4.555430e+00 1.013825e+01 
4.590870e+00 9.991255e+00 
4.625480e+00 9.850373e+00 
4.659910e+00 9.713005e+00 
4.695230e+00 9.574910e+00 
4.729960e+00 9.441822e+00 
4.764450e+00 9.312138e+00 
4.799530e+00 9.182650e+00 
4.834910e+00 9.054613e+00 
4.869700e+00 8.931047e+00 
4.904370e+00 8.810240e+00 
4.939450e+00 8.690312e+00 
4.973940e+00 8.574581e+00 
5.008430e+00 8.461002e+00 
5.043810e+00 8.346589e+00 
5.078840e+00 8.235383e+00 
5.113500e+00 8.127381e+00 
5.148890e+00 8.019156e+00 
5.184210e+00 7.913142e+00 
5.219060e+00 7.810455e+00 
5.253660e+00 7.710359e+00 
5.288570e+00 7.611169e+00 
5.323420e+00 7.513889e+00 
5.358440e+00 7.417841e+00 
5.393590e+00 7.323144e+00 
5.428310e+00 7.231320e+00 
5.462800e+00 7.141718e+00 
5.497640e+00 7.052763e+00 
5.532670e+00 6.964970e+00 
5.567280e+00 6.879744e+00 
5.602000e+00 6.795691e+00 
5.637270e+00 6.711787e+00 
5.672410e+00 6.629618e+00 
5.707020e+00 6.550040e+00 
5.742040e+00 6.471029e+00 
5.777430e+00 6.392548e+00 
5.812210e+00 6.316695e+00 
5.846820e+00 6.242452e+00 
5.881610e+00 6.169033e+00 
5.916510e+00 6.096571e+00 
5.951600e+00 6.024996e+00 
5.986560e+00 5.954878e+00 
6.021830e+00 5.885270e+00 
6.056490e+00 5.818072e+00 
6.091160e+00 5.752007e+00 
6.125830e+00 5.686969e+00 
6.161090e+00 5.621886e+00 
6.195760e+00 5.558953e+00 
6.230420e+00 5.497000e+00 
6.265690e+00 5.434932e+00 
6.300950e+00 5.374042e+00 
6.335620e+00 5.315079e+00 
6.370880e+00 5.256018e+00 
6.405550e+00 5.198902e+00 
6.440220e+00 5.142667e+00 
6.475480e+00 5.086325e+00 
6.510150e+00 5.031809e+00 
6.544810e+00 4.978244e+00 
6.580080e+00 4.924534e+00 
6.614750e+00 4.872508e+00 
6.649410e+00 4.821372e+00 
6.684080e+00 4.770978e+00 
6.719340e+00 4.720462e+00 
6.754010e+00 4.671568e+00 
6.788680e+00 4.623519e+00 
6.823940e+00 4.575343e+00 
6.859800e+00 4.527048e+00 
6.894470e+00 4.481124e+00 
6.929140e+00 4.435874e+00 
6.963800e+00 4.391258e+00 
6.999070e+00 4.346494e+00 
7.033730e+00 4.303272e+00 
7.068400e+00 4.260622e+00 
7.103660e+00 4.217835e+00 
7.138330e+00 4.176385e+00 
7.173600e+00 4.134888e+00 
7.208260e+00 4.094655e+00 
7.243530e+00 4.054261e+00 
7.277600e+00 4.015833e+00 
7.312860e+00 3.976654e+00 
7.348120e+00 3.937996e+00 
7.382790e+00 3.900481e+00 
7.417460e+00 3.863609e+00 
7.452720e+00 3.826678e+00 
7.487390e+00 3.790832e+00 
7.522650e+00 3.754845e+00 
7.557320e+00 3.720007e+00 
7.591990e+00 3.685645e+00 
7.627250e+00 3.651140e+00 
7.662510e+00 3.617074e+00 
7.697180e+00 3.584122e+00 
7.731850e+00 3.551626e+00 
7.766510e+00 3.519539e+00 
7.801180e+00 3.487838e+00 
7.836440e+00 3.456071e+00 
7.871110e+00 3.425268e+00 
7.906380e+00 3.394314e+00 
7.941040e+00 3.364266e+00 
7.976310e+00 3.334131e+00 
8.011570e+00 3.304456e+00 
8.046240e+00 3.275627e+00 
8.080900e+00 3.247149e+00 
8.115570e+00 3.219030e+00 
8.150830e+00 3.190887e+00 
8.185500e+00 3.163542e+00 
8.220770e+00 3.136051e+00 
8.255430e+00 3.109351e+00 
8.290100e+00 3.083098e+00 
8.324770e+00 3.057163e+00 
8.359430e+00 3.031533e+00 
8.394700e+00 3.005752e+00 
8.429960e+00 2.980345e+00 
8.464630e+00 2.955719e+00 
8.499890e+00 2.930958e+00 
8.534560e+00 2.906887e+00 
8.569200e+00 2.883106e+00 
