# Parameters:
# omega_b = 0.021925, omega_m = 0.146732, n_s = 0.983858, h = 60.669291, w = -1.000000, sigma_8 = 0.704724
# z = 1.500000
#
# k[1/Mpc] # P(k):
8.694000e-04 2.508559e+03 
2.077466e-03 5.475132e+03 
3.285532e-03 7.853710e+03 
4.493598e-03 9.729215e+03 
5.701664e-03 1.116722e+04 
6.909730e-03 1.222766e+04 
8.117797e-03 1.298409e+04 
9.325863e-03 1.347532e+04 
1.053393e-02 1.374320e+04 
1.174199e-02 1.382778e+04 
1.295006e-02 1.375347e+04 
1.415813e-02 1.355381e+04 
1.536619e-02 1.325895e+04 
1.657426e-02 1.288853e+04 
1.778233e-02 1.246026e+04 
1.899039e-02 1.200156e+04 
2.019846e-02 1.152766e+04 
2.140652e-02 1.105231e+04 
2.261459e-02 1.058289e+04 
2.382266e-02 1.012945e+04 
2.503072e-02 9.699828e+03 
2.623879e-02 9.297639e+03 
2.744685e-02 8.924211e+03 
2.865492e-02 8.582159e+03 
2.986299e-02 8.270764e+03 
3.100100e-02 8.005190e+03 
3.220400e-02 7.752014e+03 
3.288100e-02 7.621784e+03 
3.424300e-02 7.382996e+03 
3.555100e-02 7.179144e+03 
3.686000e-02 6.996679e+03 
3.795000e-02 6.857923e+03 
3.929100e-02 6.700913e+03 
4.039800e-02 6.579206e+03 
4.164000e-02 6.448375e+03 
4.294400e-02 6.312835e+03 
4.415000e-02 6.188970e+03 
4.542900e-02 6.053937e+03 
4.660900e-02 5.927901e+03 
4.782300e-02 5.790494e+03 
4.892900e-02 5.662279e+03 
5.031200e-02 5.496021e+03 
5.155900e-02 5.339862e+03 
5.238100e-02 5.234765e+03 
5.378200e-02 5.053321e+03 
5.513400e-02 4.876276e+03 
5.627600e-02 4.727505e+03 
5.735300e-02 4.589815e+03 
5.870100e-02 4.423137e+03 
5.988700e-02 4.283378e+03 
6.113500e-02 4.143548e+03 
6.225900e-02 4.024100e+03 
6.340100e-02 3.908539e+03 
6.480200e-02 3.773956e+03 
6.601100e-02 3.664197e+03 
6.725500e-02 3.557201e+03 
6.829100e-02 3.473376e+03 
6.958600e-02 3.374987e+03 
7.071100e-02 3.296037e+03 
7.192300e-02 3.217585e+03 
7.307400e-02 3.149275e+03 
7.412300e-02 3.091999e+03 
7.550400e-02 3.023884e+03 
7.663100e-02 2.973069e+03 
7.791200e-02 2.920972e+03 
7.912700e-02 2.875806e+03 
8.027600e-02 2.835880e+03 
8.138400e-02 2.799323e+03 
8.272200e-02 2.757074e+03 
8.406100e-02 2.715988e+03 
8.534100e-02 2.676745e+03 
8.653800e-02 2.639290e+03 
8.759800e-02 2.605526e+03 
8.900300e-02 2.559376e+03 
9.009000e-02 2.522101e+03 
9.113300e-02 2.484581e+03 
9.239600e-02 2.438050e+03 
9.358000e-02 2.392737e+03 
9.496100e-02 2.337370e+03 
9.608400e-02 2.291585e+03 
9.727500e-02 2.242781e+03 
9.852600e-02 2.189694e+03 
9.973800e-02 2.138835e+03 
1.009000e-01 2.090706e+03 
1.020900e-01 2.041668e+03 
1.034000e-01 1.989313e+03 
1.046000e-01 1.942815e+03 
1.057200e-01 1.901321e+03 
1.069100e-01 1.858897e+03 
1.082500e-01 1.813941e+03 
1.093900e-01 1.778069e+03 
1.105400e-01 1.743578e+03 
1.116900e-01 1.712076e+03 
1.129600e-01 1.679019e+03 
1.142000e-01 1.649739e+03 
1.153300e-01 1.624654e+03 
1.166400e-01 1.597733e+03 
1.177800e-01 1.576195e+03 
1.190000e-01 1.554308e+03 
1.201200e-01 1.535861e+03 
1.213400e-01 1.516451e+03 
1.227100e-01 1.496232e+03 
1.238900e-01 1.479337e+03 
1.250700e-01 1.463040e+03 
1.263200e-01 1.446089e+03 
1.275500e-01 1.429598e+03 
1.287500e-01 1.413555e+03 
1.299900e-01 1.396845e+03 
1.311300e-01 1.381310e+03 
1.323500e-01 1.364273e+03 
1.335900e-01 1.346684e+03 
1.347100e-01 1.330263e+03 
1.359800e-01 1.311472e+03 
1.372100e-01 1.292529e+03 
1.384300e-01 1.273715e+03 
1.395700e-01 1.255448e+03 
1.407700e-01 1.236524e+03 
1.420300e-01 1.215947e+03 
1.432800e-01 1.196012e+03 
1.444500e-01 1.177066e+03 
1.456300e-01 1.158377e+03 
1.468900e-01 1.138801e+03 
1.480500e-01 1.121159e+03 
1.491700e-01 1.104652e+03 
1.503800e-01 1.087412e+03 
1.516400e-01 1.070011e+03 
1.528200e-01 1.054743e+03 
1.540200e-01 1.039534e+03 
1.551900e-01 1.025803e+03 
1.564300e-01 1.011736e+03 
1.576600e-01 9.985082e+02 
1.588700e-01 9.862846e+02 
1.600900e-01 9.742377e+02 
1.612700e-01 9.635539e+02 
1.625400e-01 9.522714e+02 
1.637600e-01 9.419156e+02 
1.649500e-01 9.321594e+02 
1.662200e-01 9.219539e+02 
1.674000e-01 9.127318e+02 
1.685000e-01 9.042788e+02 
1.697500e-01 8.947290e+02 
1.710300e-01 8.850211e+02 
1.722200e-01 8.761563e+02 
1.734400e-01 8.668335e+02 
1.746400e-01 8.578062e+02 
1.758700e-01 8.485569e+02 
1.770900e-01 8.392243e+02 
1.782700e-01 8.303517e+02 
1.794600e-01 8.213011e+02 
1.807000e-01 8.118624e+02 
1.819100e-01 8.028114e+02 
1.830100e-01 7.944692e+02 
1.842200e-01 7.853996e+02 
1.855000e-01 7.759666e+02 
1.867000e-01 7.671390e+02 
1.879200e-01 7.583153e+02 
1.890900e-01 7.499917e+02 
1.902800e-01 7.416553e+02 
1.915200e-01 7.331129e+02 
1.926900e-01 7.252114e+02 
1.939000e-01 7.172575e+02 
1.951700e-01 7.090476e+02 
1.963100e-01 7.018415e+02 
1.975100e-01 6.944942e+02 
1.987800e-01 6.868435e+02 
2.000100e-01 6.796093e+02 
2.012500e-01 6.725606e+02 
2.023400e-01 6.664564e+02 
2.036100e-01 6.594836e+02 
2.048900e-01 6.526980e+02 
2.060400e-01 6.466935e+02 
2.072200e-01 6.406294e+02 
2.084200e-01 6.346578e+02 
2.096900e-01 6.284325e+02 
2.109200e-01 6.224942e+02 
2.121100e-01 6.168822e+02 
2.132700e-01 6.114907e+02 
2.145200e-01 6.057638e+02 
2.157200e-01 6.003520e+02 
2.168800e-01 5.951959e+02 
2.180700e-01 5.899789e+02 
2.193400e-01 5.844810e+02 
2.206000e-01 5.790886e+02 
2.217500e-01 5.742349e+02 
2.229500e-01 5.692380e+02 
2.241400e-01 5.643025e+02 
2.253500e-01 5.593508e+02 
2.264900e-01 5.547474e+02 
2.277100e-01 5.498617e+02 
2.289900e-01 5.447803e+02 
2.301500e-01 5.402377e+02 
2.313600e-01 5.355610e+02 
2.325600e-01 5.309409e+02 
2.337700e-01 5.263438e+02 
2.350000e-01 5.217331e+02 
2.362000e-01 5.172802e+02 
2.374100e-01 5.128321e+02 
2.386500e-01 5.083339e+02 
2.399100e-01 5.038245e+02 
2.410400e-01 4.998247e+02 
2.422500e-01 4.955940e+02 
2.435000e-01 4.912804e+02 
2.447300e-01 4.870925e+02 
2.458700e-01 4.832643e+02 
2.470600e-01 4.793167e+02 
2.483300e-01 4.751575e+02 
2.495600e-01 4.711881e+02 
2.507600e-01 4.673730e+02 
2.519600e-01 4.636048e+02 
2.532200e-01 4.596976e+02 
2.543700e-01 4.561884e+02 
2.555500e-01 4.526390e+02 
2.568000e-01 4.489249e+02 
2.580100e-01 4.453737e+02 
2.592400e-01 4.418248e+02 
2.604100e-01 4.384967e+02 
2.616100e-01 4.351229e+02 
2.628400e-01 4.317059e+02 
2.640600e-01 4.283744e+02 
2.652200e-01 4.252500e+02 
2.664300e-01 4.220282e+02 
2.676500e-01 4.188176e+02 
2.688400e-01 4.157315e+02 
2.700700e-01 4.125843e+02 
2.712400e-01 4.096247e+02 
2.724800e-01 4.065234e+02 
2.736700e-01 4.035892e+02 
2.748800e-01 4.006474e+02 
2.761000e-01 3.977147e+02 
2.773200e-01 3.948150e+02 
2.785400e-01 3.919502e+02 
2.797000e-01 3.892609e+02 
2.808900e-01 3.865316e+02 
2.821400e-01 3.836964e+02 
2.833900e-01 3.808934e+02 
2.845500e-01 3.783230e+02 
2.857800e-01 3.756267e+02 
2.870300e-01 3.729168e+02 
2.882100e-01 3.703863e+02 
2.893900e-01 3.678835e+02 
2.906300e-01 3.652821e+02 
2.918900e-01 3.626677e+02 
2.930500e-01 3.602863e+02 
2.942500e-01 3.578477e+02 
2.954200e-01 3.554932e+02 
2.966500e-01 3.530435e+02 
2.978900e-01 3.506003e+02 
2.990400e-01 3.483575e+02 
3.002700e-01 3.459810e+02 
3.015100e-01 3.436094e+02 
3.026800e-01 3.413945e+02 
3.038500e-01 3.392015e+02 
3.050300e-01 3.370116e+02 
3.062600e-01 3.347485e+02 
3.075000e-01 3.324905e+02 
3.087000e-01 3.303275e+02 
3.099100e-01 3.281683e+02 
3.111200e-01 3.260307e+02 
3.123100e-01 3.239493e+02 
3.135300e-01 3.218364e+02 
3.147300e-01 3.197787e+02 
3.159900e-01 3.176397e+02 
3.171800e-01 3.156395e+02 
3.183700e-01 3.136584e+02 
3.196300e-01 3.115814e+02 
3.208400e-01 3.096066e+02 
3.220300e-01 3.076830e+02 
3.232000e-01 3.058119e+02 
3.244300e-01 3.038645e+02 
3.256700e-01 3.019203e+02 
3.269200e-01 2.999797e+02 
3.280800e-01 2.981959e+02 
3.292500e-01 2.964174e+02 
3.304800e-01 2.945667e+02 
3.317100e-01 2.927336e+02 
3.328900e-01 2.909913e+02 
3.340700e-01 2.892649e+02 
3.353600e-01 2.874017e+02 
3.365300e-01 2.857300e+02 
3.377100e-01 2.840591e+02 
3.389200e-01 2.823612e+02 
3.401600e-01 2.806373e+02 
3.413700e-01 2.789771e+02 
3.425300e-01 2.774042e+02 
3.437700e-01 2.757378e+02 
3.449800e-01 2.741266e+02 
3.461800e-01 2.725429e+02 
3.473600e-01 2.710028e+02 
3.485800e-01 2.694332e+02 
3.498100e-01 2.678649e+02 
3.510200e-01 2.663358e+02 
3.522000e-01 2.648576e+02 
3.533900e-01 2.633797e+02 
3.546400e-01 2.618535e+02 
3.558400e-01 2.604019e+02 
3.570600e-01 2.589389e+02 
3.582700e-01 2.575005e+02 
3.595000e-01 2.560510e+02 
3.607100e-01 2.546446e+02 
3.618900e-01 2.532904e+02 
3.631200e-01 2.518907e+02 
3.643200e-01 2.505368e+02 
3.655500e-01 2.491607e+02 
3.667300e-01 2.478517e+02 
3.679500e-01 2.465241e+02 
3.691900e-01 2.451862e+02 
3.703600e-01 2.439343e+02 
3.715700e-01 2.426501e+02 
3.727700e-01 2.413870e+02 
3.739900e-01 2.401182e+02 
3.752000e-01 2.388788e+02 
3.763900e-01 2.376699e+02 
3.775800e-01 2.364706e+02 
3.788200e-01 2.352310e+02 
3.800300e-01 2.340314e+02 
3.812100e-01 2.328779e+02 
3.824200e-01 2.317093e+02 
3.836100e-01 2.305690e+02 
3.848600e-01 2.293809e+02 
3.860400e-01 2.282683e+02 
3.872400e-01 2.271456e+02 
3.884600e-01 2.260221e+02 
3.896500e-01 2.249381e+02 
3.908700e-01 2.238355e+02 
3.920600e-01 2.227682e+02 
3.933100e-01 2.216560e+02 
3.945300e-01 2.205790e+02 
3.957200e-01 2.195457e+02 
3.969300e-01 2.185055e+02 
3.981700e-01 2.174478e+02 
3.993500e-01 2.164490e+02 
4.094840e-01 2.082112e+02 
4.272360e-01 1.951738e+02 
4.454600e-01 1.832895e+02 
4.630560e-01 1.730030e+02 
4.804610e-01 1.637943e+02 
4.980690e-01 1.553082e+02 
5.159230e-01 1.474419e+02 
5.317440e-01 1.410198e+02 
5.489640e-01 1.345519e+02 
5.671990e-01 1.282353e+02 
5.838690e-01 1.228951e+02 
6.018840e-01 1.175446e+02 
6.202330e-01 1.125086e+02 
6.379250e-01 1.080059e+02 
6.545410e-01 1.040730e+02 
6.714560e-01 1.003307e+02 
6.892080e-01 9.666735e+01 
7.066010e-01 9.332014e+01 
7.240540e-01 9.017477e+01 
7.420450e-01 8.714681e+01 
7.593780e-01 8.441509e+01 
7.764720e-01 8.187943e+01 
7.942840e-01 7.939522e+01 
8.116170e-01 7.712085e+01 
8.288310e-01 7.499135e+01 
8.462240e-01 7.295780e+01 
8.631980e-01 7.107850e+01 
8.810700e-01 6.920363e+01 
8.989410e-01 6.742763e+01 
9.166330e-01 6.575966e+01 
9.345640e-01 6.415319e+01 
9.515980e-01 6.270033e+01 
9.688720e-01 6.129383e+01 
9.865640e-01 5.991980e+01 
1.031870e+00 5.666724e+01 
1.063490e+00 5.459927e+01 
1.097920e+00 5.251456e+01 
1.134370e+00 5.047040e+01 
1.167730e+00 4.873212e+01 
1.203830e+00 4.697621e+01 
1.240470e+00 4.531370e+01 
1.275790e+00 4.381194e+01 
1.309140e+00 4.247867e+01 
1.342970e+00 4.119777e+01 
1.378420e+00 3.993046e+01 
1.413200e+00 3.875415e+01 
1.448110e+00 3.763282e+01 
1.484090e+00 3.653707e+01 
1.518820e+00 3.553064e+01 
1.552880e+00 3.458924e+01 
1.588630e+00 3.364572e+01 
1.623230e+00 3.277441e+01 
1.657720e+00 3.194336e+01 
1.692450e+00 3.114229e+01 
1.726400e+00 3.038967e+01 
1.762200e+00 2.962746e+01 
1.797880e+00 2.889975e+01 
1.833270e+00 2.820646e+01 
1.869070e+00 2.753169e+01 
1.903200e+00 2.691293e+01 
1.937740e+00 2.630889e+01 
1.973190e+00 2.571108e+01 
2.007440e+00 2.515383e+01 
2.042160e+00 2.460837e+01 
2.077900e+00 2.406591e+01 
2.112390e+00 2.356002e+01 
2.146220e+00 2.307913e+01 
2.181600e+00 2.259280e+01 
2.216930e+00 2.212259e+01 
2.250760e+00 2.168636e+01 
2.286500e+00 2.123973e+01 
2.321770e+00 2.081260e+01 
2.355950e+00 2.041116e+01 
2.391280e+00 2.000760e+01 
2.426240e+00 1.962004e+01 
2.460670e+00 1.924959e+01 
2.495640e+00 1.888438e+01 
2.531080e+00 1.852393e+01 
2.566220e+00 1.817647e+01 
2.600830e+00 1.784386e+01 
2.635080e+00 1.752379e+01 
2.670340e+00 1.720195e+01 
2.705970e+00 1.688586e+01 
2.740040e+00 1.659185e+01 
2.774520e+00 1.630132e+01 
2.809730e+00 1.601199e+01 
2.844390e+00 1.573467e+01 
2.879960e+00 1.545704e+01 
2.914860e+00 1.519122e+01 
2.949410e+00 1.493482e+01 
2.984440e+00 1.468075e+01 
3.019760e+00 1.443079e+01 
3.054730e+00 1.418960e+01 
3.089030e+00 1.395775e+01 
3.124060e+00 1.372682e+01 
3.159560e+00 1.349831e+01 
3.194710e+00 1.327707e+01 
3.229010e+00 1.306649e+01 
3.263320e+00 1.285960e+01 
3.297930e+00 1.265591e+01 
3.332830e+00 1.245495e+01 
3.368040e+00 1.225666e+01 
3.403300e+00 1.206263e+01 
3.438450e+00 1.187308e+01 
3.473060e+00 1.169089e+01 
3.508440e+00 1.150798e+01 
3.543110e+00 1.133299e+01 
3.577470e+00 1.116265e+01 
3.613040e+00 1.099034e+01 
3.648120e+00 1.082380e+01 
3.682910e+00 1.066214e+01 
3.718050e+00 1.050190e+01 
3.753320e+00 1.034451e+01 
3.787980e+00 1.019292e+01 
3.822290e+00 1.004592e+01 
3.857020e+00 9.899934e+00 
3.891920e+00 9.756202e+00 
3.926650e+00 9.615728e+00 
3.961970e+00 9.475833e+00 
3.997360e+00 9.338210e+00 
4.031670e+00 9.207613e+00 
4.066330e+00 9.078026e+00 
4.101420e+00 8.949650e+00 
4.136200e+00 8.824265e+00 
4.170810e+00 8.702153e+00 
4.206250e+00 8.579307e+00 
4.241580e+00 8.459377e+00 
4.276300e+00 8.343541e+00 
4.310970e+00 8.230014e+00 
4.346120e+00 8.117088e+00 
4.380600e+00 8.008236e+00 
4.414730e+00 7.902637e+00 
4.450350e+00 7.794144e+00 
4.485320e+00 7.689800e+00 
4.519810e+00 7.588563e+00 
4.555430e+00 7.485928e+00 
4.590870e+00 7.385732e+00 
4.625480e+00 7.289539e+00 
4.659910e+00 7.195690e+00 
4.695230e+00 7.100927e+00 
4.729960e+00 7.009492e+00 
4.764450e+00 6.920240e+00 
4.799530e+00 6.830899e+00 
4.834910e+00 6.742510e+00 
4.869700e+00 6.656993e+00 
4.904370e+00 6.573311e+00 
4.939450e+00 6.490136e+00 
4.973940e+00 6.409677e+00 
5.008430e+00 6.330672e+00 
5.043810e+00 6.250917e+00 
5.078840e+00 6.173282e+00 
5.113500e+00 6.097844e+00 
5.148890e+00 6.021930e+00 
5.184210e+00 5.947517e+00 
5.219060e+00 5.875360e+00 
5.253660e+00 5.804868e+00 
5.288570e+00 5.734980e+00 
5.323420e+00 5.666340e+00 
5.358440e+00 5.598467e+00 
5.393590e+00 5.531516e+00 
5.428310e+00 5.466410e+00 
5.462800e+00 5.402768e+00 
5.497640e+00 5.339557e+00 
5.532670e+00 5.276980e+00 
5.567280e+00 5.216153e+00 
5.602000e+00 5.156137e+00 
5.637270e+00 5.096104e+00 
5.672410e+00 5.037264e+00 
5.707020e+00 4.980256e+00 
5.742040e+00 4.923471e+00 
5.777430e+00 4.867013e+00 
5.812210e+00 4.812423e+00 
5.846820e+00 4.758902e+00 
5.881610e+00 4.705938e+00 
5.916510e+00 4.653643e+00 
5.951600e+00 4.601852e+00 
5.986560e+00 4.551045e+00 
6.021830e+00 4.500588e+00 
6.056490e+00 4.451769e+00 
6.091160e+00 4.403680e+00 
6.125830e+00 4.356322e+00 
6.161090e+00 4.308896e+00 
6.195760e+00 4.262978e+00 
6.230420e+00 4.217761e+00 
6.265690e+00 4.172438e+00 
6.300950e+00 4.127799e+00 
6.335620e+00 4.084560e+00 
6.370880e+00 4.041235e+00 
6.405550e+00 3.999289e+00 
6.440220e+00 3.957962e+00 
6.475480e+00 3.916545e+00 
6.510150e+00 3.876417e+00 
6.544810e+00 3.836887e+00 
6.580080e+00 3.797240e+00 
6.614750e+00 3.758824e+00 
6.649410e+00 3.720999e+00 
6.684080e+00 3.683700e+00 
6.719340e+00 3.646302e+00 
6.754010e+00 3.610061e+00 
6.788680e+00 3.574361e+00 
6.823940e+00 3.538558e+00 
6.859800e+00 3.502656e+00 
6.894470e+00 3.468459e+00 
6.929140e+00 3.434736e+00 
6.963800e+00 3.401479e+00 
6.999070e+00 3.368100e+00 
7.033730e+00 3.335814e+00 
7.068400e+00 3.303948e+00 
7.103660e+00 3.271973e+00 
7.138330e+00 3.240973e+00 
7.173600e+00 3.209898e+00 
7.208260e+00 3.179762e+00 
7.243530e+00 3.149499e+00 
7.277600e+00 3.120669e+00 
7.312860e+00 3.091240e+00 
7.348120e+00 3.062196e+00 
7.382790e+00 3.034005e+00 
7.417460e+00 3.006228e+00 
7.452720e+00 2.978368e+00 
7.487390e+00 2.951322e+00 
7.522650e+00 2.924164e+00 
7.557320e+00 2.897861e+00 
7.591990e+00 2.871910e+00 
7.627250e+00 2.845846e+00 
7.662510e+00 2.820110e+00 
7.697180e+00 2.795173e+00 
7.731850e+00 2.770562e+00 
7.766510e+00 2.746258e+00 
7.801180e+00 2.722241e+00 
7.836440e+00 2.698161e+00 
7.871110e+00 2.674802e+00 
7.906380e+00 2.651324e+00 
7.941040e+00 2.628530e+00 
7.976310e+00 2.605642e+00 
8.011570e+00 2.583072e+00 
8.046240e+00 2.561142e+00 
8.080900e+00 2.539475e+00 
8.115570e+00 2.518075e+00 
8.150830e+00 2.496644e+00 
8.185500e+00 2.475817e+00 
8.220770e+00 2.454875e+00 
8.255430e+00 2.434534e+00 
8.290100e+00 2.414484e+00 
8.324770e+00 2.394670e+00 
8.359430e+00 2.375086e+00 
8.394700e+00 2.355383e+00 
8.429960e+00 2.335953e+00 
8.464630e+00 2.317106e+00 
8.499890e+00 2.298154e+00 
8.534560e+00 2.279727e+00 
8.569200e+00 2.261519e+00 
