# Parameters:
# omega_b = 0.022146, omega_m = 0.136811, n_s = 1.007480, h = 59.015748, w = -1.000000, sigma_8 = 0.733071
# z = 1.500000
#
# k[1/Mpc] # P(k):
8.694000e-04 3.154580e+03 
2.077466e-03 6.970875e+03 
3.285532e-03 1.003294e+04 
4.493598e-03 1.243262e+04 
5.701664e-03 1.425025e+04 
6.909730e-03 1.556696e+04 
8.117797e-03 1.648274e+04 
9.325863e-03 1.705000e+04 
1.053393e-02 1.732458e+04 
1.174199e-02 1.735971e+04 
1.295006e-02 1.718841e+04 
1.415813e-02 1.685621e+04 
1.536619e-02 1.640426e+04 
1.657426e-02 1.586025e+04 
1.778233e-02 1.524859e+04 
1.899039e-02 1.460594e+04 
2.019846e-02 1.395276e+04 
2.140652e-02 1.330706e+04 
2.261459e-02 1.267888e+04 
2.382266e-02 1.208056e+04 
2.503072e-02 1.152109e+04 
2.623879e-02 1.100409e+04 
2.744685e-02 1.053110e+04 
2.865492e-02 1.010358e+04 
2.986299e-02 9.719542e+03 
3.100100e-02 9.396807e+03 
3.220400e-02 9.093399e+03 
3.288100e-02 8.939367e+03 
3.424300e-02 8.660265e+03 
3.555100e-02 8.425340e+03 
3.686000e-02 8.217707e+03 
3.795000e-02 8.061101e+03 
3.929100e-02 7.884716e+03 
4.039800e-02 7.747703e+03 
4.164000e-02 7.599526e+03 
4.294400e-02 7.443531e+03 
4.415000e-02 7.298979e+03 
4.542900e-02 7.138045e+03 
4.660900e-02 6.985707e+03 
4.782300e-02 6.816488e+03 
4.892900e-02 6.657071e+03 
5.031200e-02 6.448413e+03 
5.155900e-02 6.251168e+03 
5.238100e-02 6.118172e+03 
5.378200e-02 5.888687e+03 
5.513400e-02 5.666028e+03 
5.627600e-02 5.480772e+03 
5.735300e-02 5.311630e+03 
5.870100e-02 5.110982e+03 
5.988700e-02 4.946977e+03 
6.113500e-02 4.787242e+03 
6.225900e-02 4.654312e+03 
6.340100e-02 4.528132e+03 
6.480200e-02 4.382723e+03 
6.601100e-02 4.264532e+03 
6.725500e-02 4.148710e+03 
6.829100e-02 4.057246e+03 
6.958600e-02 3.949020e+03 
7.071100e-02 3.861529e+03 
7.192300e-02 3.774135e+03 
7.307400e-02 3.697725e+03 
7.412300e-02 3.633466e+03 
7.550400e-02 3.556768e+03 
7.663100e-02 3.499319e+03 
7.791200e-02 3.439975e+03 
7.912700e-02 3.387954e+03 
8.027600e-02 3.341443e+03 
8.138400e-02 3.298364e+03 
8.272200e-02 3.247859e+03 
8.406100e-02 3.197985e+03 
8.534100e-02 3.149561e+03 
8.653800e-02 3.102837e+03 
8.759800e-02 3.060493e+03 
8.900300e-02 3.002376e+03 
9.009000e-02 2.955369e+03 
9.113300e-02 2.908159e+03 
9.239600e-02 2.849778e+03 
9.358000e-02 2.793215e+03 
9.496100e-02 2.724704e+03 
9.608400e-02 2.668473e+03 
9.727500e-02 2.608880e+03 
9.852600e-02 2.544991e+03 
9.973800e-02 2.484239e+03 
1.009000e-01 2.427119e+03 
1.020900e-01 2.369848e+03 
1.034000e-01 2.309122e+03 
1.046000e-01 2.255620e+03 
1.057200e-01 2.208555e+03 
1.069100e-01 2.160655e+03 
1.082500e-01 2.110517e+03 
1.093900e-01 2.070818e+03 
1.105400e-01 2.032825e+03 
1.116900e-01 1.998429e+03 
1.129600e-01 1.962391e+03 
1.142000e-01 1.930564e+03 
1.153300e-01 1.903226e+03 
1.166400e-01 1.873780e+03 
1.177800e-01 1.849941e+03 
1.190000e-01 1.825577e+03 
1.201200e-01 1.804490e+03 
1.213400e-01 1.782197e+03 
1.227100e-01 1.758041e+03 
1.238900e-01 1.737667e+03 
1.250700e-01 1.717404e+03 
1.263200e-01 1.696145e+03 
1.275500e-01 1.675058e+03 
1.287500e-01 1.654461e+03 
1.299900e-01 1.632872e+03 
1.311300e-01 1.612883e+03 
1.323500e-01 1.591080e+03 
1.335900e-01 1.568800e+03 
1.347100e-01 1.548291e+03 
1.359800e-01 1.525076e+03 
1.372100e-01 1.502160e+03 
1.384300e-01 1.479621e+03 
1.395700e-01 1.458241e+03 
1.407700e-01 1.436155e+03 
1.420300e-01 1.412767e+03 
1.432800e-01 1.390104e+03 
1.444500e-01 1.369037e+03 
1.456300e-01 1.348248e+03 
1.468900e-01 1.326660e+03 
1.480500e-01 1.307254e+03 
1.491700e-01 1.289113e+03 
1.503800e-01 1.270188e+03 
1.516400e-01 1.251054e+03 
1.528200e-01 1.234154e+03 
1.540200e-01 1.217314e+03 
1.551900e-01 1.201907e+03 
1.564300e-01 1.186067e+03 
1.576600e-01 1.171029e+03 
1.588700e-01 1.156955e+03 
1.600900e-01 1.143068e+03 
1.612700e-01 1.130450e+03 
1.625400e-01 1.117127e+03 
1.637600e-01 1.104749e+03 
1.649500e-01 1.093001e+03 
1.662200e-01 1.080693e+03 
1.674000e-01 1.069462e+03 
1.685000e-01 1.059169e+03 
1.697500e-01 1.047544e+03 
1.710300e-01 1.035731e+03 
1.722200e-01 1.024944e+03 
1.734400e-01 1.013700e+03 
1.746400e-01 1.002818e+03 
1.758700e-01 9.917210e+02 
1.770900e-01 9.806267e+02 
1.782700e-01 9.700799e+02 
1.794600e-01 9.594174e+02 
1.807000e-01 9.483601e+02 
1.819100e-01 9.377571e+02 
1.830100e-01 9.280949e+02 
1.842200e-01 9.176080e+02 
1.855000e-01 9.067046e+02 
1.867000e-01 8.966002e+02 
1.879200e-01 8.864992e+02 
1.890900e-01 8.769795e+02 
1.902800e-01 8.674965e+02 
1.915200e-01 8.577778e+02 
1.926900e-01 8.487933e+02 
1.939000e-01 8.397692e+02 
1.951700e-01 8.304530e+02 
1.963100e-01 8.222742e+02 
1.975100e-01 8.139334e+02 
1.987800e-01 8.052467e+02 
2.000100e-01 7.970248e+02 
2.012500e-01 7.889970e+02 
2.023400e-01 7.820438e+02 
2.036100e-01 7.740928e+02 
2.048900e-01 7.663249e+02 
2.060400e-01 7.594503e+02 
2.072200e-01 7.525039e+02 
2.084200e-01 7.456252e+02 
2.096900e-01 7.384537e+02 
2.109200e-01 7.316122e+02 
2.121100e-01 7.251077e+02 
2.132700e-01 7.188564e+02 
2.145200e-01 7.122158e+02 
2.157200e-01 7.059143e+02 
2.168800e-01 6.998983e+02 
2.180700e-01 6.938109e+02 
2.193400e-01 6.873813e+02 
2.206000e-01 6.810482e+02 
2.217500e-01 6.753478e+02 
2.229500e-01 6.694793e+02 
2.241400e-01 6.636453e+02 
2.253500e-01 6.577915e+02 
2.264900e-01 6.523494e+02 
2.277100e-01 6.465537e+02 
2.289900e-01 6.405038e+02 
2.301500e-01 6.350957e+02 
2.313600e-01 6.295280e+02 
2.325600e-01 6.239876e+02 
2.337700e-01 6.184755e+02 
2.350000e-01 6.129474e+02 
2.362000e-01 6.075918e+02 
2.374100e-01 6.022223e+02 
2.386500e-01 5.967931e+02 
2.399100e-01 5.913510e+02 
2.410400e-01 5.865007e+02 
2.422500e-01 5.813683e+02 
2.435000e-01 5.761360e+02 
2.447300e-01 5.710542e+02 
2.458700e-01 5.663986e+02 
2.470600e-01 5.615987e+02 
2.483300e-01 5.565423e+02 
2.495600e-01 5.517185e+02 
2.507600e-01 5.470845e+02 
2.519600e-01 5.425081e+02 
2.532200e-01 5.377637e+02 
2.543700e-01 5.335141e+02 
2.555500e-01 5.292238e+02 
2.568000e-01 5.247349e+02 
2.580100e-01 5.204435e+02 
2.592400e-01 5.161772e+02 
2.604100e-01 5.121861e+02 
2.616100e-01 5.081408e+02 
2.628400e-01 5.040440e+02 
2.640600e-01 5.000762e+02 
2.652200e-01 4.963657e+02 
2.664300e-01 4.925397e+02 
2.676500e-01 4.887273e+02 
2.688400e-01 4.850849e+02 
2.700700e-01 4.813843e+02 
2.712400e-01 4.779041e+02 
2.724800e-01 4.742577e+02 
2.736700e-01 4.708228e+02 
2.748800e-01 4.673944e+02 
2.761000e-01 4.639766e+02 
2.773200e-01 4.605973e+02 
2.785400e-01 4.572660e+02 
2.797000e-01 4.541541e+02 
2.808900e-01 4.509958e+02 
2.821400e-01 4.477149e+02 
2.833900e-01 4.444717e+02 
2.845500e-01 4.415124e+02 
2.857800e-01 4.384080e+02 
2.870300e-01 4.352879e+02 
2.882100e-01 4.323742e+02 
2.893900e-01 4.294988e+02 
2.906300e-01 4.265136e+02 
2.918900e-01 4.235133e+02 
2.930500e-01 4.207802e+02 
2.942500e-01 4.179828e+02 
2.954200e-01 4.152863e+02 
2.966500e-01 4.124807e+02 
2.978900e-01 4.096822e+02 
2.990400e-01 4.071133e+02 
3.002700e-01 4.043935e+02 
3.015100e-01 4.016803e+02 
3.026800e-01 3.991463e+02 
3.038500e-01 3.966371e+02 
3.050300e-01 3.941313e+02 
3.062600e-01 3.915441e+02 
3.075000e-01 3.889625e+02 
3.087000e-01 3.864893e+02 
3.099100e-01 3.840203e+02 
3.111200e-01 3.815763e+02 
3.123100e-01 3.791970e+02 
3.135300e-01 3.767817e+02 
3.147300e-01 3.744292e+02 
3.159900e-01 3.719837e+02 
3.171800e-01 3.696971e+02 
3.183700e-01 3.674324e+02 
3.196300e-01 3.650580e+02 
3.208400e-01 3.628002e+02 
3.220300e-01 3.606009e+02 
3.232000e-01 3.584614e+02 
3.244300e-01 3.562346e+02 
3.256700e-01 3.540113e+02 
3.269200e-01 3.517919e+02 
3.280800e-01 3.497516e+02 
3.292500e-01 3.477173e+02 
3.304800e-01 3.456000e+02 
3.317100e-01 3.435028e+02 
3.328900e-01 3.415094e+02 
3.340700e-01 3.395340e+02 
3.353600e-01 3.374013e+02 
3.365300e-01 3.354876e+02 
3.377100e-01 3.335746e+02 
3.389200e-01 3.316307e+02 
3.401600e-01 3.296568e+02 
3.413700e-01 3.277551e+02 
3.425300e-01 3.259528e+02 
3.437700e-01 3.240433e+02 
3.449800e-01 3.221969e+02 
3.461800e-01 3.203820e+02 
3.473600e-01 3.186166e+02 
3.485800e-01 3.168165e+02 
3.498100e-01 3.150178e+02 
3.510200e-01 3.132639e+02 
3.522000e-01 3.115683e+02 
3.533900e-01 3.098729e+02 
3.546400e-01 3.081204e+02 
3.558400e-01 3.064535e+02 
3.570600e-01 3.047733e+02 
3.582700e-01 3.031213e+02 
3.595000e-01 3.014564e+02 
3.607100e-01 2.998404e+02 
3.618900e-01 2.982835e+02 
3.631200e-01 2.966744e+02 
3.643200e-01 2.951178e+02 
3.655500e-01 2.935357e+02 
3.667300e-01 2.920305e+02 
3.679500e-01 2.905024e+02 
3.691900e-01 2.889623e+02 
3.703600e-01 2.875211e+02 
3.715700e-01 2.860426e+02 
3.727700e-01 2.845884e+02 
3.739900e-01 2.831270e+02 
3.752000e-01 2.816987e+02 
3.763900e-01 2.803052e+02 
3.775800e-01 2.789228e+02 
3.788200e-01 2.774939e+02 
3.800300e-01 2.761110e+02 
3.812100e-01 2.747805e+02 
3.824200e-01 2.734320e+02 
3.836100e-01 2.721162e+02 
3.848600e-01 2.707451e+02 
3.860400e-01 2.694611e+02 
3.872400e-01 2.681653e+02 
3.884600e-01 2.668677e+02 
3.896500e-01 2.656153e+02 
3.908700e-01 2.643412e+02 
3.920600e-01 2.631081e+02 
3.933100e-01 2.618229e+02 
3.945300e-01 2.605784e+02 
3.957200e-01 2.593835e+02 
3.969300e-01 2.581805e+02 
3.981700e-01 2.569572e+02 
3.993500e-01 2.558019e+02 
4.094840e-01 2.462674e+02 
4.272360e-01 2.311546e+02 
4.454600e-01 2.173610e+02 
4.630560e-01 2.054135e+02 
4.804610e-01 1.947137e+02 
4.980690e-01 1.848543e+02 
5.159230e-01 1.757132e+02 
5.317440e-01 1.682519e+02 
5.489640e-01 1.607357e+02 
5.671990e-01 1.533950e+02 
5.838690e-01 1.471897e+02 
6.018840e-01 1.409729e+02 
6.202330e-01 1.351196e+02 
6.379250e-01 1.298845e+02 
6.545410e-01 1.253108e+02 
6.714560e-01 1.209574e+02 
6.892080e-01 1.166940e+02 
7.066010e-01 1.127977e+02 
7.240540e-01 1.091327e+02 
7.420450e-01 1.056035e+02 
7.593780e-01 1.024163e+02 
7.764720e-01 9.945629e+01 
7.942840e-01 9.655273e+01 
8.116170e-01 9.389292e+01 
8.288310e-01 9.139893e+01 
8.462240e-01 8.901587e+01 
8.631980e-01 8.681043e+01 
8.810700e-01 8.460721e+01 
8.989410e-01 8.251637e+01 
9.166330e-01 8.055035e+01 
9.345640e-01 7.865542e+01 
9.515980e-01 7.693808e+01 
9.688720e-01 7.527254e+01 
9.865640e-01 7.364299e+01 
1.031870e+00 6.977387e+01 
1.063490e+00 6.730498e+01 
1.097920e+00 6.480849e+01 
1.134370e+00 6.235206e+01 
1.167730e+00 6.025662e+01 
1.203830e+00 5.813127e+01 
1.240470e+00 5.611339e+01 
1.275790e+00 5.428501e+01 
1.309140e+00 5.265729e+01 
1.342970e+00 5.108751e+01 
1.378420e+00 4.953161e+01 
1.413200e+00 4.808329e+01 
1.448110e+00 4.669984e+01 
1.484090e+00 4.534437e+01 
1.518820e+00 4.409676e+01 
1.552880e+00 4.292754e+01 
1.588630e+00 4.175362e+01 
1.623230e+00 4.066776e+01 
1.657720e+00 3.962971e+01 
1.692450e+00 3.862826e+01 
1.726400e+00 3.768618e+01 
1.762200e+00 3.673070e+01 
1.797880e+00 3.581684e+01 
1.833270e+00 3.494575e+01 
1.869070e+00 3.409683e+01 
1.903200e+00 3.331740e+01 
1.937740e+00 3.255624e+01 
1.973190e+00 3.180248e+01 
2.007440e+00 3.109954e+01 
2.042160e+00 3.041057e+01 
2.077900e+00 2.972497e+01 
2.112390e+00 2.908565e+01 
2.146220e+00 2.847753e+01 
2.181600e+00 2.786221e+01 
2.216930e+00 2.726699e+01 
2.250760e+00 2.671477e+01 
2.286500e+00 2.614935e+01 
2.321770e+00 2.560850e+01 
2.355950e+00 2.510029e+01 
2.391280e+00 2.458887e+01 
2.426240e+00 2.409783e+01 
2.460670e+00 2.362861e+01 
2.495640e+00 2.316610e+01 
2.531080e+00 2.270956e+01 
2.566220e+00 2.226936e+01 
2.600830e+00 2.184804e+01 
2.635080e+00 2.144278e+01 
2.670340e+00 2.103549e+01 
2.705970e+00 2.063545e+01 
2.740040e+00 2.026338e+01 
2.774520e+00 1.989590e+01 
2.809730e+00 1.952992e+01 
2.844390e+00 1.917926e+01 
2.879960e+00 1.882858e+01 
2.914860e+00 1.849281e+01 
2.949410e+00 1.816900e+01 
2.984440e+00 1.784831e+01 
3.019760e+00 1.753281e+01 
3.054730e+00 1.722845e+01 
3.089030e+00 1.693625e+01 
3.124060e+00 1.664534e+01 
3.159560e+00 1.635761e+01 
3.194710e+00 1.607919e+01 
3.229010e+00 1.581428e+01 
3.263320e+00 1.555418e+01 
3.297930e+00 1.529819e+01 
3.332830e+00 1.504578e+01 
3.368040e+00 1.479693e+01 
3.403300e+00 1.455361e+01 
3.438450e+00 1.431605e+01 
3.473060e+00 1.408779e+01 
3.508440e+00 1.385877e+01 
3.543110e+00 1.363977e+01 
3.577470e+00 1.342698e+01 
3.613040e+00 1.321177e+01 
3.648120e+00 1.300375e+01 
3.682910e+00 1.280201e+01 
3.718050e+00 1.260231e+01 
3.753320e+00 1.240624e+01 
3.787980e+00 1.221748e+01 
3.822290e+00 1.203456e+01 
3.857020e+00 1.185305e+01 
3.891920e+00 1.167445e+01 
3.926650e+00 1.150005e+01 
3.961970e+00 1.132650e+01 
3.997360e+00 1.115600e+01 
4.031670e+00 1.099426e+01 
4.066330e+00 1.083383e+01 
4.101420e+00 1.067496e+01 
4.136200e+00 1.052005e+01 
4.170810e+00 1.036922e+01 
4.206250e+00 1.021763e+01 
4.241580e+00 1.006969e+01 
4.276300e+00 9.926976e+00 
4.310970e+00 9.787210e+00 
4.346120e+00 9.648259e+00 
4.380600e+00 9.514425e+00 
4.414730e+00 9.384625e+00 
4.450350e+00 9.251472e+00 
4.485320e+00 9.123440e+00 
4.519810e+00 8.999367e+00 
4.555430e+00 8.873661e+00 
4.590870e+00 8.750997e+00 
4.625480e+00 8.633316e+00 
4.659910e+00 8.518528e+00 
4.695230e+00 8.402834e+00 
4.729960e+00 8.291256e+00 
4.764450e+00 8.182418e+00 
4.799530e+00 8.073582e+00 
4.834910e+00 7.965928e+00 
4.869700e+00 7.861893e+00 
4.904370e+00 7.760128e+00 
4.939450e+00 7.659031e+00 
4.973940e+00 7.561339e+00 
5.008430e+00 7.465431e+00 
5.043810e+00 7.368700e+00 
5.078840e+00 7.274601e+00 
5.113500e+00 7.183182e+00 
5.148890e+00 7.091350e+00 
5.184210e+00 7.001357e+00 
5.219060e+00 6.914132e+00 
5.253660e+00 6.829003e+00 
5.288570e+00 6.744618e+00 
5.323420e+00 6.661794e+00 
5.358440e+00 6.579953e+00 
5.393590e+00 6.499239e+00 
5.428310e+00 6.420842e+00 
5.462800e+00 6.344265e+00 
5.497640e+00 6.268218e+00 
5.532670e+00 6.193031e+00 
5.567280e+00 6.119986e+00 
5.602000e+00 6.047926e+00 
5.637270e+00 5.975912e+00 
5.672410e+00 5.905354e+00 
5.707020e+00 5.837002e+00 
5.742040e+00 5.769011e+00 
5.777430e+00 5.701438e+00 
5.812210e+00 5.636110e+00 
5.846820e+00 5.572114e+00 
5.881610e+00 5.508803e+00 
5.916510e+00 5.446302e+00 
5.951600e+00 5.384472e+00 
5.986560e+00 5.323851e+00 
6.021830e+00 5.263656e+00 
6.056490e+00 5.205467e+00 
6.091160e+00 5.148193e+00 
6.125830e+00 5.091796e+00 
6.161090e+00 5.035338e+00 
6.195760e+00 4.980710e+00 
6.230420e+00 4.926922e+00 
6.265690e+00 4.873018e+00 
6.300950e+00 4.820007e+00 
6.335620e+00 4.768665e+00 
6.370880e+00 4.717227e+00 
6.405550e+00 4.667454e+00 
6.440220e+00 4.618433e+00 
6.475480e+00 4.569309e+00 
6.510150e+00 4.521739e+00 
6.544810e+00 4.474927e+00 
6.580080e+00 4.427979e+00 
6.614750e+00 4.382495e+00 
6.649410e+00 4.337743e+00 
6.684080e+00 4.293624e+00 
6.719340e+00 4.249391e+00 
6.754010e+00 4.206548e+00 
6.788680e+00 4.164384e+00 
6.823940e+00 4.122102e+00 
6.859800e+00 4.079709e+00 
6.894470e+00 4.039353e+00 
6.929140e+00 3.999571e+00 
6.963800e+00 3.960340e+00 
6.999070e+00 3.920971e+00 
7.033730e+00 3.882918e+00 
7.068400e+00 3.845365e+00 
7.103660e+00 3.807685e+00 
7.138330e+00 3.771166e+00 
7.173600e+00 3.734578e+00 
7.208260e+00 3.699099e+00 
7.243530e+00 3.663472e+00 
7.277600e+00 3.629550e+00 
7.312860e+00 3.594938e+00 
7.348120e+00 3.560779e+00 
7.382790e+00 3.527628e+00 
7.417460e+00 3.494993e+00 
7.452720e+00 3.462275e+00 
7.487390e+00 3.430516e+00 
7.522650e+00 3.398628e+00 
7.557320e+00 3.367750e+00 
7.591990e+00 3.337288e+00 
7.627250e+00 3.306695e+00 
7.662510e+00 3.276489e+00 
7.697180e+00 3.247238e+00 
7.731850e+00 3.218377e+00 
7.766510e+00 3.189878e+00 
7.801180e+00 3.161717e+00 
7.836440e+00 3.133487e+00 
7.871110e+00 3.106106e+00 
7.906380e+00 3.078588e+00 
7.941040e+00 3.051872e+00 
7.976310e+00 3.025057e+00 
8.011570e+00 2.998627e+00 
8.046240e+00 2.972947e+00 
8.080900e+00 2.947578e+00 
8.115570e+00 2.922523e+00 
8.150830e+00 2.897436e+00 
8.185500e+00 2.873058e+00 
8.220770e+00 2.848547e+00 
8.255430e+00 2.824739e+00 
8.290100e+00 2.801291e+00 
8.324770e+00 2.778121e+00 
8.359430e+00 2.755221e+00 
8.394700e+00 2.732184e+00 
8.429960e+00 2.709469e+00 
8.464630e+00 2.687440e+00 
8.499890e+00 2.665289e+00 
8.534560e+00 2.643752e+00 
8.569200e+00 2.622473e+00 
