# Parameters:
# omega_b = 0.022051, omega_m = 0.130748, n_s = 0.922441, h = 81.929134, w = -1.000000, sigma_8 = 0.854331
# z = 1.500000
#
# k[1/Mpc] # P(k):
8.694000e-04 6.211125e+03 
2.077466e-03 1.265522e+04 
3.285532e-03 1.743034e+04 
4.493598e-03 2.092126e+04 
5.701664e-03 2.336889e+04 
6.909730e-03 2.497898e+04 
8.117797e-03 2.595691e+04 
9.325863e-03 2.640921e+04 
1.053393e-02 2.643635e+04 
1.174199e-02 2.612639e+04 
1.295006e-02 2.553674e+04 
1.415813e-02 2.474162e+04 
1.536619e-02 2.380196e+04 
1.657426e-02 2.275867e+04 
1.778233e-02 2.164978e+04 
1.899039e-02 2.052938e+04 
2.019846e-02 1.942573e+04 
2.140652e-02 1.836195e+04 
2.261459e-02 1.735083e+04 
2.382266e-02 1.640680e+04 
2.503072e-02 1.553892e+04 
2.623879e-02 1.474886e+04 
2.744685e-02 1.403643e+04 
2.865492e-02 1.339983e+04 
2.986299e-02 1.283342e+04 
3.100100e-02 1.236134e+04 
3.220400e-02 1.192019e+04 
3.288100e-02 1.169721e+04 
3.424300e-02 1.129411e+04 
3.555100e-02 1.095525e+04 
3.686000e-02 1.065540e+04 
3.795000e-02 1.042866e+04 
3.929100e-02 1.017203e+04 
4.039800e-02 9.971500e+03 
4.164000e-02 9.753754e+03 
4.294400e-02 9.523353e+03 
4.415000e-02 9.309556e+03 
4.542900e-02 9.071650e+03 
4.660900e-02 8.847053e+03 
4.782300e-02 8.599389e+03 
4.892900e-02 8.367509e+03 
5.031200e-02 8.066507e+03 
5.155900e-02 7.785200e+03 
5.238100e-02 7.596880e+03 
5.378200e-02 7.273362e+03 
5.513400e-02 6.958997e+03 
5.627600e-02 6.694227e+03 
5.735300e-02 6.446836e+03 
5.870100e-02 6.141902e+03 
5.988700e-02 5.880599e+03 
6.113500e-02 5.615083e+03 
6.225900e-02 5.387937e+03 
6.340100e-02 5.172217e+03 
6.480200e-02 4.930434e+03 
6.601100e-02 4.746725e+03 
6.725500e-02 4.581227e+03 
6.829100e-02 4.462661e+03 
6.958600e-02 4.332945e+03 
7.071100e-02 4.237213e+03 
7.192300e-02 4.148100e+03 
7.307400e-02 4.074820e+03 
7.412300e-02 4.015902e+03 
7.550400e-02 3.948346e+03 
7.663100e-02 3.898652e+03 
7.791200e-02 3.847214e+03 
7.912700e-02 3.800512e+03 
8.027600e-02 3.756722e+03 
8.138400e-02 3.713978e+03 
8.272200e-02 3.660355e+03 
8.406100e-02 3.603419e+03 
8.534100e-02 3.543673e+03 
8.653800e-02 3.482829e+03 
8.759800e-02 3.426087e+03 
8.900300e-02 3.346191e+03 
9.009000e-02 3.280459e+03 
9.113300e-02 3.214127e+03 
9.239600e-02 3.132187e+03 
9.358000e-02 3.053242e+03 
9.496100e-02 2.959001e+03 
9.608400e-02 2.882782e+03 
9.727500e-02 2.803003e+03 
9.852600e-02 2.720047e+03 
9.973800e-02 2.642622e+03 
1.009000e-01 2.571024e+03 
1.020900e-01 2.502163e+03 
1.034000e-01 2.430672e+03 
1.046000e-01 2.369241e+03 
1.057200e-01 2.317800e+03 
1.069100e-01 2.266413e+03 
1.082500e-01 2.215356e+03 
1.093900e-01 2.176579e+03 
1.105400e-01 2.140447e+03 
1.116900e-01 2.109814e+03 
1.129600e-01 2.078364e+03 
1.142000e-01 2.052097e+03 
1.153300e-01 2.029839e+03 
1.166400e-01 2.006369e+03 
1.177800e-01 1.987174e+03 
1.190000e-01 1.967471e+03 
1.201200e-01 1.949193e+03 
1.213400e-01 1.929648e+03 
1.227100e-01 1.905741e+03 
1.238900e-01 1.884935e+03 
1.250700e-01 1.862144e+03 
1.263200e-01 1.837454e+03 
1.275500e-01 1.811259e+03 
1.287500e-01 1.785000e+03 
1.299900e-01 1.756448e+03 
1.311300e-01 1.729742e+03 
1.323500e-01 1.700226e+03 
1.335900e-01 1.670196e+03 
1.347100e-01 1.642704e+03 
1.359800e-01 1.611944e+03 
1.372100e-01 1.582227e+03 
1.384300e-01 1.553427e+03 
1.395700e-01 1.527026e+03 
1.407700e-01 1.499930e+03 
1.420300e-01 1.472641e+03 
1.432800e-01 1.446229e+03 
1.444500e-01 1.423036e+03 
1.456300e-01 1.400160e+03 
1.468900e-01 1.377286e+03 
1.480500e-01 1.356986e+03 
1.491700e-01 1.338365e+03 
1.503800e-01 1.319396e+03 
1.516400e-01 1.300312e+03 
1.528200e-01 1.283894e+03 
1.540200e-01 1.267526e+03 
1.551900e-01 1.252752e+03 
1.564300e-01 1.237610e+03 
1.576600e-01 1.223229e+03 
1.588700e-01 1.209767e+03 
1.600900e-01 1.196468e+03 
1.612700e-01 1.184171e+03 
1.625400e-01 1.171182e+03 
1.637600e-01 1.158876e+03 
1.649500e-01 1.147053e+03 
1.662200e-01 1.134596e+03 
1.674000e-01 1.122844e+03 
1.685000e-01 1.112072e+03 
1.697500e-01 1.099687e+03 
1.710300e-01 1.086885e+03 
1.722200e-01 1.075198e+03 
1.734400e-01 1.062687e+03 
1.746400e-01 1.050568e+03 
1.758700e-01 1.038153e+03 
1.770900e-01 1.025625e+03 
1.782700e-01 1.013722e+03 
1.794600e-01 1.001666e+03 
1.807000e-01 9.891518e+02 
1.819100e-01 9.771582e+02 
1.830100e-01 9.662984e+02 
1.842200e-01 9.545281e+02 
1.855000e-01 9.423030e+02 
1.867000e-01 9.311321e+02 
1.879200e-01 9.199692e+02 
1.890900e-01 9.094833e+02 
1.902800e-01 8.992000e+02 
1.915200e-01 8.886639e+02 
1.926900e-01 8.789683e+02 
1.939000e-01 8.693697e+02 
1.951700e-01 8.594618e+02 
1.963100e-01 8.508008e+02 
1.975100e-01 8.420657e+02 
1.987800e-01 8.329689e+02 
2.000100e-01 8.243815e+02 
2.012500e-01 8.160486e+02 
2.023400e-01 8.088314e+02 
2.036100e-01 8.005806e+02 
2.048900e-01 7.925277e+02 
2.060400e-01 7.854010e+02 
2.072200e-01 7.781972e+02 
2.084200e-01 7.710302e+02 
2.096900e-01 7.635583e+02 
2.109200e-01 7.564305e+02 
2.121100e-01 7.496026e+02 
2.132700e-01 7.430383e+02 
2.145200e-01 7.360657e+02 
2.157200e-01 7.294213e+02 
2.168800e-01 7.230657e+02 
2.180700e-01 7.166351e+02 
2.193400e-01 7.098400e+02 
2.206000e-01 7.031406e+02 
2.217500e-01 6.971111e+02 
2.229500e-01 6.909043e+02 
2.241400e-01 6.847684e+02 
2.253500e-01 6.786129e+02 
2.264900e-01 6.728908e+02 
2.277100e-01 6.668336e+02 
2.289900e-01 6.605511e+02 
2.301500e-01 6.549353e+02 
2.313600e-01 6.491547e+02 
2.325600e-01 6.435045e+02 
2.337700e-01 6.378828e+02 
2.350000e-01 6.322446e+02 
2.362000e-01 6.268310e+02 
2.374100e-01 6.214605e+02 
2.386500e-01 6.160295e+02 
2.399100e-01 6.105848e+02 
2.410400e-01 6.058111e+02 
2.422500e-01 6.007687e+02 
2.435000e-01 5.956271e+02 
2.447300e-01 5.906449e+02 
2.458700e-01 5.861298e+02 
2.470600e-01 5.814736e+02 
2.483300e-01 5.765672e+02 
2.495600e-01 5.718976e+02 
2.507600e-01 5.674273e+02 
2.519600e-01 5.630113e+02 
2.532200e-01 5.584319e+02 
2.543700e-01 5.543241e+02 
2.555500e-01 5.501726e+02 
2.568000e-01 5.458277e+02 
2.580100e-01 5.416728e+02 
2.592400e-01 5.375166e+02 
2.604100e-01 5.336168e+02 
2.616100e-01 5.296631e+02 
2.628400e-01 5.256581e+02 
2.640600e-01 5.217404e+02 
2.652200e-01 5.180608e+02 
2.664300e-01 5.142661e+02 
2.676500e-01 5.104841e+02 
2.688400e-01 5.068354e+02 
2.700700e-01 5.031060e+02 
2.712400e-01 4.995984e+02 
2.724800e-01 4.959227e+02 
2.736700e-01 4.924350e+02 
2.748800e-01 4.889279e+02 
2.761000e-01 4.854313e+02 
2.773200e-01 4.819739e+02 
2.785400e-01 4.785530e+02 
2.797000e-01 4.753311e+02 
2.808900e-01 4.720611e+02 
2.821400e-01 4.686641e+02 
2.833900e-01 4.653049e+02 
2.845500e-01 4.622151e+02 
2.857800e-01 4.589738e+02 
2.870300e-01 4.557160e+02 
2.882100e-01 4.526737e+02 
2.893900e-01 4.496621e+02 
2.906300e-01 4.465306e+02 
2.918900e-01 4.433833e+02 
2.930500e-01 4.405163e+02 
2.942500e-01 4.375806e+02 
2.954200e-01 4.347474e+02 
2.966500e-01 4.317997e+02 
2.978900e-01 4.288593e+02 
2.990400e-01 4.261602e+02 
3.002700e-01 4.233039e+02 
3.015100e-01 4.204550e+02 
3.026800e-01 4.177943e+02 
3.038500e-01 4.151598e+02 
3.050300e-01 4.125288e+02 
3.062600e-01 4.098178e+02 
3.075000e-01 4.071127e+02 
3.087000e-01 4.045212e+02 
3.099100e-01 4.019341e+02 
3.111200e-01 3.993756e+02 
3.123100e-01 3.968889e+02 
3.135300e-01 3.943646e+02 
3.147300e-01 3.919060e+02 
3.159900e-01 3.893501e+02 
3.171800e-01 3.869645e+02 
3.183700e-01 3.846046e+02 
3.196300e-01 3.821303e+02 
3.208400e-01 3.797775e+02 
3.220300e-01 3.774855e+02 
3.232000e-01 3.752596e+02 
3.244300e-01 3.729441e+02 
3.256700e-01 3.706323e+02 
3.269200e-01 3.683244e+02 
3.280800e-01 3.662028e+02 
3.292500e-01 3.640900e+02 
3.304800e-01 3.618919e+02 
3.317100e-01 3.597145e+02 
3.328900e-01 3.576448e+02 
3.340700e-01 3.555938e+02 
3.353600e-01 3.533804e+02 
3.365300e-01 3.513945e+02 
3.377100e-01 3.494093e+02 
3.389200e-01 3.473919e+02 
3.401600e-01 3.453435e+02 
3.413700e-01 3.433691e+02 
3.425300e-01 3.414974e+02 
3.437700e-01 3.395143e+02 
3.449800e-01 3.375966e+02 
3.461800e-01 3.357116e+02 
3.473600e-01 3.338771e+02 
3.485800e-01 3.320041e+02 
3.498100e-01 3.301326e+02 
3.510200e-01 3.283077e+02 
3.522000e-01 3.265435e+02 
3.533900e-01 3.247794e+02 
3.546400e-01 3.229502e+02 
3.558400e-01 3.212100e+02 
3.570600e-01 3.194560e+02 
3.582700e-01 3.177313e+02 
3.595000e-01 3.159932e+02 
3.607100e-01 3.143025e+02 
3.618900e-01 3.126708e+02 
3.631200e-01 3.109844e+02 
3.643200e-01 3.093529e+02 
3.655500e-01 3.076948e+02 
3.667300e-01 3.061173e+02 
3.679500e-01 3.045077e+02 
3.691900e-01 3.028855e+02 
3.703600e-01 3.013676e+02 
3.715700e-01 2.998104e+02 
3.727700e-01 2.982787e+02 
3.739900e-01 2.967366e+02 
3.752000e-01 2.952237e+02 
3.763900e-01 2.937479e+02 
3.775800e-01 2.922838e+02 
3.788200e-01 2.907706e+02 
3.800300e-01 2.893060e+02 
3.812100e-01 2.878922e+02 
3.824200e-01 2.864560e+02 
3.836100e-01 2.850547e+02 
3.848600e-01 2.835945e+02 
3.860400e-01 2.822271e+02 
3.872400e-01 2.808473e+02 
3.884600e-01 2.794596e+02 
3.896500e-01 2.781181e+02 
3.908700e-01 2.767536e+02 
3.920600e-01 2.754329e+02 
3.933100e-01 2.740565e+02 
3.945300e-01 2.727238e+02 
3.957200e-01 2.714377e+02 
3.969300e-01 2.701411e+02 
3.981700e-01 2.688226e+02 
3.993500e-01 2.675775e+02 
4.094840e-01 2.572802e+02 
4.272360e-01 2.408225e+02 
4.454600e-01 2.257449e+02 
4.630560e-01 2.126898e+02 
4.804610e-01 2.010439e+02 
4.980690e-01 1.903841e+02 
5.159230e-01 1.805782e+02 
5.317440e-01 1.726359e+02 
5.489640e-01 1.646986e+02 
5.671990e-01 1.570090e+02 
5.838690e-01 1.505488e+02 
6.018840e-01 1.441131e+02 
6.202330e-01 1.380846e+02 
6.379250e-01 1.327081e+02 
6.545410e-01 1.280259e+02 
6.714560e-01 1.235754e+02 
6.892080e-01 1.192222e+02 
7.066010e-01 1.152470e+02 
7.240540e-01 1.115079e+02 
7.420450e-01 1.079067e+02 
7.593780e-01 1.046524e+02 
7.764720e-01 1.016290e+02 
7.942840e-01 9.866015e+01 
8.116170e-01 9.593849e+01 
8.288310e-01 9.338365e+01 
8.462240e-01 9.094067e+01 
8.631980e-01 8.867774e+01 
8.810700e-01 8.641483e+01 
8.989410e-01 8.426488e+01 
9.166330e-01 8.224179e+01 
9.345640e-01 8.029165e+01 
9.515980e-01 7.852243e+01 
9.688720e-01 7.680532e+01 
9.865640e-01 7.512460e+01 
1.031870e+00 7.113115e+01 
1.063490e+00 6.858238e+01 
1.097920e+00 6.600467e+01 
1.134370e+00 6.346841e+01 
1.167730e+00 6.130560e+01 
1.203830e+00 5.911253e+01 
1.240470e+00 5.703151e+01 
1.275790e+00 5.514820e+01 
1.309140e+00 5.347211e+01 
1.342970e+00 5.185707e+01 
1.378420e+00 5.025781e+01 
1.413200e+00 4.877055e+01 
1.448110e+00 4.735166e+01 
1.484090e+00 4.596198e+01 
1.518820e+00 4.468431e+01 
1.552880e+00 4.348844e+01 
1.588630e+00 4.228873e+01 
1.623230e+00 4.117995e+01 
1.657720e+00 4.012025e+01 
1.692450e+00 3.909927e+01 
1.726400e+00 3.813994e+01 
1.762200e+00 3.716756e+01 
1.797880e+00 3.623781e+01 
1.833270e+00 3.535255e+01 
1.869070e+00 3.449027e+01 
1.903200e+00 3.369890e+01 
1.937740e+00 3.292686e+01 
1.973190e+00 3.216280e+01 
2.007440e+00 3.145077e+01 
2.042160e+00 3.075293e+01 
2.077900e+00 3.005884e+01 
2.112390e+00 2.941221e+01 
2.146220e+00 2.879738e+01 
2.181600e+00 2.817551e+01 
2.216930e+00 2.757410e+01 
2.250760e+00 2.701641e+01 
2.286500e+00 2.644568e+01 
2.321770e+00 2.589992e+01 
2.355950e+00 2.538741e+01 
2.391280e+00 2.487156e+01 
2.426240e+00 2.437648e+01 
2.460670e+00 2.390356e+01 
2.495640e+00 2.343752e+01 
2.531080e+00 2.297769e+01 
2.566220e+00 2.253423e+01 
2.600830e+00 2.210989e+01 
2.635080e+00 2.170188e+01 
2.670340e+00 2.129203e+01 
2.705970e+00 2.088940e+01 
2.740040e+00 2.051491e+01 
2.774520e+00 2.014519e+01 
2.809730e+00 1.977695e+01 
2.844390e+00 1.942416e+01 
2.879960e+00 1.907152e+01 
2.914860e+00 1.873380e+01 
2.949410e+00 1.840810e+01 
2.984440e+00 1.808559e+01 
3.019760e+00 1.776824e+01 
3.054730e+00 1.746206e+01 
3.089030e+00 1.716826e+01 
3.124060e+00 1.687574e+01 
3.159560e+00 1.658639e+01 
3.194710e+00 1.630643e+01 
3.229010e+00 1.604003e+01 
3.263320e+00 1.577841e+01 
3.297930e+00 1.552091e+01 
3.332830e+00 1.526701e+01 
3.368040e+00 1.501671e+01 
3.403300e+00 1.477196e+01 
3.438450e+00 1.453300e+01 
3.473060e+00 1.430338e+01 
3.508440e+00 1.407286e+01 
3.543110e+00 1.385244e+01 
3.577470e+00 1.363837e+01 
3.613040e+00 1.342181e+01 
3.648120e+00 1.321233e+01 
3.682910e+00 1.300920e+01 
3.718050e+00 1.280817e+01 
3.753320e+00 1.261075e+01 
3.787980e+00 1.242061e+01 
3.822290e+00 1.223633e+01 
3.857020e+00 1.205343e+01 
3.891920e+00 1.187345e+01 
3.926650e+00 1.169768e+01 
3.961970e+00 1.152276e+01 
3.997360e+00 1.135093e+01 
4.031670e+00 1.118788e+01 
4.066330e+00 1.102606e+01 
4.101420e+00 1.086578e+01 
4.136200e+00 1.070949e+01 
4.170810e+00 1.055730e+01 
4.206250e+00 1.040429e+01 
4.241580e+00 1.025495e+01 
4.276300e+00 1.011086e+01 
4.310970e+00 9.969733e+00 
4.346120e+00 9.829398e+00 
4.380600e+00 9.694186e+00 
4.414730e+00 9.563040e+00 
4.450350e+00 9.428454e+00 
4.485320e+00 9.299037e+00 
4.519810e+00 9.173582e+00 
4.555430e+00 9.046454e+00 
4.590870e+00 8.922377e+00 
4.625480e+00 8.803294e+00 
4.659910e+00 8.687132e+00 
4.695230e+00 8.570033e+00 
4.729960e+00 8.457091e+00 
4.764450e+00 8.346906e+00 
4.799530e+00 8.236698e+00 
4.834910e+00 8.127680e+00 
4.869700e+00 8.022269e+00 
4.904370e+00 7.919144e+00 
4.939450e+00 7.816678e+00 
4.973940e+00 7.717622e+00 
5.008430e+00 7.620371e+00 
5.043810e+00 7.522254e+00 
5.078840e+00 7.426784e+00 
5.113500e+00 7.334031e+00 
5.148890e+00 7.240831e+00 
5.184210e+00 7.149492e+00 
5.219060e+00 7.060947e+00 
5.253660e+00 6.974492e+00 
5.288570e+00 6.888790e+00 
5.323420e+00 6.804645e+00 
5.358440e+00 6.721464e+00 
5.393590e+00 6.639426e+00 
5.428310e+00 6.559725e+00 
5.462800e+00 6.481864e+00 
5.497640e+00 6.404539e+00 
5.532670e+00 6.328069e+00 
5.567280e+00 6.253771e+00 
5.602000e+00 6.180473e+00 
5.637270e+00 6.107184e+00 
5.672410e+00 6.035366e+00 
5.707020e+00 5.965793e+00 
5.742040e+00 5.896565e+00 
5.777430e+00 5.827757e+00 
5.812210e+00 5.761233e+00 
5.846820e+00 5.696028e+00 
5.881610e+00 5.631509e+00 
5.916510e+00 5.567815e+00 
5.951600e+00 5.504786e+00 
5.986560e+00 5.442981e+00 
6.021830e+00 5.381610e+00 
6.056490e+00 5.322278e+00 
6.091160e+00 5.263871e+00 
6.125830e+00 5.206359e+00 
6.161090e+00 5.148769e+00 
6.195760e+00 5.093016e+00 
6.230420e+00 5.038119e+00 
6.265690e+00 4.983102e+00 
6.300950e+00 4.928993e+00 
6.335620e+00 4.876586e+00 
6.370880e+00 4.824081e+00 
6.405550e+00 4.773247e+00 
6.440220e+00 4.723168e+00 
6.475480e+00 4.672984e+00 
6.510150e+00 4.624384e+00 
6.544810e+00 4.576550e+00 
6.580080e+00 4.528578e+00 
6.614750e+00 4.482100e+00 
6.649410e+00 4.436352e+00 
6.684080e+00 4.391248e+00 
6.719340e+00 4.346026e+00 
6.754010e+00 4.302222e+00 
6.788680e+00 4.259104e+00 
6.823940e+00 4.215866e+00 
6.859800e+00 4.172513e+00 
6.894470e+00 4.131234e+00 
6.929140e+00 4.090536e+00 
6.963800e+00 4.050403e+00 
6.999070e+00 4.010127e+00 
7.033730e+00 3.971181e+00 
7.068400e+00 3.932745e+00 
7.103660e+00 3.894180e+00 
7.138330e+00 3.856797e+00 
7.173600e+00 3.819330e+00 
7.208260e+00 3.783000e+00 
7.243530e+00 3.746519e+00 
7.277600e+00 3.711779e+00 
7.312860e+00 3.676330e+00 
7.348120e+00 3.641346e+00 
7.382790e+00 3.607394e+00 
7.417460e+00 3.573970e+00 
7.452720e+00 3.540463e+00 
7.487390e+00 3.507938e+00 
7.522650e+00 3.475280e+00 
7.557320e+00 3.443643e+00 
7.591990e+00 3.412427e+00 
7.627250e+00 3.381078e+00 
7.662510e+00 3.350125e+00 
7.697180e+00 3.320147e+00 
7.731850e+00 3.290568e+00 
7.766510e+00 3.261360e+00 
7.801180e+00 3.232498e+00 
7.836440e+00 3.203559e+00 
7.871110e+00 3.175484e+00 
7.906380e+00 3.147270e+00 
7.941040e+00 3.119879e+00 
7.976310e+00 3.092385e+00 
8.011570e+00 3.065285e+00 
8.046240e+00 3.038956e+00 
8.080900e+00 3.012944e+00 
8.115570e+00 2.987253e+00 
8.150830e+00 2.961522e+00 
8.185500e+00 2.936518e+00 
8.220770e+00 2.911378e+00 
8.255430e+00 2.886960e+00 
8.290100e+00 2.862912e+00 
8.324770e+00 2.839149e+00 
8.359430e+00 2.815663e+00 
8.394700e+00 2.792038e+00 
8.429960e+00 2.768742e+00 
8.464630e+00 2.746149e+00 
8.499890e+00 2.723430e+00 
8.534560e+00 2.701343e+00 
8.569200e+00 2.679519e+00 
