# Parameters:
# omega_b = 0.022004, omega_m = 0.135157, n_s = 0.980709, h = 84.763780, w = -1.000000, sigma_8 = 0.840157
# z = 1.500000
#
# k[1/Mpc] # P(k):
8.694000e-04 3.935858e+03 
2.077466e-03 8.462038e+03 
3.285532e-03 1.200931e+04 
4.493598e-03 1.472978e+04 
5.701664e-03 1.673938e+04 
6.909730e-03 1.815387e+04 
8.117797e-03 1.910332e+04 
9.325863e-03 1.965551e+04 
1.053393e-02 1.987786e+04 
1.174199e-02 1.983180e+04 
1.295006e-02 1.955760e+04 
1.415813e-02 1.910947e+04 
1.536619e-02 1.853242e+04 
1.657426e-02 1.785684e+04 
1.778233e-02 1.711213e+04 
1.899039e-02 1.634078e+04 
2.019846e-02 1.556577e+04 
2.140652e-02 1.480651e+04 
2.261459e-02 1.407414e+04 
2.382266e-02 1.338180e+04 
2.503072e-02 1.273860e+04 
2.623879e-02 1.214758e+04 
2.744685e-02 1.160970e+04 
2.865492e-02 1.112548e+04 
2.986299e-02 1.069180e+04 
3.100100e-02 1.032812e+04 
3.220400e-02 9.986598e+03 
3.288100e-02 9.813336e+03 
3.424300e-02 9.499200e+03 
3.555100e-02 9.234391e+03 
3.686000e-02 8.999671e+03 
3.795000e-02 8.822102e+03 
3.929100e-02 8.621229e+03 
4.039800e-02 8.464478e+03 
4.164000e-02 8.294347e+03 
4.294400e-02 8.114461e+03 
4.415000e-02 7.947499e+03 
4.542900e-02 7.761414e+03 
4.660900e-02 7.585376e+03 
4.782300e-02 7.390535e+03 
4.892900e-02 7.207430e+03 
5.031200e-02 6.968635e+03 
5.155900e-02 6.744141e+03 
5.238100e-02 6.593101e+03 
5.378200e-02 6.332040e+03 
5.513400e-02 6.075753e+03 
5.627600e-02 5.857407e+03 
5.735300e-02 5.650842e+03 
5.870100e-02 5.392188e+03 
5.988700e-02 5.166816e+03 
6.113500e-02 4.934378e+03 
6.225900e-02 4.733089e+03 
6.340100e-02 4.540486e+03 
6.480200e-02 4.323924e+03 
6.601100e-02 4.159519e+03 
6.725500e-02 4.012177e+03 
6.829100e-02 3.907472e+03 
6.958600e-02 3.793888e+03 
7.071100e-02 3.710995e+03 
7.192300e-02 3.634653e+03 
7.307400e-02 3.572597e+03 
7.412300e-02 3.523252e+03 
7.550400e-02 3.467489e+03 
7.663100e-02 3.426974e+03 
7.791200e-02 3.385704e+03 
7.912700e-02 3.348675e+03 
8.027600e-02 3.314157e+03 
8.138400e-02 3.280526e+03 
8.272200e-02 3.238263e+03 
8.406100e-02 3.193129e+03 
8.534100e-02 3.145281e+03 
8.653800e-02 3.096007e+03 
8.759800e-02 3.049678e+03 
8.900300e-02 2.983817e+03 
9.009000e-02 2.929076e+03 
9.113300e-02 2.873316e+03 
9.239600e-02 2.803972e+03 
9.358000e-02 2.736610e+03 
9.496100e-02 2.655426e+03 
9.608400e-02 2.589336e+03 
9.727500e-02 2.519821e+03 
9.852600e-02 2.446831e+03 
9.973800e-02 2.378407e+03 
1.009000e-01 2.314889e+03 
1.020900e-01 2.253302e+03 
1.034000e-01 2.189165e+03 
1.046000e-01 2.133852e+03 
1.057200e-01 2.087276e+03 
1.069100e-01 2.040676e+03 
1.082500e-01 1.994196e+03 
1.093900e-01 1.958849e+03 
1.105400e-01 1.925883e+03 
1.116900e-01 1.897973e+03 
1.129600e-01 1.869363e+03 
1.142000e-01 1.845645e+03 
1.153300e-01 1.825687e+03 
1.166400e-01 1.804868e+03 
1.177800e-01 1.788143e+03 
1.190000e-01 1.771125e+03 
1.201200e-01 1.755701e+03 
1.213400e-01 1.739278e+03 
1.227100e-01 1.719562e+03 
1.238900e-01 1.702440e+03 
1.250700e-01 1.683769e+03 
1.263200e-01 1.663513e+03 
1.275500e-01 1.641957e+03 
1.287500e-01 1.620239e+03 
1.299900e-01 1.596456e+03 
1.311300e-01 1.574041e+03 
1.323500e-01 1.549022e+03 
1.335900e-01 1.523346e+03 
1.347100e-01 1.499566e+03 
1.359800e-01 1.472764e+03 
1.372100e-01 1.446507e+03 
1.384300e-01 1.420907e+03 
1.395700e-01 1.397095e+03 
1.407700e-01 1.372612e+03 
1.420300e-01 1.347551e+03 
1.432800e-01 1.323295e+03 
1.444500e-01 1.301711e+03 
1.456300e-01 1.280427e+03 
1.468900e-01 1.259056e+03 
1.480500e-01 1.240064e+03 
1.491700e-01 1.222665e+03 
1.503800e-01 1.204969e+03 
1.516400e-01 1.187202e+03 
1.528200e-01 1.172074e+03 
1.540200e-01 1.156993e+03 
1.551900e-01 1.143604e+03 
1.564300e-01 1.129939e+03 
1.576600e-01 1.117096e+03 
1.588700e-01 1.105240e+03 
1.600900e-01 1.093538e+03 
1.612700e-01 1.082958e+03 
1.625400e-01 1.071781e+03 
1.637600e-01 1.061270e+03 
1.649500e-01 1.051215e+03 
1.662200e-01 1.040620e+03 
1.674000e-01 1.030621e+03 
1.685000e-01 1.021456e+03 
1.697500e-01 1.010853e+03 
1.710300e-01 9.998299e+02 
1.722200e-01 9.897643e+02 
1.734400e-01 9.788075e+02 
1.746400e-01 9.681847e+02 
1.758700e-01 9.572369e+02 
1.770900e-01 9.460612e+02 
1.782700e-01 9.354394e+02 
1.794600e-01 9.245850e+02 
1.807000e-01 9.132542e+02 
1.819100e-01 9.023929e+02 
1.830100e-01 8.924672e+02 
1.842200e-01 8.816931e+02 
1.855000e-01 8.704995e+02 
1.867000e-01 8.602112e+02 
1.879200e-01 8.499301e+02 
1.890900e-01 8.402697e+02 
1.902800e-01 8.307820e+02 
1.915200e-01 8.210608e+02 
1.926900e-01 8.121189e+02 
1.939000e-01 8.032780e+02 
1.951700e-01 7.941521e+02 
1.963100e-01 7.861835e+02 
1.975100e-01 7.781707e+02 
1.987800e-01 7.698258e+02 
2.000100e-01 7.619600e+02 
2.012500e-01 7.543554e+02 
2.023400e-01 7.477686e+02 
2.036100e-01 7.402454e+02 
2.048900e-01 7.329309e+02 
2.060400e-01 7.264572e+02 
2.072200e-01 7.199147e+02 
2.084200e-01 7.134265e+02 
2.096900e-01 7.066619e+02 
2.109200e-01 7.002082e+02 
2.121100e-01 6.940353e+02 
2.132700e-01 6.881007e+02 
2.145200e-01 6.817963e+02 
2.157200e-01 6.757897e+02 
2.168800e-01 6.700443e+02 
2.180700e-01 6.642306e+02 
2.193400e-01 6.580862e+02 
2.206000e-01 6.520269e+02 
2.217500e-01 6.465730e+02 
2.229500e-01 6.409581e+02 
2.241400e-01 6.354046e+02 
2.253500e-01 6.298328e+02 
2.264900e-01 6.246527e+02 
2.277100e-01 6.191696e+02 
2.289900e-01 6.134827e+02 
2.301500e-01 6.083988e+02 
2.313600e-01 6.031651e+02 
2.325600e-01 5.980526e+02 
2.337700e-01 5.929653e+02 
2.350000e-01 5.878625e+02 
2.362000e-01 5.829654e+02 
2.374100e-01 5.781103e+02 
2.386500e-01 5.731999e+02 
2.399100e-01 5.682765e+02 
2.410400e-01 5.639636e+02 
2.422500e-01 5.594080e+02 
2.435000e-01 5.547622e+02 
2.447300e-01 5.502604e+02 
2.458700e-01 5.461822e+02 
2.470600e-01 5.419761e+02 
2.483300e-01 5.375435e+02 
2.495600e-01 5.333233e+02 
2.507600e-01 5.292815e+02 
2.519600e-01 5.252884e+02 
2.532200e-01 5.211471e+02 
2.543700e-01 5.174282e+02 
2.555500e-01 5.136666e+02 
2.568000e-01 5.097295e+02 
2.580100e-01 5.059643e+02 
2.592400e-01 5.021902e+02 
2.604100e-01 4.986455e+02 
2.616100e-01 4.950514e+02 
2.628400e-01 4.914104e+02 
2.640600e-01 4.878401e+02 
2.652200e-01 4.844833e+02 
2.664300e-01 4.810211e+02 
2.676500e-01 4.775704e+02 
2.688400e-01 4.742341e+02 
2.700700e-01 4.708195e+02 
2.712400e-01 4.676077e+02 
2.724800e-01 4.642419e+02 
2.736700e-01 4.610430e+02 
2.748800e-01 4.578212e+02 
2.761000e-01 4.546089e+02 
2.773200e-01 4.514324e+02 
2.785400e-01 4.482867e+02 
2.797000e-01 4.453189e+02 
2.808900e-01 4.423066e+02 
2.821400e-01 4.391771e+02 
2.833900e-01 4.360821e+02 
2.845500e-01 4.332306e+02 
2.857800e-01 4.302390e+02 
2.870300e-01 4.272322e+02 
2.882100e-01 4.244241e+02 
2.893900e-01 4.216421e+02 
2.906300e-01 4.187481e+02 
2.918900e-01 4.158394e+02 
2.930500e-01 4.131896e+02 
2.942500e-01 4.104757e+02 
2.954200e-01 4.078549e+02 
2.966500e-01 4.051280e+02 
2.978900e-01 4.024079e+02 
2.990400e-01 3.999108e+02 
3.002700e-01 3.972674e+02 
3.015100e-01 3.946304e+02 
3.026800e-01 3.921674e+02 
3.038500e-01 3.897286e+02 
3.050300e-01 3.872931e+02 
3.062600e-01 3.847828e+02 
3.075000e-01 3.822780e+02 
3.087000e-01 3.798783e+02 
3.099100e-01 3.774825e+02 
3.111200e-01 3.751131e+02 
3.123100e-01 3.728104e+02 
3.135300e-01 3.704726e+02 
3.147300e-01 3.681957e+02 
3.159900e-01 3.658285e+02 
3.171800e-01 3.636189e+02 
3.183700e-01 3.614330e+02 
3.196300e-01 3.591410e+02 
3.208400e-01 3.569614e+02 
3.220300e-01 3.548382e+02 
3.232000e-01 3.527764e+02 
3.244300e-01 3.506318e+02 
3.256700e-01 3.484905e+02 
3.269200e-01 3.463528e+02 
3.280800e-01 3.443875e+02 
3.292500e-01 3.424305e+02 
3.304800e-01 3.403945e+02 
3.317100e-01 3.383777e+02 
3.328900e-01 3.364606e+02 
3.340700e-01 3.345606e+02 
3.353600e-01 3.325103e+02 
3.365300e-01 3.306707e+02 
3.377100e-01 3.288317e+02 
3.389200e-01 3.269628e+02 
3.401600e-01 3.250650e+02 
3.413700e-01 3.232358e+02 
3.425300e-01 3.215018e+02 
3.437700e-01 3.196645e+02 
3.449800e-01 3.178878e+02 
3.461800e-01 3.161412e+02 
3.473600e-01 3.144413e+02 
3.485800e-01 3.127056e+02 
3.498100e-01 3.109712e+02 
3.510200e-01 3.092799e+02 
3.522000e-01 3.076447e+02 
3.533900e-01 3.060097e+02 
3.546400e-01 3.043142e+02 
3.558400e-01 3.027011e+02 
3.570600e-01 3.010751e+02 
3.582700e-01 2.994763e+02 
3.595000e-01 2.978650e+02 
3.607100e-01 2.962971e+02 
3.618900e-01 2.947838e+02 
3.631200e-01 2.932195e+02 
3.643200e-01 2.917063e+02 
3.655500e-01 2.901682e+02 
3.667300e-01 2.887049e+02 
3.679500e-01 2.872111e+02 
3.691900e-01 2.857057e+02 
3.703600e-01 2.842968e+02 
3.715700e-01 2.828516e+02 
3.727700e-01 2.814299e+02 
3.739900e-01 2.799983e+02 
3.752000e-01 2.785935e+02 
3.763900e-01 2.772230e+02 
3.775800e-01 2.758634e+02 
3.788200e-01 2.744581e+02 
3.800300e-01 2.730979e+02 
3.812100e-01 2.717843e+02 
3.824200e-01 2.704494e+02 
3.836100e-01 2.691469e+02 
3.848600e-01 2.677897e+02 
3.860400e-01 2.665187e+02 
3.872400e-01 2.652361e+02 
3.884600e-01 2.639455e+02 
3.896500e-01 2.626977e+02 
3.908700e-01 2.614283e+02 
3.920600e-01 2.601998e+02 
3.933100e-01 2.589193e+02 
3.945300e-01 2.576795e+02 
3.957200e-01 2.564821e+02 
3.969300e-01 2.552747e+02 
3.981700e-01 2.540469e+02 
3.993500e-01 2.528874e+02 
4.094840e-01 2.432933e+02 
4.272360e-01 2.279290e+02 
4.454600e-01 2.138274e+02 
4.630560e-01 2.015972e+02 
4.804610e-01 1.906731e+02 
4.980690e-01 1.806618e+02 
5.159230e-01 1.714453e+02 
5.317440e-01 1.639736e+02 
5.489640e-01 1.565024e+02 
5.671990e-01 1.492594e+02 
5.838690e-01 1.431690e+02 
6.018840e-01 1.370968e+02 
6.202330e-01 1.314050e+02 
6.379250e-01 1.263257e+02 
6.545410e-01 1.218994e+02 
6.714560e-01 1.176901e+02 
6.892080e-01 1.135708e+02 
7.066010e-01 1.098069e+02 
7.240540e-01 1.062661e+02 
7.420450e-01 1.028547e+02 
7.593780e-01 9.977204e+01 
7.764720e-01 9.690725e+01 
7.942840e-01 9.409509e+01 
8.116170e-01 9.151677e+01 
8.288310e-01 8.909745e+01 
8.462240e-01 8.678418e+01 
8.631980e-01 8.464222e+01 
8.810700e-01 8.250134e+01 
8.989410e-01 8.046883e+01 
9.166330e-01 7.855708e+01 
9.345640e-01 7.671421e+01 
9.515980e-01 7.504392e+01 
9.688720e-01 7.342406e+01 
9.865640e-01 7.183951e+01 
1.031870e+00 6.807867e+01 
1.063490e+00 6.568116e+01 
1.097920e+00 6.325943e+01 
1.134370e+00 6.087914e+01 
1.167730e+00 5.885143e+01 
1.203830e+00 5.679805e+01 
1.240470e+00 5.485087e+01 
1.275790e+00 5.308974e+01 
1.309140e+00 5.152360e+01 
1.342970e+00 5.001574e+01 
1.378420e+00 4.852272e+01 
1.413200e+00 4.713489e+01 
1.448110e+00 4.581080e+01 
1.484090e+00 4.451462e+01 
1.518820e+00 4.332281e+01 
1.552880e+00 4.220703e+01 
1.588630e+00 4.108751e+01 
1.623230e+00 4.005261e+01 
1.657720e+00 3.906381e+01 
1.692450e+00 3.811043e+01 
1.726400e+00 3.721400e+01 
1.762200e+00 3.630506e+01 
1.797880e+00 3.543598e+01 
1.833270e+00 3.460778e+01 
1.869070e+00 3.380064e+01 
1.903200e+00 3.305960e+01 
1.937740e+00 3.233602e+01 
1.973190e+00 3.161937e+01 
2.007440e+00 3.095097e+01 
2.042160e+00 3.029566e+01 
2.077900e+00 2.964342e+01 
2.112390e+00 2.903512e+01 
2.146220e+00 2.845628e+01 
2.181600e+00 2.787041e+01 
2.216930e+00 2.730339e+01 
2.250760e+00 2.677711e+01 
2.286500e+00 2.623802e+01 
2.321770e+00 2.572208e+01 
2.355950e+00 2.523708e+01 
2.391280e+00 2.474863e+01 
2.426240e+00 2.427937e+01 
2.460670e+00 2.383070e+01 
2.495640e+00 2.338818e+01 
2.531080e+00 2.295104e+01 
2.566220e+00 2.252921e+01 
2.600830e+00 2.212521e+01 
2.635080e+00 2.173635e+01 
2.670340e+00 2.134518e+01 
2.705970e+00 2.096066e+01 
2.740040e+00 2.060277e+01 
2.774520e+00 2.024898e+01 
2.809730e+00 1.989632e+01 
2.844390e+00 1.955818e+01 
2.879960e+00 1.921971e+01 
2.914860e+00 1.889528e+01 
2.949410e+00 1.858217e+01 
2.984440e+00 1.827176e+01 
3.019760e+00 1.796610e+01 
3.054730e+00 1.767101e+01 
3.089030e+00 1.738733e+01 
3.124060e+00 1.710469e+01 
3.159560e+00 1.682486e+01 
3.194710e+00 1.655378e+01 
3.229010e+00 1.629569e+01 
3.263320e+00 1.604190e+01 
3.297930e+00 1.579195e+01 
3.332830e+00 1.554523e+01 
3.368040e+00 1.530172e+01 
3.403300e+00 1.506341e+01 
3.438450e+00 1.483045e+01 
3.473060e+00 1.460647e+01 
3.508440e+00 1.438137e+01 
3.543110e+00 1.416600e+01 
3.577470e+00 1.395642e+01 
3.613040e+00 1.374431e+01 
3.648120e+00 1.353901e+01 
3.682910e+00 1.333975e+01 
3.718050e+00 1.314225e+01 
3.753320e+00 1.294818e+01 
3.787980e+00 1.276111e+01 
3.822290e+00 1.257966e+01 
3.857020e+00 1.239938e+01 
3.891920e+00 1.222184e+01 
3.926650e+00 1.204826e+01 
3.961970e+00 1.187538e+01 
3.997360e+00 1.170531e+01 
4.031670e+00 1.154387e+01 
4.066330e+00 1.138349e+01 
4.101420e+00 1.122459e+01 
4.136200e+00 1.106937e+01 
4.170810e+00 1.091819e+01 
4.206250e+00 1.076600e+01 
4.241580e+00 1.061739e+01 
4.276300e+00 1.047383e+01 
4.310970e+00 1.033311e+01 
4.346120e+00 1.019309e+01 
4.380600e+00 1.005804e+01 
4.414730e+00 9.927010e+00 
4.450350e+00 9.792338e+00 
4.485320e+00 9.662805e+00 
4.519810e+00 9.537086e+00 
4.555430e+00 9.409606e+00 
4.590870e+00 9.285112e+00 
4.625480e+00 9.165513e+00 
4.659910e+00 9.048819e+00 
4.695230e+00 8.930992e+00 
4.729960e+00 8.817296e+00 
4.764450e+00 8.706291e+00 
4.799530e+00 8.595138e+00 
4.834910e+00 8.485161e+00 
4.869700e+00 8.378697e+00 
4.904370e+00 8.274501e+00 
4.939450e+00 8.170913e+00 
4.973940e+00 8.070658e+00 
5.008430e+00 7.972209e+00 
5.043810e+00 7.872785e+00 
5.078840e+00 7.775978e+00 
5.113500e+00 7.681905e+00 
5.148890e+00 7.587224e+00 
5.184210e+00 7.494408e+00 
5.219060e+00 7.404385e+00 
5.253660e+00 7.316392e+00 
5.288570e+00 7.229148e+00 
5.323420e+00 7.143428e+00 
5.358440e+00 7.058626e+00 
5.393590e+00 6.974971e+00 
5.428310e+00 6.893609e+00 
5.462800e+00 6.814068e+00 
5.497640e+00 6.735060e+00 
5.532670e+00 6.656832e+00 
5.567280e+00 6.580784e+00 
5.602000e+00 6.505747e+00 
5.637270e+00 6.430637e+00 
5.672410e+00 6.357006e+00 
5.707020e+00 6.285664e+00 
5.742040e+00 6.214582e+00 
5.777430e+00 6.143903e+00 
5.812210e+00 6.075559e+00 
5.846820e+00 6.008507e+00 
5.881610e+00 5.942138e+00 
5.916510e+00 5.876605e+00 
5.951600e+00 5.811687e+00 
5.986560e+00 5.747991e+00 
6.021830e+00 5.684732e+00 
6.056490e+00 5.623519e+00 
6.091160e+00 5.563215e+00 
6.125830e+00 5.503825e+00 
6.161090e+00 5.444329e+00 
6.195760e+00 5.386686e+00 
6.230420e+00 5.329920e+00 
6.265690e+00 5.273020e+00 
6.300950e+00 5.216968e+00 
6.335620e+00 5.162672e+00 
6.370880e+00 5.108266e+00 
6.405550e+00 5.055554e+00 
6.440220e+00 5.003605e+00 
6.475480e+00 4.951540e+00 
6.510150e+00 4.901091e+00 
6.544810e+00 4.851385e+00 
6.580080e+00 4.801528e+00 
6.614750e+00 4.753219e+00 
6.649410e+00 4.705620e+00 
6.684080e+00 4.658678e+00 
6.719340e+00 4.611608e+00 
6.754010e+00 4.565990e+00 
6.788680e+00 4.521042e+00 
6.823940e+00 4.475963e+00 
6.859800e+00 4.430760e+00 
6.894470e+00 4.387678e+00 
6.929140e+00 4.345186e+00 
6.963800e+00 4.303278e+00 
6.999070e+00 4.261215e+00 
7.033730e+00 4.220499e+00 
7.068400e+00 4.180312e+00 
7.103660e+00 4.139987e+00 
7.138330e+00 4.100880e+00 
7.173600e+00 4.061657e+00 
7.208260e+00 4.023619e+00 
7.243530e+00 3.985420e+00 
7.277600e+00 3.949018e+00 
7.312860e+00 3.911849e+00 
7.348120e+00 3.875165e+00 
7.382790e+00 3.839560e+00 
7.417460e+00 3.804473e+00 
7.452720e+00 3.769279e+00 
7.487390e+00 3.735114e+00 
7.522650e+00 3.700807e+00 
7.557320e+00 3.667551e+00 
7.591990e+00 3.634728e+00 
7.627250e+00 3.601762e+00 
7.662510e+00 3.569211e+00 
7.697180e+00 3.537657e+00 
7.731850e+00 3.506512e+00 
7.766510e+00 3.475755e+00 
7.801180e+00 3.445361e+00 
7.836440e+00 3.414867e+00 
7.871110e+00 3.385272e+00 
7.906380e+00 3.355528e+00 
7.941040e+00 3.326650e+00 
7.976310e+00 3.297647e+00 
8.011570e+00 3.269038e+00 
8.046240e+00 3.241241e+00 
8.080900e+00 3.213779e+00 
8.115570e+00 3.186649e+00 
8.150830e+00 3.159458e+00 
8.185500e+00 3.133033e+00 
8.220770e+00 3.106464e+00 
8.255430e+00 3.080657e+00 
8.290100e+00 3.055209e+00 
8.324770e+00 3.030060e+00 
8.359430e+00 3.005202e+00 
8.394700e+00 2.980196e+00 
8.429960e+00 2.955525e+00 
8.464630e+00 2.931585e+00 
8.499890e+00 2.907512e+00 
8.534560e+00 2.884106e+00 
8.569200e+00 2.860980e+00 
