# Parameters:
# omega_b = 0.022965, omega_m = 0.141772, n_s = 0.867323, h = 70.590551, w = -1.000000, sigma_8 = 0.772441
# z = 1.500000
#
# k[1/Mpc] # P(k):
8.694000e-04 5.529193e+03 
2.077466e-03 1.084815e+04 
3.285532e-03 1.469081e+04 
4.493598e-03 1.748822e+04 
5.701664e-03 1.944640e+04 
6.909730e-03 2.074013e+04 
8.117797e-03 2.153783e+04 
9.325863e-03 2.192490e+04 
1.053393e-02 2.197947e+04 
1.174199e-02 2.176836e+04 
1.295006e-02 2.133530e+04 
1.415813e-02 2.073652e+04 
1.536619e-02 2.001871e+04 
1.657426e-02 1.921315e+04 
1.778233e-02 1.834839e+04 
1.899039e-02 1.746623e+04 
2.019846e-02 1.658801e+04 
2.140652e-02 1.573223e+04 
2.261459e-02 1.490858e+04 
2.382266e-02 1.412928e+04 
2.503072e-02 1.340270e+04 
2.623879e-02 1.273137e+04 
2.744685e-02 1.211515e+04 
2.865492e-02 1.155573e+04 
2.986299e-02 1.105015e+04 
3.100100e-02 1.062155e+04 
3.220400e-02 1.021508e+04 
3.288100e-02 1.000699e+04 
3.424300e-02 9.627581e+03 
3.555100e-02 9.306480e+03 
3.686000e-02 9.022196e+03 
3.795000e-02 8.808545e+03 
3.929100e-02 8.570813e+03 
4.039800e-02 8.389512e+03 
4.164000e-02 8.197646e+03 
4.294400e-02 8.002988e+03 
4.415000e-02 7.827181e+03 
4.542900e-02 7.637974e+03 
4.660900e-02 7.462524e+03 
4.782300e-02 7.272444e+03 
4.892900e-02 7.095527e+03 
5.031200e-02 6.866292e+03 
5.155900e-02 6.651188e+03 
5.238100e-02 6.506318e+03 
5.378200e-02 6.255756e+03 
5.513400e-02 6.009728e+03 
5.627600e-02 5.800656e+03 
5.735300e-02 5.604338e+03 
5.870100e-02 5.361782e+03 
5.988700e-02 5.153935e+03 
6.113500e-02 4.942707e+03 
6.225900e-02 4.761280e+03 
6.340100e-02 4.587492e+03 
6.480200e-02 4.389949e+03 
6.601100e-02 4.235541e+03 
6.725500e-02 4.091763e+03 
6.829100e-02 3.984389e+03 
6.958600e-02 3.862737e+03 
7.071100e-02 3.768782e+03 
7.192300e-02 3.677927e+03 
7.307400e-02 3.600532e+03 
7.412300e-02 3.536593e+03 
7.550400e-02 3.461442e+03 
7.663100e-02 3.405590e+03 
7.791200e-02 3.348080e+03 
7.912700e-02 3.297408e+03 
8.027600e-02 3.251680e+03 
8.138400e-02 3.208847e+03 
8.272200e-02 3.157846e+03 
8.406100e-02 3.106595e+03 
8.534100e-02 3.055842e+03 
8.653800e-02 3.006191e+03 
8.759800e-02 2.960876e+03 
8.900300e-02 2.898309e+03 
9.009000e-02 2.847541e+03 
9.113300e-02 2.796577e+03 
9.239600e-02 2.733660e+03 
9.358000e-02 2.672910e+03 
9.496100e-02 2.599783e+03 
9.608400e-02 2.540092e+03 
9.727500e-02 2.477122e+03 
9.852600e-02 2.410256e+03 
9.973800e-02 2.347035e+03 
1.009000e-01 2.287896e+03 
1.020900e-01 2.229224e+03 
1.034000e-01 2.167352e+03 
1.046000e-01 2.113181e+03 
1.057200e-01 2.066032e+03 
1.069100e-01 2.018256e+03 
1.082500e-01 1.968767e+03 
1.093900e-01 1.929913e+03 
1.105400e-01 1.892927e+03 
1.116900e-01 1.859862e+03 
1.129600e-01 1.825370e+03 
1.142000e-01 1.795262e+03 
1.153300e-01 1.769518e+03 
1.166400e-01 1.741975e+03 
1.177800e-01 1.719772e+03 
1.190000e-01 1.697126e+03 
1.201200e-01 1.677511e+03 
1.213400e-01 1.656770e+03 
1.227100e-01 1.634087e+03 
1.238900e-01 1.614888e+03 
1.250700e-01 1.595563e+03 
1.263200e-01 1.575178e+03 
1.275500e-01 1.554713e+03 
1.287500e-01 1.534586e+03 
1.299900e-01 1.513281e+03 
1.311300e-01 1.493439e+03 
1.323500e-01 1.471633e+03 
1.335900e-01 1.449268e+03 
1.347100e-01 1.428572e+03 
1.359800e-01 1.405110e+03 
1.372100e-01 1.381873e+03 
1.384300e-01 1.359024e+03 
1.395700e-01 1.337340e+03 
1.407700e-01 1.314963e+03 
1.420300e-01 1.291325e+03 
1.432800e-01 1.268443e+03 
1.444500e-01 1.247305e+03 
1.456300e-01 1.226466e+03 
1.468900e-01 1.204997e+03 
1.480500e-01 1.185758e+03 
1.491700e-01 1.167887e+03 
1.503800e-01 1.149385e+03 
1.516400e-01 1.130741e+03 
1.528200e-01 1.114507e+03 
1.540200e-01 1.098337e+03 
1.551900e-01 1.083765e+03 
1.564300e-01 1.068843e+03 
1.576600e-01 1.054786e+03 
1.588700e-01 1.041763e+03 
1.600900e-01 1.028923e+03 
1.612700e-01 1.017417e+03 
1.625400e-01 1.005267e+03 
1.637600e-01 9.940238e+02 
1.649500e-01 9.833773e+02 
1.662200e-01 9.722194e+02 
1.674000e-01 9.620126e+02 
1.685000e-01 9.526582e+02 
1.697500e-01 9.420393e+02 
1.710300e-01 9.311951e+02 
1.722200e-01 9.212948e+02 
1.734400e-01 9.108305e+02 
1.746400e-01 9.006985e+02 
1.758700e-01 8.903213e+02 
1.770900e-01 8.798562e+02 
1.782700e-01 8.699101e+02 
1.794600e-01 8.597899e+02 
1.807000e-01 8.492539e+02 
1.819100e-01 8.391545e+02 
1.830100e-01 8.299005e+02 
1.842200e-01 8.198517e+02 
1.855000e-01 8.094072e+02 
1.867000e-01 7.997040e+02 
1.879200e-01 7.900086e+02 
1.890900e-01 7.808761e+02 
1.902800e-01 7.717864e+02 
1.915200e-01 7.624748e+02 
1.926900e-01 7.538763e+02 
1.939000e-01 7.452619e+02 
1.951700e-01 7.363724e+02 
1.963100e-01 7.285800e+02 
1.975100e-01 7.206587e+02 
1.987800e-01 7.124122e+02 
2.000100e-01 7.046190e+02 
2.012500e-01 6.970337e+02 
2.023400e-01 6.904659e+02 
2.036100e-01 6.829635e+02 
2.048900e-01 6.756579e+02 
2.060400e-01 6.691943e+02 
2.072200e-01 6.626666e+02 
2.084200e-01 6.562240e+02 
2.096900e-01 6.495089e+02 
2.109200e-01 6.431045e+02 
2.121100e-01 6.370385e+02 
2.132700e-01 6.312111e+02 
2.145200e-01 6.250223e+02 
2.157200e-01 6.191691e+02 
2.168800e-01 6.135908e+02 
2.180700e-01 6.079476e+02 
2.193400e-01 6.020027e+02 
2.206000e-01 5.961748e+02 
2.217500e-01 5.909302e+02 
2.229500e-01 5.855319e+02 
2.241400e-01 5.802166e+02 
2.253500e-01 5.748853e+02 
2.264900e-01 5.699299e+02 
2.277100e-01 5.646836e+02 
2.289900e-01 5.592413e+02 
2.301500e-01 5.543770e+02 
2.313600e-01 5.493703e+02 
2.325600e-01 5.444554e+02 
2.337700e-01 5.395659e+02 
2.350000e-01 5.346626e+02 
2.362000e-01 5.299406e+02 
2.374100e-01 5.252394e+02 
2.386500e-01 5.204861e+02 
2.399100e-01 5.157215e+02 
2.410400e-01 5.115167e+02 
2.422500e-01 5.070725e+02 
2.435000e-01 5.025417e+02 
2.447300e-01 4.981466e+02 
2.458700e-01 4.941421e+02 
2.470600e-01 4.900131e+02 
2.483300e-01 4.856632e+02 
2.495600e-01 4.815162e+02 
2.507600e-01 4.775363e+02 
2.519600e-01 4.736055e+02 
2.532200e-01 4.695302e+02 
2.543700e-01 4.658715e+02 
2.555500e-01 4.621720e+02 
2.568000e-01 4.583010e+02 
2.580100e-01 4.546002e+02 
2.592400e-01 4.509007e+02 
2.604100e-01 4.474310e+02 
2.616100e-01 4.439140e+02 
2.628400e-01 4.403522e+02 
2.640600e-01 4.368760e+02 
2.652200e-01 4.336148e+02 
2.664300e-01 4.302521e+02 
2.676500e-01 4.269014e+02 
2.688400e-01 4.236773e+02 
2.700700e-01 4.203873e+02 
2.712400e-01 4.172937e+02 
2.724800e-01 4.140523e+02 
2.736700e-01 4.109835e+02 
2.748800e-01 4.079046e+02 
2.761000e-01 4.048354e+02 
2.773200e-01 4.018011e+02 
2.785400e-01 3.988026e+02 
2.797000e-01 3.959858e+02 
2.808900e-01 3.931273e+02 
2.821400e-01 3.901583e+02 
2.833900e-01 3.872231e+02 
2.845500e-01 3.845294e+02 
2.857800e-01 3.817040e+02 
2.870300e-01 3.788647e+02 
2.882100e-01 3.762137e+02 
2.893900e-01 3.735915e+02 
2.906300e-01 3.708662e+02 
2.918900e-01 3.681276e+02 
2.930500e-01 3.656332e+02 
2.942500e-01 3.630795e+02 
2.954200e-01 3.606150e+02 
2.966500e-01 3.580513e+02 
2.978900e-01 3.554944e+02 
2.990400e-01 3.531476e+02 
3.002700e-01 3.506629e+02 
3.015100e-01 3.481842e+02 
3.026800e-01 3.458696e+02 
3.038500e-01 3.435781e+02 
3.050300e-01 3.412900e+02 
3.062600e-01 3.389286e+02 
3.075000e-01 3.365728e+02 
3.087000e-01 3.343163e+02 
3.099100e-01 3.320640e+02 
3.111200e-01 3.298354e+02 
3.123100e-01 3.276674e+02 
3.135300e-01 3.254668e+02 
3.147300e-01 3.233239e+02 
3.159900e-01 3.210966e+02 
3.171800e-01 3.190159e+02 
3.183700e-01 3.169567e+02 
3.196300e-01 3.147979e+02 
3.208400e-01 3.127455e+02 
3.220300e-01 3.107466e+02 
3.232000e-01 3.088037e+02 
3.244300e-01 3.067822e+02 
3.256700e-01 3.047644e+02 
3.269200e-01 3.027504e+02 
3.280800e-01 3.008992e+02 
3.292500e-01 2.990549e+02 
3.304800e-01 2.971360e+02 
3.317100e-01 2.952356e+02 
3.328900e-01 2.934296e+02 
3.340700e-01 2.916401e+02 
3.353600e-01 2.897095e+02 
3.365300e-01 2.879778e+02 
3.377100e-01 2.862470e+02 
3.389200e-01 2.844885e+02 
3.401600e-01 2.827031e+02 
3.413700e-01 2.809837e+02 
3.425300e-01 2.793546e+02 
3.437700e-01 2.776290e+02 
3.449800e-01 2.759605e+02 
3.461800e-01 2.743207e+02 
3.473600e-01 2.727260e+02 
3.485800e-01 2.711002e+02 
3.498100e-01 2.694758e+02 
3.510200e-01 2.678923e+02 
3.522000e-01 2.663615e+02 
3.533900e-01 2.648311e+02 
3.546400e-01 2.632490e+02 
3.558400e-01 2.617443e+02 
3.570600e-01 2.602279e+02 
3.582700e-01 2.587371e+02 
3.595000e-01 2.572349e+02 
3.607100e-01 2.557765e+02 
3.618900e-01 2.543714e+02 
3.631200e-01 2.529192e+02 
3.643200e-01 2.515147e+02 
3.655500e-01 2.500874e+02 
3.667300e-01 2.487296e+02 
3.679500e-01 2.473503e+02 
3.691900e-01 2.459604e+02 
3.703600e-01 2.446599e+02 
3.715700e-01 2.433260e+02 
3.727700e-01 2.420141e+02 
3.739900e-01 2.406955e+02 
3.752000e-01 2.394057e+02 
3.763900e-01 2.381477e+02 
3.775800e-01 2.368998e+02 
3.788200e-01 2.356102e+02 
3.800300e-01 2.343622e+02 
3.812100e-01 2.331609e+02 
3.824200e-01 2.319431e+02 
3.836100e-01 2.307549e+02 
3.848600e-01 2.295170e+02 
3.860400e-01 2.283579e+02 
3.872400e-01 2.271883e+02 
3.884600e-01 2.260162e+02 
3.896500e-01 2.248849e+02 
3.908700e-01 2.237341e+02 
3.920600e-01 2.226204e+02 
3.933100e-01 2.214599e+02 
3.945300e-01 2.203362e+02 
3.957200e-01 2.192563e+02 
3.969300e-01 2.181689e+02 
3.981700e-01 2.170632e+02 
3.993500e-01 2.160192e+02 
4.094840e-01 2.074061e+02 
4.272360e-01 1.937547e+02 
4.454600e-01 1.813202e+02 
4.630560e-01 1.705860e+02 
4.804610e-01 1.610158e+02 
4.980690e-01 1.522432e+02 
5.159230e-01 1.441567e+02 
5.317440e-01 1.375905e+02 
5.489640e-01 1.310129e+02 
5.671990e-01 1.246242e+02 
5.838690e-01 1.192473e+02 
6.018840e-01 1.138821e+02 
6.202330e-01 1.088517e+02 
6.379250e-01 1.043653e+02 
6.545410e-01 1.004574e+02 
6.714560e-01 9.674460e+01 
6.892080e-01 9.311563e+01 
7.066010e-01 8.980413e+01 
7.240540e-01 8.669472e+01 
7.420450e-01 8.370311e+01 
7.593780e-01 8.100463e+01 
7.764720e-01 7.850109e+01 
7.942840e-01 7.604794e+01 
8.116170e-01 7.380218e+01 
8.288310e-01 7.169901e+01 
8.462240e-01 6.969051e+01 
8.631980e-01 6.783416e+01 
8.810700e-01 6.598162e+01 
8.989410e-01 6.422601e+01 
9.166330e-01 6.257691e+01 
9.345640e-01 6.098931e+01 
9.515980e-01 5.955282e+01 
9.688720e-01 5.816181e+01 
9.865640e-01 5.680284e+01 
1.031870e+00 5.358614e+01 
1.063490e+00 5.154221e+01 
1.097920e+00 4.948217e+01 
1.134370e+00 4.746371e+01 
1.167730e+00 4.574859e+01 
1.203830e+00 4.401762e+01 
1.240470e+00 4.238055e+01 
1.275790e+00 4.090429e+01 
1.309140e+00 3.959471e+01 
1.342970e+00 3.833860e+01 
1.378420e+00 3.709765e+01 
1.413200e+00 3.594763e+01 
1.448110e+00 3.485345e+01 
1.484090e+00 3.378539e+01 
1.518820e+00 3.280628e+01 
1.552880e+00 3.189231e+01 
1.588630e+00 3.097776e+01 
1.623230e+00 3.013463e+01 
1.657720e+00 2.933128e+01 
1.692450e+00 2.855858e+01 
1.726400e+00 2.783419e+01 
1.762200e+00 2.710173e+01 
1.797880e+00 2.640324e+01 
1.833270e+00 2.573907e+01 
1.869070e+00 2.509374e+01 
1.903200e+00 2.450277e+01 
1.937740e+00 2.392692e+01 
1.973190e+00 2.335794e+01 
2.007440e+00 2.282845e+01 
2.042160e+00 2.231076e+01 
2.077900e+00 2.179667e+01 
2.112390e+00 2.131811e+01 
2.146220e+00 2.086387e+01 
2.181600e+00 2.040513e+01 
2.216930e+00 1.996217e+01 
2.250760e+00 1.955180e+01 
2.286500e+00 1.913224e+01 
2.321770e+00 1.873155e+01 
2.355950e+00 1.835551e+01 
2.391280e+00 1.797791e+01 
2.426240e+00 1.761577e+01 
2.460670e+00 1.727002e+01 
2.495640e+00 1.692953e+01 
2.531080e+00 1.659406e+01 
2.566220e+00 1.627093e+01 
2.600830e+00 1.596195e+01 
2.635080e+00 1.566499e+01 
2.670340e+00 1.536690e+01 
2.705970e+00 1.507433e+01 
2.740040e+00 1.480241e+01 
2.774520e+00 1.453412e+01 
2.809730e+00 1.426718e+01 
2.844390e+00 1.401154e+01 
2.879960e+00 1.375598e+01 
2.914860e+00 1.351151e+01 
2.949410e+00 1.327587e+01 
2.984440e+00 1.304266e+01 
3.019760e+00 1.281340e+01 
3.054730e+00 1.259231e+01 
3.089030e+00 1.238014e+01 
3.124060e+00 1.216895e+01 
3.159560e+00 1.196014e+01 
3.194710e+00 1.175821e+01 
3.229010e+00 1.156610e+01 
3.263320e+00 1.137754e+01 
3.297930e+00 1.119200e+01 
3.332830e+00 1.100914e+01 
3.368040e+00 1.082886e+01 
3.403300e+00 1.065257e+01 
3.438450e+00 1.048055e+01 
3.473060e+00 1.031527e+01 
3.508440e+00 1.014946e+01 
3.543110e+00 9.990895e+00 
3.577470e+00 9.836807e+00 
3.613040e+00 9.680973e+00 
3.648120e+00 9.530399e+00 
3.682910e+00 9.384348e+00 
3.718050e+00 9.239742e+00 
3.753320e+00 9.097770e+00 
3.787980e+00 8.961101e+00 
3.822290e+00 8.828640e+00 
3.857020e+00 8.697180e+00 
3.891920e+00 8.567815e+00 
3.926650e+00 8.441485e+00 
3.961970e+00 8.315739e+00 
3.997360e+00 8.192161e+00 
4.031670e+00 8.074916e+00 
4.066330e+00 7.958629e+00 
4.101420e+00 7.843451e+00 
4.136200e+00 7.731075e+00 
4.170810e+00 7.621649e+00 
4.206250e+00 7.511649e+00 
4.241580e+00 7.404290e+00 
4.276300e+00 7.300671e+00 
4.310970e+00 7.199164e+00 
4.346120e+00 7.098235e+00 
4.380600e+00 7.001005e+00 
4.414730e+00 6.906696e+00 
4.450350e+00 6.809876e+00 
4.485320e+00 6.716772e+00 
4.519810e+00 6.626495e+00 
4.555430e+00 6.535003e+00 
4.590870e+00 6.445715e+00 
4.625480e+00 6.360042e+00 
4.659910e+00 6.276467e+00 
4.695230e+00 6.192149e+00 
4.729960e+00 6.110812e+00 
4.764450e+00 6.031452e+00 
4.799530e+00 5.952063e+00 
4.834910e+00 5.873530e+00 
4.869700e+00 5.797582e+00 
4.904370e+00 5.723277e+00 
4.939450e+00 5.649443e+00 
4.973940e+00 5.578058e+00 
5.008430e+00 5.507972e+00 
5.043810e+00 5.437255e+00 
5.078840e+00 5.368440e+00 
5.113500e+00 5.301582e+00 
5.148890e+00 5.234356e+00 
5.184210e+00 5.168469e+00 
5.219060e+00 5.104597e+00 
5.253660e+00 5.042229e+00 
5.288570e+00 4.980403e+00 
5.323420e+00 4.919698e+00 
5.358440e+00 4.859688e+00 
5.393590e+00 4.800501e+00 
5.428310e+00 4.742977e+00 
5.462800e+00 4.686767e+00 
5.497640e+00 4.630944e+00 
5.532670e+00 4.575713e+00 
5.567280e+00 4.522042e+00 
5.602000e+00 4.469093e+00 
5.637270e+00 4.416155e+00 
5.672410e+00 4.364279e+00 
5.707020e+00 4.314024e+00 
5.742040e+00 4.263998e+00 
5.777430e+00 4.214269e+00 
5.812210e+00 4.166192e+00 
5.846820e+00 4.119071e+00 
5.881610e+00 4.072447e+00 
5.916510e+00 4.026419e+00 
5.951600e+00 3.980857e+00 
5.986560e+00 3.936174e+00 
6.021830e+00 3.891804e+00 
6.056490e+00 3.848897e+00 
6.091160e+00 3.806650e+00 
6.125830e+00 3.765050e+00 
6.161090e+00 3.723397e+00 
6.195760e+00 3.683078e+00 
6.230420e+00 3.643379e+00 
6.265690e+00 3.603592e+00 
6.300950e+00 3.564446e+00 
6.335620e+00 3.526531e+00 
6.370880e+00 3.488545e+00 
6.405550e+00 3.451775e+00 
6.440220e+00 3.415554e+00 
6.475480e+00 3.379257e+00 
6.510150e+00 3.344101e+00 
6.544810e+00 3.309490e+00 
6.580080e+00 3.274779e+00 
6.614750e+00 3.241150e+00 
6.649410e+00 3.208055e+00 
6.684080e+00 3.175428e+00 
6.719340e+00 3.142716e+00 
6.754010e+00 3.111026e+00 
6.788680e+00 3.079826e+00 
6.823940e+00 3.048539e+00 
6.859800e+00 3.017169e+00 
6.894470e+00 2.987305e+00 
6.929140e+00 2.957865e+00 
6.963800e+00 2.928833e+00 
6.999070e+00 2.899698e+00 
7.033730e+00 2.871532e+00 
7.068400e+00 2.843735e+00 
7.103660e+00 2.815846e+00 
7.138330e+00 2.788813e+00 
7.173600e+00 2.761725e+00 
7.208260e+00 2.735459e+00 
7.243530e+00 2.709084e+00 
7.277600e+00 2.683971e+00 
7.312860e+00 2.658348e+00 
7.348120e+00 2.633062e+00 
7.382790e+00 2.608521e+00 
7.417460e+00 2.584358e+00 
7.452720e+00 2.560132e+00 
7.487390e+00 2.536615e+00 
7.522650e+00 2.513003e+00 
7.557320e+00 2.490144e+00 
7.591990e+00 2.467594e+00 
7.627250e+00 2.444949e+00 
7.662510e+00 2.422589e+00 
7.697180e+00 2.400937e+00 
7.731850e+00 2.379575e+00 
7.766510e+00 2.358481e+00 
7.801180e+00 2.337637e+00 
7.836440e+00 2.316748e+00 
7.871110e+00 2.296489e+00 
7.906380e+00 2.276130e+00 
7.941040e+00 2.256364e+00 
7.976310e+00 2.236527e+00 
8.011570e+00 2.216976e+00 
8.046240e+00 2.197982e+00 
8.080900e+00 2.179215e+00 
8.115570e+00 2.160684e+00 
8.150830e+00 2.142135e+00 
8.185500e+00 2.124110e+00 
8.220770e+00 2.105987e+00 
8.255430e+00 2.088384e+00 
8.290100e+00 2.071051e+00 
8.324770e+00 2.053925e+00 
8.359430e+00 2.036998e+00 
8.394700e+00 2.019970e+00 
8.429960e+00 2.003186e+00 
8.464630e+00 1.986914e+00 
8.499890e+00 1.970552e+00 
8.534560e+00 1.954644e+00 
8.569200e+00 1.938925e+00 
