# Parameters:
# omega_b = 0.022823, omega_m = 0.145906, n_s = 1.009055, h = 63.503937, w = -1.000000, sigma_8 = 0.720472
# z = 1.500000
#
# k[1/Mpc] # P(k):
8.694000e-04 2.339863e+03 
2.077466e-03 5.219921e+03 
3.285532e-03 7.569131e+03 
4.493598e-03 9.446631e+03 
5.701664e-03 1.089947e+04 
6.909730e-03 1.198178e+04 
8.117797e-03 1.276429e+04 
9.325863e-03 1.328353e+04 
1.053393e-02 1.357893e+04 
1.174199e-02 1.368831e+04 
1.295006e-02 1.363540e+04 
1.415813e-02 1.345355e+04 
1.536619e-02 1.317258e+04 
1.657426e-02 1.281243e+04 
1.778233e-02 1.239150e+04 
1.899039e-02 1.193795e+04 
2.019846e-02 1.146743e+04 
2.140652e-02 1.099415e+04 
2.261459e-02 1.052593e+04 
2.382266e-02 1.007316e+04 
2.503072e-02 9.643828e+03 
2.623879e-02 9.241659e+03 
2.744685e-02 8.868112e+03 
2.865492e-02 8.526034e+03 
2.986299e-02 8.214826e+03 
3.100100e-02 7.949745e+03 
3.220400e-02 7.697570e+03 
3.288100e-02 7.568224e+03 
3.424300e-02 7.331969e+03 
3.555100e-02 7.131519e+03 
3.686000e-02 6.953514e+03 
3.795000e-02 6.819219e+03 
3.929100e-02 6.668793e+03 
4.039800e-02 6.553159e+03 
4.164000e-02 6.429561e+03 
4.294400e-02 6.302121e+03 
4.415000e-02 6.185672e+03 
4.542900e-02 6.058245e+03 
4.660900e-02 5.938748e+03 
4.782300e-02 5.807261e+03 
4.892900e-02 5.683718e+03 
5.031200e-02 5.522085e+03 
5.155900e-02 5.368827e+03 
5.238100e-02 5.264990e+03 
5.378200e-02 5.084537e+03 
5.513400e-02 4.906833e+03 
5.627600e-02 4.756152e+03 
5.735300e-02 4.615514e+03 
5.870100e-02 4.443558e+03 
5.988700e-02 4.297987e+03 
6.113500e-02 4.151336e+03 
6.225900e-02 4.025687e+03 
6.340100e-02 3.904470e+03 
6.480200e-02 3.764395e+03 
6.601100e-02 3.651716e+03 
6.725500e-02 3.543460e+03 
6.829100e-02 3.459917e+03 
6.958600e-02 3.362915e+03 
7.071100e-02 3.286016e+03 
7.192300e-02 3.210294e+03 
7.307400e-02 3.144891e+03 
7.412300e-02 3.090403e+03 
7.550400e-02 3.026043e+03 
7.663100e-02 2.978235e+03 
7.791200e-02 2.929406e+03 
7.912700e-02 2.887068e+03 
8.027600e-02 2.849534e+03 
8.138400e-02 2.815003e+03 
8.272200e-02 2.774779e+03 
8.406100e-02 2.735234e+03 
8.534100e-02 2.696898e+03 
8.653800e-02 2.659816e+03 
8.759800e-02 2.626095e+03 
8.900300e-02 2.579570e+03 
9.009000e-02 2.541669e+03 
9.113300e-02 2.503293e+03 
9.239600e-02 2.455544e+03 
9.358000e-02 2.408897e+03 
9.496100e-02 2.351797e+03 
9.608400e-02 2.304574e+03 
9.727500e-02 2.254247e+03 
9.852600e-02 2.199617e+03 
9.973800e-02 2.147380e+03 
1.009000e-01 2.098031e+03 
1.020900e-01 2.048013e+03 
1.034000e-01 1.994764e+03 
1.046000e-01 1.947634e+03 
1.057200e-01 1.905871e+03 
1.069100e-01 1.863289e+03 
1.082500e-01 1.818502e+03 
1.093900e-01 1.782981e+03 
1.105400e-01 1.748953e+03 
1.116900e-01 1.718170e+03 
1.129600e-01 1.685963e+03 
1.142000e-01 1.657682e+03 
1.153300e-01 1.633528e+03 
1.166400e-01 1.607726e+03 
1.177800e-01 1.587140e+03 
1.190000e-01 1.566250e+03 
1.201200e-01 1.548603e+03 
1.213400e-01 1.530026e+03 
1.227100e-01 1.510488e+03 
1.238900e-01 1.494107e+03 
1.250700e-01 1.478112e+03 
1.263200e-01 1.461389e+03 
1.275500e-01 1.444926e+03 
1.287500e-01 1.428816e+03 
1.299900e-01 1.411884e+03 
1.311300e-01 1.396076e+03 
1.323500e-01 1.378642e+03 
1.335900e-01 1.360611e+03 
1.347100e-01 1.343738e+03 
1.359800e-01 1.324431e+03 
1.372100e-01 1.304974e+03 
1.384300e-01 1.285670e+03 
1.395700e-01 1.266973e+03 
1.407700e-01 1.247615e+03 
1.420300e-01 1.226665e+03 
1.432800e-01 1.206370e+03 
1.444500e-01 1.187201e+03 
1.456300e-01 1.168293e+03 
1.468900e-01 1.148580e+03 
1.480500e-01 1.130842e+03 
1.491700e-01 1.114294e+03 
1.503800e-01 1.097074e+03 
1.516400e-01 1.079711e+03 
1.528200e-01 1.064559e+03 
1.540200e-01 1.049464e+03 
1.551900e-01 1.035903e+03 
1.564300e-01 1.022025e+03 
1.576600e-01 1.009001e+03 
1.588700e-01 9.969961e+02 
1.600900e-01 9.851646e+02 
1.612700e-01 9.746928e+02 
1.625400e-01 9.636331e+02 
1.637600e-01 9.534679e+02 
1.649500e-01 9.438827e+02 
1.662200e-01 9.338472e+02 
1.674000e-01 9.247320e+02 
1.685000e-01 9.163765e+02 
1.697500e-01 9.068970e+02 
1.710300e-01 8.972210e+02 
1.722200e-01 8.883850e+02 
1.734400e-01 8.790159e+02 
1.746400e-01 8.699404e+02 
1.758700e-01 8.606218e+02 
1.770900e-01 8.511795e+02 
1.782700e-01 8.422024e+02 
1.794600e-01 8.330246e+02 
1.807000e-01 8.234399e+02 
1.819100e-01 8.142489e+02 
1.830100e-01 8.057709e+02 
1.842200e-01 7.965526e+02 
1.855000e-01 7.869656e+02 
1.867000e-01 7.780063e+02 
1.879200e-01 7.690511e+02 
1.890900e-01 7.606074e+02 
1.902800e-01 7.521721e+02 
1.915200e-01 7.435283e+02 
1.926900e-01 7.355399e+02 
1.939000e-01 7.275213e+02 
1.951700e-01 7.192444e+02 
1.963100e-01 7.119863e+02 
1.975100e-01 7.046050e+02 
1.987800e-01 6.969184e+02 
2.000100e-01 6.896556e+02 
2.012500e-01 6.825921e+02 
2.023400e-01 6.764746e+02 
2.036100e-01 6.694880e+02 
2.048900e-01 6.626950e+02 
2.060400e-01 6.566836e+02 
2.072200e-01 6.506120e+02 
2.084200e-01 6.446306e+02 
2.096900e-01 6.383947e+02 
2.109200e-01 6.324459e+02 
2.121100e-01 6.268144e+02 
2.132700e-01 6.214036e+02 
2.145200e-01 6.156558e+02 
2.157200e-01 6.102154e+02 
2.168800e-01 6.050279e+02 
2.180700e-01 5.997789e+02 
2.193400e-01 5.942423e+02 
2.206000e-01 5.888028e+02 
2.217500e-01 5.839065e+02 
2.229500e-01 5.788657e+02 
2.241400e-01 5.738757e+02 
2.253500e-01 5.688690e+02 
2.264900e-01 5.642143e+02 
2.277100e-01 5.592700e+02 
2.289900e-01 5.541229e+02 
2.301500e-01 5.495216e+02 
2.313600e-01 5.447843e+02 
2.325600e-01 5.400982e+02 
2.337700e-01 5.354356e+02 
2.350000e-01 5.307591e+02 
2.362000e-01 5.262408e+02 
2.374100e-01 5.217254e+02 
2.386500e-01 5.171591e+02 
2.399100e-01 5.125813e+02 
2.410400e-01 5.085190e+02 
2.422500e-01 5.042221e+02 
2.435000e-01 4.998409e+02 
2.447300e-01 4.955872e+02 
2.458700e-01 4.916985e+02 
2.470600e-01 4.876886e+02 
2.483300e-01 4.834637e+02 
2.495600e-01 4.794319e+02 
2.507600e-01 4.755574e+02 
2.519600e-01 4.717305e+02 
2.532200e-01 4.677624e+02 
2.543700e-01 4.642000e+02 
2.555500e-01 4.605977e+02 
2.568000e-01 4.568282e+02 
2.580100e-01 4.532240e+02 
2.592400e-01 4.496247e+02 
2.604100e-01 4.462503e+02 
2.616100e-01 4.428296e+02 
2.628400e-01 4.393649e+02 
2.640600e-01 4.359899e+02 
2.652200e-01 4.328259e+02 
2.664300e-01 4.295630e+02 
2.676500e-01 4.263115e+02 
2.688400e-01 4.231885e+02 
2.700700e-01 4.200052e+02 
2.712400e-01 4.170114e+02 
2.724800e-01 4.138745e+02 
2.736700e-01 4.109080e+02 
2.748800e-01 4.079353e+02 
2.761000e-01 4.049718e+02 
2.773200e-01 4.020416e+02 
2.785400e-01 3.991474e+02 
2.797000e-01 3.964320e+02 
2.808900e-01 3.936761e+02 
2.821400e-01 3.908133e+02 
2.833900e-01 3.879828e+02 
2.845500e-01 3.853889e+02 
2.857800e-01 3.826679e+02 
2.870300e-01 3.799331e+02 
2.882100e-01 3.773792e+02 
2.893900e-01 3.748540e+02 
2.906300e-01 3.722298e+02 
2.918900e-01 3.695924e+02 
2.930500e-01 3.671899e+02 
2.942500e-01 3.647298e+02 
2.954200e-01 3.623552e+02 
2.966500e-01 3.598847e+02 
2.978900e-01 3.574204e+02 
2.990400e-01 3.551584e+02 
3.002700e-01 3.527620e+02 
3.015100e-01 3.503707e+02 
3.026800e-01 3.481374e+02 
3.038500e-01 3.459261e+02 
3.050300e-01 3.437178e+02 
3.062600e-01 3.414367e+02 
3.075000e-01 3.391606e+02 
3.087000e-01 3.369802e+02 
3.099100e-01 3.348036e+02 
3.111200e-01 3.326490e+02 
3.123100e-01 3.305515e+02 
3.135300e-01 3.284223e+02 
3.147300e-01 3.263486e+02 
3.159900e-01 3.241929e+02 
3.171800e-01 3.221774e+02 
3.183700e-01 3.201814e+02 
3.196300e-01 3.180887e+02 
3.208400e-01 3.160988e+02 
3.220300e-01 3.141605e+02 
3.232000e-01 3.122755e+02 
3.244300e-01 3.103137e+02 
3.256700e-01 3.083552e+02 
3.269200e-01 3.064001e+02 
3.280800e-01 3.046028e+02 
3.292500e-01 3.028113e+02 
3.304800e-01 3.009469e+02 
3.317100e-01 2.991002e+02 
3.328900e-01 2.973450e+02 
3.340700e-01 2.956057e+02 
3.353600e-01 2.937285e+02 
3.365300e-01 2.920441e+02 
3.377100e-01 2.903605e+02 
3.389200e-01 2.886496e+02 
3.401600e-01 2.869125e+02 
3.413700e-01 2.852393e+02 
3.425300e-01 2.836539e+02 
3.437700e-01 2.819742e+02 
3.449800e-01 2.803501e+02 
3.461800e-01 2.787537e+02 
3.473600e-01 2.772010e+02 
3.485800e-01 2.756180e+02 
3.498100e-01 2.740363e+02 
3.510200e-01 2.724941e+02 
3.522000e-01 2.710032e+02 
3.533900e-01 2.695125e+02 
3.546400e-01 2.679722e+02 
3.558400e-01 2.665071e+02 
3.570600e-01 2.650304e+02 
3.582700e-01 2.635785e+02 
3.595000e-01 2.621153e+02 
3.607100e-01 2.606951e+02 
3.618900e-01 2.593270e+02 
3.631200e-01 2.579130e+02 
3.643200e-01 2.565451e+02 
3.655500e-01 2.551549e+02 
3.667300e-01 2.538323e+02 
3.679500e-01 2.524897e+02 
3.691900e-01 2.511366e+02 
3.703600e-01 2.498704e+02 
3.715700e-01 2.485715e+02 
3.727700e-01 2.472940e+02 
3.739900e-01 2.460102e+02 
3.752000e-01 2.447554e+02 
3.763900e-01 2.435313e+02 
3.775800e-01 2.423169e+02 
3.788200e-01 2.410618e+02 
3.800300e-01 2.398471e+02 
3.812100e-01 2.386783e+02 
3.824200e-01 2.374935e+02 
3.836100e-01 2.363376e+02 
3.848600e-01 2.351331e+02 
3.860400e-01 2.340051e+02 
3.872400e-01 2.328668e+02 
3.884600e-01 2.317268e+02 
3.896500e-01 2.306265e+02 
3.908700e-01 2.295072e+02 
3.920600e-01 2.284239e+02 
3.933100e-01 2.272949e+02 
3.945300e-01 2.262017e+02 
3.957200e-01 2.251516e+02 
3.969300e-01 2.240944e+02 
3.981700e-01 2.230193e+02 
3.993500e-01 2.220040e+02 
4.094840e-01 2.136255e+02 
4.272360e-01 2.003372e+02 
4.454600e-01 1.882057e+02 
4.630560e-01 1.776961e+02 
4.804610e-01 1.682853e+02 
4.980690e-01 1.596146e+02 
5.159230e-01 1.515806e+02 
5.317440e-01 1.450247e+02 
5.489640e-01 1.384255e+02 
5.671990e-01 1.319839e+02 
5.838690e-01 1.265398e+02 
6.018840e-01 1.210863e+02 
6.202330e-01 1.159542e+02 
6.379250e-01 1.113652e+02 
6.545410e-01 1.073569e+02 
6.714560e-01 1.035421e+02 
6.892080e-01 9.980710e+01 
7.066010e-01 9.639361e+01 
7.240540e-01 9.318489e+01 
7.420450e-01 9.009514e+01 
7.593780e-01 8.730679e+01 
7.764720e-01 8.471775e+01 
7.942840e-01 8.218046e+01 
8.116170e-01 7.985684e+01 
8.288310e-01 7.768050e+01 
8.462240e-01 7.560176e+01 
8.631980e-01 7.368009e+01 
8.810700e-01 7.176248e+01 
8.989410e-01 6.994546e+01 
9.166330e-01 6.823859e+01 
9.345640e-01 6.659429e+01 
9.515980e-01 6.510684e+01 
9.688720e-01 6.366653e+01 
9.865640e-01 6.225921e+01 
1.031870e+00 5.892648e+01 
1.063490e+00 5.680653e+01 
1.097920e+00 5.466878e+01 
1.134370e+00 5.257164e+01 
1.167730e+00 5.078768e+01 
1.203830e+00 4.898476e+01 
1.240470e+00 4.727707e+01 
1.275790e+00 4.573384e+01 
1.309140e+00 4.436326e+01 
1.342970e+00 4.304578e+01 
1.378420e+00 4.174183e+01 
1.413200e+00 4.053095e+01 
1.448110e+00 3.937616e+01 
1.484090e+00 3.824722e+01 
1.518820e+00 3.720982e+01 
1.552880e+00 3.623897e+01 
1.588630e+00 3.526552e+01 
1.623230e+00 3.436616e+01 
1.657720e+00 3.350798e+01 
1.692450e+00 3.268042e+01 
1.726400e+00 3.190251e+01 
1.762200e+00 3.111431e+01 
1.797880e+00 3.036147e+01 
1.833270e+00 2.964395e+01 
1.869070e+00 2.894524e+01 
1.903200e+00 2.830424e+01 
1.937740e+00 2.767825e+01 
1.973190e+00 2.705845e+01 
2.007440e+00 2.648046e+01 
2.042160e+00 2.591444e+01 
2.077900e+00 2.535130e+01 
2.112390e+00 2.482593e+01 
2.146220e+00 2.432630e+01 
2.181600e+00 2.382081e+01 
2.216930e+00 2.333187e+01 
2.250760e+00 2.287810e+01 
2.286500e+00 2.241335e+01 
2.321770e+00 2.196870e+01 
2.355950e+00 2.155067e+01 
2.391280e+00 2.113020e+01 
2.426240e+00 2.072627e+01 
2.460670e+00 2.034007e+01 
2.495640e+00 1.995920e+01 
2.531080e+00 1.958311e+01 
2.566220e+00 1.922046e+01 
2.600830e+00 1.887319e+01 
2.635080e+00 1.853892e+01 
2.670340e+00 1.820265e+01 
2.705970e+00 1.787229e+01 
2.740040e+00 1.756491e+01 
2.774520e+00 1.726106e+01 
2.809730e+00 1.695835e+01 
2.844390e+00 1.666814e+01 
2.879960e+00 1.637753e+01 
2.914860e+00 1.609916e+01 
2.949410e+00 1.583059e+01 
2.984440e+00 1.556436e+01 
3.019760e+00 1.530236e+01 
3.054730e+00 1.504950e+01 
3.089030e+00 1.480633e+01 
3.124060e+00 1.456407e+01 
3.159560e+00 1.432429e+01 
3.194710e+00 1.409206e+01 
3.229010e+00 1.387097e+01 
3.263320e+00 1.365368e+01 
3.297930e+00 1.343970e+01 
3.332830e+00 1.322853e+01 
3.368040e+00 1.302011e+01 
3.403300e+00 1.281612e+01 
3.438450e+00 1.261677e+01 
3.473060e+00 1.242514e+01 
3.508440e+00 1.223268e+01 
3.543110e+00 1.204853e+01 
3.577470e+00 1.186921e+01 
3.613040e+00 1.168778e+01 
3.648120e+00 1.151237e+01 
3.682910e+00 1.134208e+01 
3.718050e+00 1.117323e+01 
3.753320e+00 1.100736e+01 
3.787980e+00 1.084756e+01 
3.822290e+00 1.069257e+01 
3.857020e+00 1.053861e+01 
3.891920e+00 1.038700e+01 
3.926650e+00 1.023878e+01 
3.961970e+00 1.009115e+01 
3.997360e+00 9.945890e+00 
4.031670e+00 9.808023e+00 
4.066330e+00 9.671177e+00 
4.101420e+00 9.535600e+00 
4.136200e+00 9.403141e+00 
4.170810e+00 9.274133e+00 
4.206250e+00 9.144306e+00 
4.241580e+00 9.017547e+00 
4.276300e+00 8.895088e+00 
4.310970e+00 8.775051e+00 
4.346120e+00 8.655629e+00 
4.380600e+00 8.540486e+00 
4.414730e+00 8.428775e+00 
4.450350e+00 8.313970e+00 
4.485320e+00 8.203548e+00 
4.519810e+00 8.096390e+00 
4.555430e+00 7.987736e+00 
4.590870e+00 7.881649e+00 
4.625480e+00 7.779773e+00 
4.659910e+00 7.680372e+00 
4.695230e+00 7.579982e+00 
4.729960e+00 7.483108e+00 
4.764450e+00 7.388533e+00 
4.799530e+00 7.293842e+00 
4.834910e+00 7.200154e+00 
4.869700e+00 7.109488e+00 
4.904370e+00 7.020760e+00 
4.939450e+00 6.932558e+00 
4.973940e+00 6.847216e+00 
5.008430e+00 6.763411e+00 
5.043810e+00 6.678793e+00 
5.078840e+00 6.596412e+00 
5.113500e+00 6.516359e+00 
5.148890e+00 6.435780e+00 
5.184210e+00 6.356789e+00 
5.219060e+00 6.280184e+00 
5.253660e+00 6.205328e+00 
5.288570e+00 6.131110e+00 
5.323420e+00 6.058206e+00 
5.358440e+00 5.986103e+00 
5.393590e+00 5.914976e+00 
5.428310e+00 5.845796e+00 
5.462800e+00 5.778164e+00 
5.497640e+00 5.710987e+00 
5.532670e+00 5.644469e+00 
5.567280e+00 5.579806e+00 
5.602000e+00 5.516003e+00 
5.637270e+00 5.452163e+00 
5.672410e+00 5.389587e+00 
5.707020e+00 5.328957e+00 
5.742040e+00 5.268550e+00 
5.777430e+00 5.208485e+00 
5.812210e+00 5.150406e+00 
5.846820e+00 5.093452e+00 
5.881610e+00 5.037083e+00 
5.916510e+00 4.981426e+00 
5.951600e+00 4.926294e+00 
5.986560e+00 4.872201e+00 
6.021830e+00 4.818481e+00 
6.056490e+00 4.766497e+00 
6.091160e+00 4.715282e+00 
6.125830e+00 4.664844e+00 
6.161090e+00 4.614327e+00 
6.195760e+00 4.565406e+00 
6.230420e+00 4.517230e+00 
6.265690e+00 4.468939e+00 
6.300950e+00 4.421364e+00 
6.335620e+00 4.375278e+00 
6.370880e+00 4.329101e+00 
6.405550e+00 4.284382e+00 
6.440220e+00 4.240320e+00 
6.475480e+00 4.196159e+00 
6.510150e+00 4.153369e+00 
6.544810e+00 4.111208e+00 
6.580080e+00 4.068921e+00 
6.614750e+00 4.027946e+00 
6.649410e+00 3.987590e+00 
6.684080e+00 3.947793e+00 
6.719340e+00 3.907888e+00 
6.754010e+00 3.869215e+00 
6.788680e+00 3.831111e+00 
6.823940e+00 3.792895e+00 
6.859800e+00 3.754575e+00 
6.894470e+00 3.718063e+00 
6.929140e+00 3.682055e+00 
6.963800e+00 3.646542e+00 
6.999070e+00 3.610899e+00 
7.033730e+00 3.576412e+00 
7.068400e+00 3.542373e+00 
7.103660e+00 3.508218e+00 
7.138330e+00 3.475099e+00 
7.173600e+00 3.441893e+00 
7.208260e+00 3.409691e+00 
7.243530e+00 3.377351e+00 
7.277600e+00 3.346538e+00 
7.312860e+00 3.315079e+00 
7.348120e+00 3.284030e+00 
7.382790e+00 3.253893e+00 
7.417460e+00 3.224193e+00 
7.452720e+00 3.194401e+00 
7.487390e+00 3.165479e+00 
7.522650e+00 3.136436e+00 
7.557320e+00 3.108301e+00 
7.591990e+00 3.080538e+00 
7.627250e+00 3.052655e+00 
7.662510e+00 3.025121e+00 
7.697180e+00 2.998437e+00 
7.731850e+00 2.972099e+00 
7.766510e+00 2.946088e+00 
7.801180e+00 2.920386e+00 
7.836440e+00 2.894609e+00 
7.871110e+00 2.869600e+00 
7.906380e+00 2.844464e+00 
7.941040e+00 2.820060e+00 
7.976310e+00 2.795551e+00 
8.011570e+00 2.771377e+00 
8.046240e+00 2.747890e+00 
8.080900e+00 2.724684e+00 
8.115570e+00 2.701762e+00 
8.150830e+00 2.678800e+00 
8.185500e+00 2.656486e+00 
8.220770e+00 2.634048e+00 
8.255430e+00 2.612254e+00 
8.290100e+00 2.590765e+00 
8.324770e+00 2.569528e+00 
8.359430e+00 2.548537e+00 
8.394700e+00 2.527419e+00 
8.429960e+00 2.506590e+00 
8.464630e+00 2.486381e+00 
8.499890e+00 2.466060e+00 
8.534560e+00 2.446302e+00 
8.569200e+00 2.426779e+00 
