# Parameters:
# omega_b = 0.021547, omega_m = 0.130472, n_s = 1.032677, h = 80.748031, w = -1.000000, sigma_8 = 0.792913
# z = 1.500000
#
# k[1/Mpc] # P(k):
8.694000e-04 3.102383e+03 
2.077466e-03 6.951148e+03 
3.285532e-03 1.006575e+04 
4.493598e-03 1.250409e+04 
5.701664e-03 1.434060e+04 
6.909730e-03 1.566001e+04 
8.117797e-03 1.656730e+04 
9.325863e-03 1.711753e+04 
1.053393e-02 1.736826e+04 
1.174199e-02 1.737366e+04 
1.295006e-02 1.716887e+04 
1.415813e-02 1.680228e+04 
1.536619e-02 1.631516e+04 
1.657426e-02 1.573550e+04 
1.778233e-02 1.509002e+04 
1.899039e-02 1.441748e+04 
2.019846e-02 1.373934e+04 
2.140652e-02 1.307374e+04 
2.261459e-02 1.243121e+04 
2.382266e-02 1.182408e+04 
2.503072e-02 1.126084e+04 
2.623879e-02 1.074451e+04 
2.744685e-02 1.027640e+04 
2.865492e-02 9.856714e+03 
2.986299e-02 9.482653e+03 
3.100100e-02 9.170963e+03 
3.220400e-02 8.880169e+03 
3.288100e-02 8.733609e+03 
3.424300e-02 8.469455e+03 
3.555100e-02 8.248339e+03 
3.686000e-02 8.053495e+03 
3.795000e-02 7.906532e+03 
3.929100e-02 7.740244e+03 
4.039800e-02 7.609894e+03 
4.164000e-02 7.467413e+03 
4.294400e-02 7.314597e+03 
4.415000e-02 7.171209e+03 
4.542900e-02 7.008938e+03 
4.660900e-02 6.853914e+03 
4.782300e-02 6.680145e+03 
4.892900e-02 6.515724e+03 
5.031200e-02 6.299890e+03 
5.155900e-02 6.095882e+03 
5.238100e-02 5.958311e+03 
5.378200e-02 5.720341e+03 
5.513400e-02 5.487232e+03 
5.627600e-02 5.289750e+03 
5.735300e-02 5.104429e+03 
5.870100e-02 4.875052e+03 
5.988700e-02 4.677738e+03 
6.113500e-02 4.476466e+03 
6.225900e-02 4.303591e+03 
6.340100e-02 4.138738e+03 
6.480200e-02 3.953167e+03 
6.601100e-02 3.811575e+03 
6.725500e-02 3.683641e+03 
6.829100e-02 3.591893e+03 
6.958600e-02 3.491557e+03 
7.071100e-02 3.417729e+03 
7.192300e-02 3.349355e+03 
7.307400e-02 3.293562e+03 
7.412300e-02 3.249118e+03 
7.550400e-02 3.198881e+03 
7.663100e-02 3.162415e+03 
7.791200e-02 3.125366e+03 
7.912700e-02 3.092209e+03 
8.027600e-02 3.061348e+03 
8.138400e-02 3.031301e+03 
8.272200e-02 2.993535e+03 
8.406100e-02 2.953151e+03 
8.534100e-02 2.910231e+03 
8.653800e-02 2.865895e+03 
8.759800e-02 2.824108e+03 
8.900300e-02 2.764536e+03 
9.009000e-02 2.714866e+03 
9.113300e-02 2.664113e+03 
9.239600e-02 2.600859e+03 
9.358000e-02 2.539243e+03 
9.496100e-02 2.464745e+03 
9.608400e-02 2.403965e+03 
9.727500e-02 2.339933e+03 
9.852600e-02 2.272494e+03 
9.973800e-02 2.209197e+03 
1.009000e-01 2.150374e+03 
1.020900e-01 2.093232e+03 
1.034000e-01 2.033696e+03 
1.046000e-01 1.982324e+03 
1.057200e-01 1.939059e+03 
1.069100e-01 1.895776e+03 
1.082500e-01 1.852642e+03 
1.093900e-01 1.819882e+03 
1.105400e-01 1.789358e+03 
1.116900e-01 1.763607e+03 
1.129600e-01 1.737247e+03 
1.142000e-01 1.715503e+03 
1.153300e-01 1.697251e+03 
1.166400e-01 1.678288e+03 
1.177800e-01 1.663109e+03 
1.190000e-01 1.647693e+03 
1.201200e-01 1.633738e+03 
1.213400e-01 1.618883e+03 
1.227100e-01 1.600999e+03 
1.238900e-01 1.585449e+03 
1.250700e-01 1.568426e+03 
1.263200e-01 1.549924e+03 
1.275500e-01 1.530165e+03 
1.287500e-01 1.510218e+03 
1.299900e-01 1.488318e+03 
1.311300e-01 1.467644e+03 
1.323500e-01 1.444521e+03 
1.335900e-01 1.420765e+03 
1.347100e-01 1.398730e+03 
1.359800e-01 1.373881e+03 
1.372100e-01 1.349510e+03 
1.384300e-01 1.325741e+03 
1.395700e-01 1.303616e+03 
1.407700e-01 1.280866e+03 
1.420300e-01 1.257569e+03 
1.432800e-01 1.235020e+03 
1.444500e-01 1.214959e+03 
1.456300e-01 1.195176e+03 
1.468900e-01 1.175319e+03 
1.480500e-01 1.157675e+03 
1.491700e-01 1.141518e+03 
1.503800e-01 1.125095e+03 
1.516400e-01 1.108609e+03 
1.528200e-01 1.094588e+03 
1.540200e-01 1.080611e+03 
1.551900e-01 1.068217e+03 
1.564300e-01 1.055570e+03 
1.576600e-01 1.043690e+03 
1.588700e-01 1.032730e+03 
1.600900e-01 1.021913e+03 
1.612700e-01 1.012135e+03 
1.625400e-01 1.001806e+03 
1.637600e-01 9.920834e+02 
1.649500e-01 9.827790e+02 
1.662200e-01 9.729710e+02 
1.674000e-01 9.636976e+02 
1.685000e-01 9.551966e+02 
1.697500e-01 9.453476e+02 
1.710300e-01 9.350942e+02 
1.722200e-01 9.257313e+02 
1.734400e-01 9.155126e+02 
1.746400e-01 9.056045e+02 
1.758700e-01 8.953861e+02 
1.770900e-01 8.849416e+02 
1.782700e-01 8.750148e+02 
1.794600e-01 8.648632e+02 
1.807000e-01 8.542613e+02 
1.819100e-01 8.440988e+02 
1.830100e-01 8.348086e+02 
1.842200e-01 8.247240e+02 
1.855000e-01 8.142468e+02 
1.867000e-01 8.046199e+02 
1.879200e-01 7.949998e+02 
1.890900e-01 7.859618e+02 
1.902800e-01 7.770922e+02 
1.915200e-01 7.680044e+02 
1.926900e-01 7.596477e+02 
1.939000e-01 7.513941e+02 
1.951700e-01 7.428743e+02 
1.963100e-01 7.354379e+02 
1.975100e-01 7.279687e+02 
1.987800e-01 7.201898e+02 
2.000100e-01 7.128603e+02 
2.012500e-01 7.057813e+02 
2.023400e-01 6.996496e+02 
2.036100e-01 6.926474e+02 
2.048900e-01 6.858443e+02 
2.060400e-01 6.798231e+02 
2.072200e-01 6.737379e+02 
2.084200e-01 6.677041e+02 
2.096900e-01 6.614131e+02 
2.109200e-01 6.554110e+02 
2.121100e-01 6.496657e+02 
2.132700e-01 6.441418e+02 
2.145200e-01 6.382736e+02 
2.157200e-01 6.326760e+02 
2.168800e-01 6.273186e+02 
2.180700e-01 6.218976e+02 
2.193400e-01 6.161634e+02 
2.206000e-01 6.104999e+02 
2.217500e-01 6.054022e+02 
2.229500e-01 6.001541e+02 
2.241400e-01 5.949469e+02 
2.253500e-01 5.897221e+02 
2.264900e-01 5.848648e+02 
2.277100e-01 5.797146e+02 
2.289900e-01 5.743634e+02 
2.301500e-01 5.695796e+02 
2.313600e-01 5.646550e+02 
2.325600e-01 5.598256e+02 
2.337700e-01 5.550204e+02 
2.350000e-01 5.502006e+02 
2.362000e-01 5.455676e+02 
2.374100e-01 5.409653e+02 
2.386500e-01 5.363109e+02 
2.399100e-01 5.316445e+02 
2.410400e-01 5.275456e+02 
2.422500e-01 5.232150e+02 
2.435000e-01 5.187988e+02 
2.447300e-01 5.145183e+02 
2.458700e-01 5.106343e+02 
2.470600e-01 5.066286e+02 
2.483300e-01 5.024076e+02 
2.495600e-01 4.983881e+02 
2.507600e-01 4.945373e+02 
2.519600e-01 4.907332e+02 
2.532200e-01 4.867882e+02 
2.543700e-01 4.832478e+02 
2.555500e-01 4.796685e+02 
2.568000e-01 4.759224e+02 
2.580100e-01 4.723400e+02 
2.592400e-01 4.687546e+02 
2.604100e-01 4.653894e+02 
2.616100e-01 4.619776e+02 
2.628400e-01 4.585214e+02 
2.640600e-01 4.551395e+02 
2.652200e-01 4.519629e+02 
2.664300e-01 4.486866e+02 
2.676500e-01 4.454213e+02 
2.688400e-01 4.422703e+02 
2.700700e-01 4.390492e+02 
2.712400e-01 4.360195e+02 
2.724800e-01 4.328446e+02 
2.736700e-01 4.298313e+02 
2.748800e-01 4.268004e+02 
2.761000e-01 4.237786e+02 
2.773200e-01 4.207906e+02 
2.785400e-01 4.178335e+02 
2.797000e-01 4.150475e+02 
2.808900e-01 4.122198e+02 
2.821400e-01 4.092822e+02 
2.833900e-01 4.063771e+02 
2.845500e-01 4.037041e+02 
2.857800e-01 4.008999e+02 
2.870300e-01 3.980814e+02 
2.882100e-01 3.954492e+02 
2.893900e-01 3.928428e+02 
2.906300e-01 3.901322e+02 
2.918900e-01 3.874077e+02 
2.930500e-01 3.849259e+02 
2.942500e-01 3.823843e+02 
2.954200e-01 3.799303e+02 
2.966500e-01 3.773771e+02 
2.978900e-01 3.748302e+02 
2.990400e-01 3.724922e+02 
3.002700e-01 3.700172e+02 
3.015100e-01 3.675483e+02 
3.026800e-01 3.652424e+02 
3.038500e-01 3.629591e+02 
3.050300e-01 3.606789e+02 
3.062600e-01 3.583284e+02 
3.075000e-01 3.559830e+02 
3.087000e-01 3.537361e+02 
3.099100e-01 3.514930e+02 
3.111200e-01 3.492745e+02 
3.123100e-01 3.471182e+02 
3.135300e-01 3.449293e+02 
3.147300e-01 3.427972e+02 
3.159900e-01 3.405807e+02 
3.171800e-01 3.385117e+02 
3.183700e-01 3.364646e+02 
3.196300e-01 3.343183e+02 
3.208400e-01 3.322773e+02 
3.220300e-01 3.302891e+02 
3.232000e-01 3.283585e+02 
3.244300e-01 3.263502e+02 
3.256700e-01 3.243452e+02 
3.269200e-01 3.223436e+02 
3.280800e-01 3.205034e+02 
3.292500e-01 3.186711e+02 
3.304800e-01 3.167649e+02 
3.317100e-01 3.148766e+02 
3.328900e-01 3.130817e+02 
3.340700e-01 3.113029e+02 
3.353600e-01 3.093835e+02 
3.365300e-01 3.076614e+02 
3.377100e-01 3.059400e+02 
3.389200e-01 3.041905e+02 
3.401600e-01 3.024141e+02 
3.413700e-01 3.007022e+02 
3.425300e-01 2.990795e+02 
3.437700e-01 2.973602e+02 
3.449800e-01 2.956976e+02 
3.461800e-01 2.940633e+02 
3.473600e-01 2.924728e+02 
3.485800e-01 2.908490e+02 
3.498100e-01 2.892264e+02 
3.510200e-01 2.876443e+02 
3.522000e-01 2.861146e+02 
3.533900e-01 2.845851e+02 
3.546400e-01 2.829997e+02 
3.558400e-01 2.814914e+02 
3.570600e-01 2.799711e+02 
3.582700e-01 2.784762e+02 
3.595000e-01 2.769696e+02 
3.607100e-01 2.755039e+02 
3.618900e-01 2.740894e+02 
3.631200e-01 2.726273e+02 
3.643200e-01 2.712129e+02 
3.655500e-01 2.697754e+02 
3.667300e-01 2.684077e+02 
3.679500e-01 2.670121e+02 
3.691900e-01 2.656056e+02 
3.703600e-01 2.642894e+02 
3.715700e-01 2.629392e+02 
3.727700e-01 2.616111e+02 
3.739900e-01 2.602739e+02 
3.752000e-01 2.589621e+02 
3.763900e-01 2.576823e+02 
3.775800e-01 2.564127e+02 
3.788200e-01 2.551005e+02 
3.800300e-01 2.538304e+02 
3.812100e-01 2.526040e+02 
3.824200e-01 2.513579e+02 
3.836100e-01 2.501421e+02 
3.848600e-01 2.488752e+02 
3.860400e-01 2.476888e+02 
3.872400e-01 2.464916e+02 
3.884600e-01 2.452872e+02 
3.896500e-01 2.441229e+02 
3.908700e-01 2.429386e+02 
3.920600e-01 2.417922e+02 
3.933100e-01 2.405975e+02 
3.945300e-01 2.394407e+02 
3.957200e-01 2.383237e+02 
3.969300e-01 2.371974e+02 
3.981700e-01 2.360521e+02 
3.993500e-01 2.349705e+02 
4.094840e-01 2.260229e+02 
4.272360e-01 2.116985e+02 
4.454600e-01 1.985534e+02 
4.630560e-01 1.871518e+02 
4.804610e-01 1.769655e+02 
4.980690e-01 1.676266e+02 
5.159230e-01 1.590267e+02 
5.317440e-01 1.520518e+02 
5.489640e-01 1.450758e+02 
5.671990e-01 1.383105e+02 
5.838690e-01 1.326197e+02 
6.018840e-01 1.269437e+02 
6.202330e-01 1.216225e+02 
6.379250e-01 1.168734e+02 
6.545410e-01 1.127343e+02 
6.714560e-01 1.087978e+02 
6.892080e-01 1.049455e+02 
7.066010e-01 1.014254e+02 
7.240540e-01 9.811483e+01 
7.420450e-01 9.492541e+01 
7.593780e-01 9.204444e+01 
7.764720e-01 8.936745e+01 
7.942840e-01 8.674106e+01 
8.116170e-01 8.433354e+01 
8.288310e-01 8.207593e+01 
8.462240e-01 7.991781e+01 
8.631980e-01 7.792075e+01 
8.810700e-01 7.592594e+01 
8.989410e-01 7.403373e+01 
9.166330e-01 7.225491e+01 
9.345640e-01 7.054063e+01 
9.515980e-01 6.898844e+01 
9.688720e-01 6.748437e+01 
9.865640e-01 6.601412e+01 
1.031870e+00 6.252930e+01 
1.063490e+00 6.031125e+01 
1.097920e+00 5.807392e+01 
1.134370e+00 5.587816e+01 
1.167730e+00 5.401021e+01 
1.203830e+00 5.212200e+01 
1.240470e+00 5.033352e+01 
1.275790e+00 4.871792e+01 
1.309140e+00 4.728292e+01 
1.342970e+00 4.590350e+01 
1.378420e+00 4.453858e+01 
1.413200e+00 4.327129e+01 
1.448110e+00 4.206308e+01 
1.484090e+00 4.088165e+01 
1.518820e+00 3.979617e+01 
1.552880e+00 3.878060e+01 
1.588630e+00 3.776226e+01 
1.623230e+00 3.682142e+01 
1.657720e+00 3.592333e+01 
1.692450e+00 3.505754e+01 
1.726400e+00 3.424371e+01 
1.762200e+00 3.341894e+01 
1.797880e+00 3.263087e+01 
1.833270e+00 3.187987e+01 
1.869070e+00 3.114825e+01 
1.903200e+00 3.047681e+01 
1.937740e+00 2.982116e+01 
1.973190e+00 2.917182e+01 
2.007440e+00 2.856618e+01 
2.042160e+00 2.797268e+01 
2.077900e+00 2.738201e+01 
2.112390e+00 2.683097e+01 
2.146220e+00 2.630666e+01 
2.181600e+00 2.577601e+01 
2.216930e+00 2.526246e+01 
2.250760e+00 2.478572e+01 
2.286500e+00 2.429728e+01 
2.321770e+00 2.382977e+01 
2.355950e+00 2.339017e+01 
2.391280e+00 2.294756e+01 
2.426240e+00 2.252222e+01 
2.460670e+00 2.211541e+01 
2.495640e+00 2.171408e+01 
2.531080e+00 2.131755e+01 
2.566220e+00 2.093490e+01 
2.600830e+00 2.056833e+01 
2.635080e+00 2.021537e+01 
2.670340e+00 1.986012e+01 
2.705970e+00 1.951088e+01 
2.740040e+00 1.918576e+01 
2.774520e+00 1.886423e+01 
2.809730e+00 1.854367e+01 
2.844390e+00 1.823621e+01 
2.879960e+00 1.792825e+01 
2.914860e+00 1.763299e+01 
2.949410e+00 1.734798e+01 
2.984440e+00 1.706530e+01 
3.019760e+00 1.678689e+01 
3.054730e+00 1.651807e+01 
3.089030e+00 1.625939e+01 
3.124060e+00 1.600159e+01 
3.159560e+00 1.574625e+01 
3.194710e+00 1.549879e+01 
3.229010e+00 1.526312e+01 
3.263320e+00 1.503126e+01 
3.297930e+00 1.480285e+01 
3.332830e+00 1.457728e+01 
3.368040e+00 1.435453e+01 
3.403300e+00 1.413643e+01 
3.438450e+00 1.392311e+01 
3.473060e+00 1.371798e+01 
3.508440e+00 1.351172e+01 
3.543110e+00 1.331432e+01 
3.577470e+00 1.312199e+01 
3.613040e+00 1.292732e+01 
3.648120e+00 1.273889e+01 
3.682910e+00 1.255589e+01 
3.718050e+00 1.237436e+01 
3.753320e+00 1.219592e+01 
3.787980e+00 1.202387e+01 
3.822290e+00 1.185692e+01 
3.857020e+00 1.169095e+01 
3.891920e+00 1.152744e+01 
3.926650e+00 1.136748e+01 
3.961970e+00 1.120811e+01 
3.997360e+00 1.105118e+01 
4.031670e+00 1.090219e+01 
4.066330e+00 1.075412e+01 
4.101420e+00 1.060740e+01 
4.136200e+00 1.046392e+01 
4.170810e+00 1.032416e+01 
4.206250e+00 1.018337e+01 
4.241580e+00 1.004587e+01 
4.276300e+00 9.912936e+00 
4.310970e+00 9.782578e+00 
4.346120e+00 9.652816e+00 
4.380600e+00 9.527598e+00 
4.414730e+00 9.406093e+00 
4.450350e+00 9.281091e+00 
4.485320e+00 9.160844e+00 
4.519810e+00 9.044055e+00 
4.555430e+00 8.925584e+00 
4.590870e+00 8.809854e+00 
4.625480e+00 8.698621e+00 
4.659910e+00 8.590075e+00 
4.695230e+00 8.480360e+00 
4.729960e+00 8.374463e+00 
4.764450e+00 8.271027e+00 
4.799530e+00 8.167388e+00 
4.834910e+00 8.064833e+00 
4.869700e+00 7.965484e+00 
4.904370e+00 7.868231e+00 
4.939450e+00 7.771515e+00 
4.973940e+00 7.677850e+00 
5.008430e+00 7.585862e+00 
5.043810e+00 7.492910e+00 
5.078840e+00 7.402371e+00 
5.113500e+00 7.314378e+00 
5.148890e+00 7.225724e+00 
5.184210e+00 7.138803e+00 
5.219060e+00 7.054474e+00 
5.253660e+00 6.971998e+00 
5.288570e+00 6.890214e+00 
5.323420e+00 6.809826e+00 
5.358440e+00 6.730266e+00 
5.393590e+00 6.651774e+00 
5.428310e+00 6.575378e+00 
5.462800e+00 6.500661e+00 
5.497640e+00 6.426438e+00 
5.532670e+00 6.352891e+00 
5.567280e+00 6.281372e+00 
5.602000e+00 6.210796e+00 
5.637270e+00 6.140111e+00 
5.672410e+00 6.070803e+00 
5.707020e+00 6.003642e+00 
5.742040e+00 5.936674e+00 
5.777430e+00 5.870069e+00 
5.812210e+00 5.805658e+00 
5.846820e+00 5.742434e+00 
5.881610e+00 5.679841e+00 
5.916510e+00 5.618032e+00 
5.951600e+00 5.556761e+00 
5.986560e+00 5.496623e+00 
6.021830e+00 5.436894e+00 
6.056490e+00 5.379065e+00 
6.091160e+00 5.322069e+00 
6.125830e+00 5.265932e+00 
6.161090e+00 5.209682e+00 
6.195760e+00 5.155163e+00 
6.230420e+00 5.101468e+00 
6.265690e+00 5.047641e+00 
6.300950e+00 4.994567e+00 
6.335620e+00 4.943152e+00 
6.370880e+00 4.891631e+00 
6.405550e+00 4.841693e+00 
6.440220e+00 4.792469e+00 
6.475480e+00 4.743132e+00 
6.510150e+00 4.695311e+00 
6.544810e+00 4.648165e+00 
6.580080e+00 4.600873e+00 
6.614750e+00 4.555047e+00 
6.649410e+00 4.509871e+00 
6.684080e+00 4.465312e+00 
6.719340e+00 4.420629e+00 
6.754010e+00 4.377313e+00 
6.788680e+00 4.334608e+00 
6.823940e+00 4.291776e+00 
6.859800e+00 4.248823e+00 
6.894470e+00 4.207867e+00 
6.929140e+00 4.167464e+00 
6.963800e+00 4.127615e+00 
6.999070e+00 4.087614e+00 
7.033730e+00 4.048875e+00 
7.068400e+00 4.010638e+00 
7.103660e+00 3.972267e+00 
7.138330e+00 3.935048e+00 
7.173600e+00 3.897704e+00 
7.208260e+00 3.861488e+00 
7.243530e+00 3.825115e+00 
7.277600e+00 3.790443e+00 
7.312860e+00 3.755029e+00 
7.348120e+00 3.720075e+00 
7.382790e+00 3.686148e+00 
7.417460e+00 3.652696e+00 
7.452720e+00 3.619131e+00 
7.487390e+00 3.586547e+00 
7.522650e+00 3.553826e+00 
7.557320e+00 3.522100e+00 
7.591990e+00 3.490784e+00 
7.627250e+00 3.459332e+00 
7.662510e+00 3.428272e+00 
7.697180e+00 3.398154e+00 
7.731850e+00 3.368419e+00 
7.766510e+00 3.339053e+00 
7.801180e+00 3.310034e+00 
7.836440e+00 3.280913e+00 
7.871110e+00 3.252646e+00 
7.906380e+00 3.224237e+00 
7.941040e+00 3.196653e+00 
7.976310e+00 3.168943e+00 
8.011570e+00 3.141599e+00 
8.046240e+00 3.115032e+00 
8.080900e+00 3.088783e+00 
8.115570e+00 3.062850e+00 
8.150830e+00 3.036852e+00 
8.185500e+00 3.011587e+00 
8.220770e+00 2.986182e+00 
8.255430e+00 2.961505e+00 
8.290100e+00 2.937159e+00 
8.324770e+00 2.913096e+00 
8.359430e+00 2.889312e+00 
8.394700e+00 2.865384e+00 
8.429960e+00 2.841774e+00 
8.464630e+00 2.818858e+00 
8.499890e+00 2.795815e+00 
8.534560e+00 2.773410e+00 
8.569200e+00 2.751272e+00 
