# Parameters:
# omega_b = 0.021563, omega_m = 0.132953, n_s = 0.957087, h = 83.582677, w = -1.000000, sigma_8 = 0.892126
# z = 1.500000
#
# k[1/Mpc] # P(k):
8.694000e-04 5.180223e+03 
2.077466e-03 1.089594e+04 
3.285532e-03 1.527201e+04 
4.493598e-03 1.855739e+04 
5.701664e-03 2.093346e+04 
6.909730e-03 2.256124e+04 
8.117797e-03 2.361167e+04 
9.325863e-03 2.417451e+04 
1.053393e-02 2.433761e+04 
1.174199e-02 2.418004e+04 
1.295006e-02 2.375299e+04 
1.415813e-02 2.312387e+04 
1.536619e-02 2.234842e+04 
1.657426e-02 2.146392e+04 
1.778233e-02 2.050578e+04 
1.899039e-02 1.952493e+04 
2.019846e-02 1.854870e+04 
2.140652e-02 1.759977e+04 
2.261459e-02 1.669102e+04 
2.382266e-02 1.583728e+04 
2.503072e-02 1.504858e+04 
2.623879e-02 1.432771e+04 
2.744685e-02 1.367531e+04 
2.865492e-02 1.309067e+04 
2.986299e-02 1.256922e+04 
3.100100e-02 1.213368e+04 
3.220400e-02 1.172588e+04 
3.288100e-02 1.151941e+04 
3.424300e-02 1.114535e+04 
3.555100e-02 1.082988e+04 
3.686000e-02 1.054957e+04 
3.795000e-02 1.033672e+04 
3.929100e-02 1.009438e+04 
4.039800e-02 9.903998e+03 
4.164000e-02 9.696261e+03 
4.294400e-02 9.475152e+03 
4.415000e-02 9.269377e+03 
4.542900e-02 9.039744e+03 
4.660900e-02 8.822681e+03 
4.782300e-02 8.583163e+03 
4.892900e-02 8.358833e+03 
5.031200e-02 8.067663e+03 
5.155900e-02 7.795554e+03 
5.238100e-02 7.613359e+03 
5.378200e-02 7.300084e+03 
5.513400e-02 6.994964e+03 
5.627600e-02 6.737072e+03 
5.735300e-02 6.494899e+03 
5.870100e-02 6.194208e+03 
5.988700e-02 5.934297e+03 
6.113500e-02 5.667942e+03 
6.225900e-02 5.438386e+03 
6.340100e-02 5.219249e+03 
6.480200e-02 4.972925e+03 
6.601100e-02 4.785719e+03 
6.725500e-02 4.617536e+03 
6.829100e-02 4.497637e+03 
6.958600e-02 4.367182e+03 
7.071100e-02 4.271617e+03 
7.192300e-02 4.183277e+03 
7.307400e-02 4.111161e+03 
7.412300e-02 4.053565e+03 
7.550400e-02 3.988062e+03 
7.663100e-02 3.940190e+03 
7.791200e-02 3.891014e+03 
7.912700e-02 3.846577e+03 
8.027600e-02 3.804981e+03 
8.138400e-02 3.764371e+03 
8.272200e-02 3.713319e+03 
8.406100e-02 3.658894e+03 
8.534100e-02 3.601433e+03 
8.653800e-02 3.542558e+03 
8.759800e-02 3.487415e+03 
8.900300e-02 3.409384e+03 
9.009000e-02 3.344855e+03 
9.113300e-02 3.279442e+03 
9.239600e-02 3.198376e+03 
9.358000e-02 3.119970e+03 
9.496100e-02 3.025966e+03 
9.608400e-02 2.949716e+03 
9.727500e-02 2.869728e+03 
9.852600e-02 2.786212e+03 
9.973800e-02 2.708116e+03 
1.009000e-01 2.635774e+03 
1.020900e-01 2.565975e+03 
1.034000e-01 2.493414e+03 
1.046000e-01 2.430967e+03 
1.057200e-01 2.378566e+03 
1.069100e-01 2.326183e+03 
1.082500e-01 2.274062e+03 
1.093900e-01 2.234458e+03 
1.105400e-01 2.197543e+03 
1.116900e-01 2.166267e+03 
1.129600e-01 2.134177e+03 
1.142000e-01 2.107459e+03 
1.153300e-01 2.084881e+03 
1.166400e-01 2.061175e+03 
1.177800e-01 2.041921e+03 
1.190000e-01 2.022225e+03 
1.201200e-01 2.004108e+03 
1.213400e-01 1.984766e+03 
1.227100e-01 1.961264e+03 
1.238900e-01 1.940824e+03 
1.250700e-01 1.918465e+03 
1.263200e-01 1.894226e+03 
1.275500e-01 1.868478e+03 
1.287500e-01 1.842615e+03 
1.299900e-01 1.814417e+03 
1.311300e-01 1.787966e+03 
1.323500e-01 1.758622e+03 
1.335900e-01 1.728669e+03 
1.347100e-01 1.701128e+03 
1.359800e-01 1.670226e+03 
1.372100e-01 1.640214e+03 
1.384300e-01 1.611060e+03 
1.395700e-01 1.584186e+03 
1.407700e-01 1.556582e+03 
1.420300e-01 1.528610e+03 
1.432800e-01 1.501531e+03 
1.444500e-01 1.477634e+03 
1.456300e-01 1.454062e+03 
1.468900e-01 1.430452e+03 
1.480500e-01 1.409485e+03 
1.491700e-01 1.390260e+03 
1.503800e-01 1.370688e+03 
1.516400e-01 1.351009e+03 
1.528200e-01 1.334142e+03 
1.540200e-01 1.317327e+03 
1.551900e-01 1.302241e+03 
1.564300e-01 1.286802e+03 
1.576600e-01 1.272193e+03 
1.588700e-01 1.258586e+03 
1.600900e-01 1.245146e+03 
1.612700e-01 1.232814e+03 
1.625400e-01 1.219788e+03 
1.637600e-01 1.207474e+03 
1.649500e-01 1.195658e+03 
1.662200e-01 1.183206e+03 
1.674000e-01 1.171451e+03 
1.685000e-01 1.160677e+03 
1.697500e-01 1.148256e+03 
1.710300e-01 1.135387e+03 
1.722200e-01 1.123637e+03 
1.734400e-01 1.110977e+03 
1.746400e-01 1.098708e+03 
1.758700e-01 1.086111e+03 
1.770900e-01 1.073343e+03 
1.782700e-01 1.061208e+03 
1.794600e-01 1.048877e+03 
1.807000e-01 1.036050e+03 
1.819100e-01 1.023754e+03 
1.830100e-01 1.012582e+03 
1.842200e-01 1.000465e+03 
1.855000e-01 9.878784e+02 
1.867000e-01 9.763539e+02 
1.879200e-01 9.648365e+02 
1.890900e-01 9.540159e+02 
1.902800e-01 9.434004e+02 
1.915200e-01 9.325227e+02 
1.926900e-01 9.225140e+02 
1.939000e-01 9.126114e+02 
1.951700e-01 9.023888e+02 
1.963100e-01 8.934559e+02 
1.975100e-01 8.844569e+02 
1.987800e-01 8.750845e+02 
2.000100e-01 8.662409e+02 
2.012500e-01 8.576703e+02 
2.023400e-01 8.502465e+02 
2.036100e-01 8.417613e+02 
2.048900e-01 8.334888e+02 
2.060400e-01 8.261671e+02 
2.072200e-01 8.187659e+02 
2.084200e-01 8.114074e+02 
2.096900e-01 8.037351e+02 
2.109200e-01 7.964154e+02 
2.121100e-01 7.894029e+02 
2.132700e-01 7.826604e+02 
2.145200e-01 7.754978e+02 
2.157200e-01 7.686700e+02 
2.168800e-01 7.621375e+02 
2.180700e-01 7.555274e+02 
2.193400e-01 7.485402e+02 
2.206000e-01 7.416477e+02 
2.217500e-01 7.354438e+02 
2.229500e-01 7.290568e+02 
2.241400e-01 7.227391e+02 
2.253500e-01 7.164006e+02 
2.264900e-01 7.105078e+02 
2.277100e-01 7.042686e+02 
2.289900e-01 6.977960e+02 
2.301500e-01 6.920096e+02 
2.313600e-01 6.860528e+02 
2.325600e-01 6.802304e+02 
2.337700e-01 6.744368e+02 
2.350000e-01 6.686255e+02 
2.362000e-01 6.630463e+02 
2.374100e-01 6.575122e+02 
2.386500e-01 6.519151e+02 
2.399100e-01 6.463033e+02 
2.410400e-01 6.413839e+02 
2.422500e-01 6.361872e+02 
2.435000e-01 6.308877e+02 
2.447300e-01 6.257522e+02 
2.458700e-01 6.210990e+02 
2.470600e-01 6.162997e+02 
2.483300e-01 6.112422e+02 
2.495600e-01 6.064278e+02 
2.507600e-01 6.018182e+02 
2.519600e-01 5.972641e+02 
2.532200e-01 5.925411e+02 
2.543700e-01 5.883027e+02 
2.555500e-01 5.840179e+02 
2.568000e-01 5.795331e+02 
2.580100e-01 5.752441e+02 
2.592400e-01 5.709510e+02 
2.604100e-01 5.669213e+02 
2.616100e-01 5.628356e+02 
2.628400e-01 5.586965e+02 
2.640600e-01 5.546443e+02 
2.652200e-01 5.508370e+02 
2.664300e-01 5.469102e+02 
2.676500e-01 5.429963e+02 
2.688400e-01 5.392179e+02 
2.700700e-01 5.353541e+02 
2.712400e-01 5.317198e+02 
2.724800e-01 5.279112e+02 
2.736700e-01 5.242953e+02 
2.748800e-01 5.206575e+02 
2.761000e-01 5.170304e+02 
2.773200e-01 5.134436e+02 
2.785400e-01 5.098936e+02 
2.797000e-01 5.065484e+02 
2.808900e-01 5.031530e+02 
2.821400e-01 4.996253e+02 
2.833900e-01 4.961367e+02 
2.845500e-01 4.929266e+02 
2.857800e-01 4.895589e+02 
2.870300e-01 4.861738e+02 
2.882100e-01 4.830123e+02 
2.893900e-01 4.798823e+02 
2.906300e-01 4.766272e+02 
2.918900e-01 4.733555e+02 
2.930500e-01 4.703748e+02 
2.942500e-01 4.673226e+02 
2.954200e-01 4.643766e+02 
2.966500e-01 4.613112e+02 
2.978900e-01 4.582533e+02 
2.990400e-01 4.554461e+02 
3.002700e-01 4.524751e+02 
3.015100e-01 4.495118e+02 
3.026800e-01 4.467439e+02 
3.038500e-01 4.440031e+02 
3.050300e-01 4.412658e+02 
3.062600e-01 4.384454e+02 
3.075000e-01 4.356310e+02 
3.087000e-01 4.329347e+02 
3.099100e-01 4.302426e+02 
3.111200e-01 4.275802e+02 
3.123100e-01 4.249926e+02 
3.135300e-01 4.223656e+02 
3.147300e-01 4.198069e+02 
3.159900e-01 4.171466e+02 
3.171800e-01 4.146634e+02 
3.183700e-01 4.122068e+02 
3.196300e-01 4.096308e+02 
3.208400e-01 4.071812e+02 
3.220300e-01 4.047948e+02 
3.232000e-01 4.024769e+02 
3.244300e-01 4.000657e+02 
3.256700e-01 3.976581e+02 
3.269200e-01 3.952545e+02 
3.280800e-01 3.930447e+02 
3.292500e-01 3.908439e+02 
3.304800e-01 3.885539e+02 
3.317100e-01 3.862854e+02 
3.328900e-01 3.841290e+02 
3.340700e-01 3.819919e+02 
3.353600e-01 3.796849e+02 
3.365300e-01 3.776148e+02 
3.377100e-01 3.755453e+02 
3.389200e-01 3.734420e+02 
3.401600e-01 3.713062e+02 
3.413700e-01 3.692471e+02 
3.425300e-01 3.672946e+02 
3.437700e-01 3.652258e+02 
3.449800e-01 3.632252e+02 
3.461800e-01 3.612584e+02 
3.473600e-01 3.593440e+02 
3.485800e-01 3.573887e+02 
3.498100e-01 3.554348e+02 
3.510200e-01 3.535294e+02 
3.522000e-01 3.516872e+02 
3.533900e-01 3.498451e+02 
3.546400e-01 3.479338e+02 
3.558400e-01 3.461153e+02 
3.570600e-01 3.442822e+02 
3.582700e-01 3.424797e+02 
3.595000e-01 3.406631e+02 
3.607100e-01 3.388951e+02 
3.618900e-01 3.371884e+02 
3.631200e-01 3.354243e+02 
3.643200e-01 3.337176e+02 
3.655500e-01 3.319828e+02 
3.667300e-01 3.303323e+02 
3.679500e-01 3.286468e+02 
3.691900e-01 3.269480e+02 
3.703600e-01 3.253582e+02 
3.715700e-01 3.237273e+02 
3.727700e-01 3.221230e+02 
3.739900e-01 3.205072e+02 
3.752000e-01 3.189213e+02 
3.763900e-01 3.173741e+02 
3.775800e-01 3.158392e+02 
3.788200e-01 3.142526e+02 
3.800300e-01 3.127169e+02 
3.812100e-01 3.112336e+02 
3.824200e-01 3.097262e+02 
3.836100e-01 3.082553e+02 
3.848600e-01 3.067226e+02 
3.860400e-01 3.052871e+02 
3.872400e-01 3.038386e+02 
3.884600e-01 3.023808e+02 
3.896500e-01 3.009711e+02 
3.908700e-01 2.995371e+02 
3.920600e-01 2.981492e+02 
3.933100e-01 2.967026e+02 
3.945300e-01 2.953018e+02 
3.957200e-01 2.939490e+02 
3.969300e-01 2.925849e+02 
3.981700e-01 2.911976e+02 
3.993500e-01 2.898876e+02 
4.094840e-01 2.790449e+02 
4.272360e-01 2.616786e+02 
4.454600e-01 2.457352e+02 
4.630560e-01 2.319053e+02 
4.804610e-01 2.195494e+02 
4.980690e-01 2.082251e+02 
5.159230e-01 1.977951e+02 
5.317440e-01 1.893390e+02 
5.489640e-01 1.808792e+02 
5.671990e-01 1.726751e+02 
5.838690e-01 1.657764e+02 
6.018840e-01 1.588983e+02 
6.202330e-01 1.524488e+02 
6.379250e-01 1.466925e+02 
6.545410e-01 1.416752e+02 
6.714560e-01 1.369035e+02 
6.892080e-01 1.322327e+02 
7.066010e-01 1.279650e+02 
7.240540e-01 1.239475e+02 
7.420450e-01 1.200765e+02 
7.593780e-01 1.165761e+02 
7.764720e-01 1.133222e+02 
7.942840e-01 1.101250e+02 
8.116170e-01 1.071927e+02 
8.288310e-01 1.044382e+02 
8.462240e-01 1.018033e+02 
8.631980e-01 9.936073e+01 
8.810700e-01 9.691673e+01 
8.989410e-01 9.459290e+01 
9.166330e-01 9.240500e+01 
9.345640e-01 9.029481e+01 
9.515980e-01 8.837874e+01 
9.688720e-01 8.651764e+01 
9.865640e-01 8.469474e+01 
1.031870e+00 8.035702e+01 
1.063490e+00 7.758321e+01 
1.097920e+00 7.477387e+01 
1.134370e+00 7.200443e+01 
1.167730e+00 6.963879e+01 
1.203830e+00 6.723473e+01 
1.240470e+00 6.494965e+01 
1.275790e+00 6.287750e+01 
1.309140e+00 6.103045e+01 
1.342970e+00 5.924638e+01 
1.378420e+00 5.747728e+01 
1.413200e+00 5.582890e+01 
1.448110e+00 5.425362e+01 
1.484090e+00 5.270816e+01 
1.518820e+00 5.128474e+01 
1.552880e+00 4.995016e+01 
1.588630e+00 4.860926e+01 
1.623230e+00 4.736812e+01 
1.657720e+00 4.618011e+01 
1.692450e+00 4.503401e+01 
1.726400e+00 4.395542e+01 
1.762200e+00 4.286062e+01 
1.797880e+00 4.181235e+01 
1.833270e+00 4.081314e+01 
1.869070e+00 3.983848e+01 
1.903200e+00 3.894285e+01 
1.937740e+00 3.806822e+01 
1.973190e+00 3.720169e+01 
2.007440e+00 3.639337e+01 
2.042160e+00 3.560015e+01 
2.077900e+00 3.481040e+01 
2.112390e+00 3.407405e+01 
2.146220e+00 3.337315e+01 
2.181600e+00 3.266356e+01 
2.216930e+00 3.197668e+01 
2.250760e+00 3.133927e+01 
2.286500e+00 3.068645e+01 
2.321770e+00 3.006167e+01 
2.355950e+00 2.947459e+01 
2.391280e+00 2.888300e+01 
2.426240e+00 2.831487e+01 
2.460670e+00 2.777189e+01 
2.495640e+00 2.723655e+01 
2.531080e+00 2.670781e+01 
2.566220e+00 2.619758e+01 
2.600830e+00 2.570908e+01 
2.635080e+00 2.523916e+01 
2.670340e+00 2.476681e+01 
2.705970e+00 2.430253e+01 
2.740040e+00 2.387052e+01 
2.774520e+00 2.344376e+01 
2.809730e+00 2.301844e+01 
2.844390e+00 2.261084e+01 
2.879960e+00 2.220328e+01 
2.914860e+00 2.181273e+01 
2.949410e+00 2.143595e+01 
2.984440e+00 2.106268e+01 
3.019760e+00 2.069521e+01 
3.054730e+00 2.034055e+01 
3.089030e+00 2.000012e+01 
3.124060e+00 1.966109e+01 
3.159560e+00 1.932565e+01 
3.194710e+00 1.900094e+01 
3.229010e+00 1.869190e+01 
3.263320e+00 1.838828e+01 
3.297930e+00 1.808940e+01 
3.332830e+00 1.779458e+01 
3.368040e+00 1.750389e+01 
3.403300e+00 1.721962e+01 
3.438450e+00 1.694194e+01 
3.473060e+00 1.667509e+01 
3.508440e+00 1.640711e+01 
3.543110e+00 1.615086e+01 
3.577470e+00 1.590197e+01 
3.613040e+00 1.565013e+01 
3.648120e+00 1.540643e+01 
3.682910e+00 1.517010e+01 
3.718050e+00 1.493621e+01 
3.753320e+00 1.470647e+01 
3.787980e+00 1.448517e+01 
3.822290e+00 1.427066e+01 
3.857020e+00 1.405774e+01 
3.891920e+00 1.384820e+01 
3.926650e+00 1.364353e+01 
3.961970e+00 1.343984e+01 
3.997360e+00 1.323975e+01 
4.031670e+00 1.304987e+01 
4.066330e+00 1.286136e+01 
4.101420e+00 1.267466e+01 
4.136200e+00 1.249260e+01 
4.170810e+00 1.231532e+01 
4.206250e+00 1.213706e+01 
4.241580e+00 1.196307e+01 
4.276300e+00 1.179519e+01 
4.310970e+00 1.163077e+01 
4.346120e+00 1.146725e+01 
4.380600e+00 1.130969e+01 
4.414730e+00 1.115686e+01 
4.450350e+00 1.100004e+01 
4.485320e+00 1.084923e+01 
4.519810e+00 1.070305e+01 
4.555430e+00 1.055492e+01 
4.590870e+00 1.041034e+01 
4.625480e+00 1.027155e+01 
4.659910e+00 1.013617e+01 
4.695230e+00 9.999719e+00 
4.729960e+00 9.868118e+00 
4.764450e+00 9.739727e+00 
4.799530e+00 9.611306e+00 
4.834910e+00 9.484271e+00 
4.869700e+00 9.361447e+00 
4.904370e+00 9.241288e+00 
4.939450e+00 9.121895e+00 
4.973940e+00 9.006475e+00 
5.008430e+00 8.893158e+00 
5.043810e+00 8.778831e+00 
5.078840e+00 8.667590e+00 
5.113500e+00 8.559512e+00 
5.148890e+00 8.450931e+00 
5.184210e+00 8.344518e+00 
5.219060e+00 8.241359e+00 
5.253660e+00 8.140634e+00 
5.288570e+00 8.040785e+00 
5.323420e+00 7.942750e+00 
5.358440e+00 7.845840e+00 
5.393590e+00 7.750259e+00 
5.428310e+00 7.657412e+00 
5.462800e+00 7.566710e+00 
5.497640e+00 7.476632e+00 
5.532670e+00 7.387561e+00 
5.567280e+00 7.301020e+00 
5.602000e+00 7.215644e+00 
5.637270e+00 7.130274e+00 
5.672410e+00 7.046616e+00 
5.707020e+00 6.965571e+00 
5.742040e+00 6.884936e+00 
5.777430e+00 6.804791e+00 
5.812210e+00 6.727305e+00 
5.846820e+00 6.651355e+00 
5.881610e+00 6.576204e+00 
5.916510e+00 6.502011e+00 
5.951600e+00 6.428599e+00 
5.986560e+00 6.356613e+00 
6.021830e+00 6.285132e+00 
6.056490e+00 6.216026e+00 
6.091160e+00 6.148000e+00 
6.125830e+00 6.081015e+00 
6.161090e+00 6.013938e+00 
6.195760e+00 5.948998e+00 
6.230420e+00 5.885054e+00 
6.265690e+00 5.820970e+00 
6.300950e+00 5.757941e+00 
6.335620e+00 5.696894e+00 
6.370880e+00 5.635731e+00 
6.405550e+00 5.576514e+00 
6.440220e+00 5.518175e+00 
6.475480e+00 5.459712e+00 
6.510150e+00 5.403094e+00 
6.544810e+00 5.347370e+00 
6.580080e+00 5.291484e+00 
6.614750e+00 5.237337e+00 
6.649410e+00 5.184034e+00 
6.684080e+00 5.131479e+00 
6.719340e+00 5.078786e+00 
6.754010e+00 5.027744e+00 
6.788680e+00 4.977504e+00 
6.823940e+00 4.927121e+00 
6.859800e+00 4.876604e+00 
6.894470e+00 4.828496e+00 
6.929140e+00 4.781062e+00 
6.963800e+00 4.734285e+00 
6.999070e+00 4.687341e+00 
7.033730e+00 4.641940e+00 
7.068400e+00 4.597133e+00 
7.103660e+00 4.552175e+00 
7.138330e+00 4.508592e+00 
7.173600e+00 4.464907e+00 
7.208260e+00 4.422547e+00 
7.243530e+00 4.380009e+00 
7.277600e+00 4.339497e+00 
7.312860e+00 4.298151e+00 
7.348120e+00 4.257348e+00 
7.382790e+00 4.217747e+00 
7.417460e+00 4.178761e+00 
7.452720e+00 4.139676e+00 
7.487390e+00 4.101736e+00 
7.522650e+00 4.063641e+00 
7.557320e+00 4.026726e+00 
7.591990e+00 3.990298e+00 
7.627250e+00 3.953714e+00 
7.662510e+00 3.917592e+00 
7.697180e+00 3.882603e+00 
7.731850e+00 3.848076e+00 
7.766510e+00 3.813981e+00 
7.801180e+00 3.780291e+00 
7.836440e+00 3.746501e+00 
7.871110e+00 3.713715e+00 
7.906380e+00 3.680766e+00 
7.941040e+00 3.648777e+00 
7.976310e+00 3.616665e+00 
8.011570e+00 3.585007e+00 
8.046240e+00 3.554249e+00 
8.080900e+00 3.523863e+00 
8.115570e+00 3.493848e+00 
8.150830e+00 3.463777e+00 
8.185500e+00 3.434556e+00 
8.220770e+00 3.405175e+00 
8.255430e+00 3.376639e+00 
8.290100e+00 3.348525e+00 
8.324770e+00 3.320744e+00 
8.359430e+00 3.293288e+00 
8.394700e+00 3.265667e+00 
8.429960e+00 3.238426e+00 
8.464630e+00 3.211999e+00 
8.499890e+00 3.185426e+00 
8.534560e+00 3.159591e+00 
8.569200e+00 3.134065e+00 
