# Parameters:
# omega_b = 0.021957, omega_m = 0.129646, n_s = 0.991732, h = 73.661417, w = -1.000000, sigma_8 = 0.802362
# z = 1.500000
#
# k[1/Mpc] # P(k):
8.694000e-04 4.234711e+03 
2.077466e-03 9.176579e+03 
3.285532e-03 1.303580e+04 
4.493598e-03 1.597414e+04 
5.701664e-03 1.812509e+04 
6.909730e-03 1.961766e+04 
8.117797e-03 2.059659e+04 
9.325863e-03 2.113779e+04 
1.053393e-02 2.131755e+04 
1.174199e-02 2.120576e+04 
1.295006e-02 2.084745e+04 
1.415813e-02 2.030271e+04 
1.536619e-02 1.962297e+04 
1.657426e-02 1.884310e+04 
1.778233e-02 1.799508e+04 
1.899039e-02 1.712497e+04 
2.019846e-02 1.625782e+04 
2.140652e-02 1.541465e+04 
2.261459e-02 1.460740e+04 
2.382266e-02 1.384967e+04 
2.503072e-02 1.315048e+04 
2.623879e-02 1.251241e+04 
2.744685e-02 1.193639e+04 
2.865492e-02 1.142166e+04 
2.986299e-02 1.096417e+04 
3.100100e-02 1.058385e+04 
3.220400e-02 1.022964e+04 
3.288100e-02 1.005129e+04 
3.424300e-02 9.730160e+03 
3.555100e-02 9.461552e+03 
3.686000e-02 9.225018e+03 
3.795000e-02 9.046687e+03 
3.929100e-02 8.845047e+03 
4.039800e-02 8.687157e+03 
4.164000e-02 8.514904e+03 
4.294400e-02 8.330785e+03 
4.415000e-02 8.158485e+03 
4.542900e-02 7.964334e+03 
4.660900e-02 7.779432e+03 
4.782300e-02 7.573021e+03 
4.892900e-02 7.378359e+03 
5.031200e-02 7.123710e+03 
5.155900e-02 6.883898e+03 
5.238100e-02 6.722696e+03 
5.378200e-02 6.445071e+03 
5.513400e-02 6.175401e+03 
5.627600e-02 5.949413e+03 
5.735300e-02 5.740171e+03 
5.870100e-02 5.485952e+03 
5.988700e-02 5.271790e+03 
6.113500e-02 5.057410e+03 
6.225900e-02 4.875921e+03 
6.340100e-02 4.703993e+03 
6.480200e-02 4.510190e+03 
6.601100e-02 4.360632e+03 
6.725500e-02 4.222989e+03 
6.829100e-02 4.121839e+03 
6.958600e-02 4.008736e+03 
7.071100e-02 3.923114e+03 
7.192300e-02 3.841808e+03 
7.307400e-02 3.773784e+03 
7.412300e-02 3.718411e+03 
7.550400e-02 3.654249e+03 
7.663100e-02 3.606845e+03 
7.791200e-02 3.557867e+03 
7.912700e-02 3.513852e+03 
8.027600e-02 3.473097e+03 
8.138400e-02 3.433822e+03 
8.272200e-02 3.385292e+03 
8.406100e-02 3.334515e+03 
8.534100e-02 3.281962e+03 
8.653800e-02 3.228862e+03 
8.759800e-02 3.179501e+03 
8.900300e-02 3.110140e+03 
9.009000e-02 3.053075e+03 
9.113300e-02 2.995363e+03 
9.239600e-02 2.923893e+03 
9.358000e-02 2.854769e+03 
9.496100e-02 2.771755e+03 
9.608400e-02 2.704278e+03 
9.727500e-02 2.633361e+03 
9.852600e-02 2.558968e+03 
9.973800e-02 2.489197e+03 
1.009000e-01 2.424396e+03 
1.020900e-01 2.361460e+03 
1.034000e-01 2.295819e+03 
1.046000e-01 2.239108e+03 
1.057200e-01 2.191150e+03 
1.069100e-01 2.143068e+03 
1.082500e-01 2.094825e+03 
1.093900e-01 2.057910e+03 
1.105400e-01 2.023343e+03 
1.116900e-01 1.993700e+03 
1.129600e-01 1.963160e+03 
1.142000e-01 1.937419e+03 
1.153300e-01 1.915573e+03 
1.166400e-01 1.892482e+03 
1.177800e-01 1.873689e+03 
1.190000e-01 1.854439e+03 
1.201200e-01 1.836877e+03 
1.213400e-01 1.818149e+03 
1.227100e-01 1.795783e+03 
1.238900e-01 1.776425e+03 
1.250700e-01 1.755555e+03 
1.263200e-01 1.733051e+03 
1.275500e-01 1.709397e+03 
1.287500e-01 1.685757e+03 
1.299900e-01 1.660160e+03 
1.311300e-01 1.636232e+03 
1.323500e-01 1.609803e+03 
1.335900e-01 1.582876e+03 
1.347100e-01 1.558180e+03 
1.359800e-01 1.530486e+03 
1.372100e-01 1.503626e+03 
1.384300e-01 1.477525e+03 
1.395700e-01 1.453459e+03 
1.407700e-01 1.428727e+03 
1.420300e-01 1.403610e+03 
1.432800e-01 1.379289e+03 
1.444500e-01 1.357724e+03 
1.456300e-01 1.336450e+03 
1.468900e-01 1.315031e+03 
1.480500e-01 1.295976e+03 
1.491700e-01 1.278434e+03 
1.503800e-01 1.260484e+03 
1.516400e-01 1.242405e+03 
1.528200e-01 1.226767e+03 
1.540200e-01 1.211176e+03 
1.551900e-01 1.197058e+03 
1.564300e-01 1.182576e+03 
1.576600e-01 1.168816e+03 
1.588700e-01 1.155927e+03 
1.600900e-01 1.143194e+03 
1.612700e-01 1.131443e+03 
1.625400e-01 1.119031e+03 
1.637600e-01 1.107301e+03 
1.649500e-01 1.096049e+03 
1.662200e-01 1.084203e+03 
1.674000e-01 1.073079e+03 
1.685000e-01 1.062883e+03 
1.697500e-01 1.051187e+03 
1.710300e-01 1.039126e+03 
1.722200e-01 1.028114e+03 
1.734400e-01 1.016367e+03 
1.746400e-01 1.004989e+03 
1.758700e-01 9.933394e+02 
1.770900e-01 9.815979e+02 
1.782700e-01 9.704392e+02 
1.794600e-01 9.591399e+02 
1.807000e-01 9.474121e+02 
1.819100e-01 9.361701e+02 
1.830100e-01 9.259814e+02 
1.842200e-01 9.149353e+02 
1.855000e-01 9.034601e+02 
1.867000e-01 8.929543e+02 
1.879200e-01 8.824547e+02 
1.890900e-01 8.725871e+02 
1.902800e-01 8.628902e+02 
1.915200e-01 8.529538e+02 
1.926900e-01 8.438046e+02 
1.939000e-01 8.347304e+02 
1.951700e-01 8.253631e+02 
1.963100e-01 8.171703e+02 
1.975100e-01 8.088971e+02 
1.987800e-01 8.002807e+02 
2.000100e-01 7.921447e+02 
2.012500e-01 7.842458e+02 
2.023400e-01 7.774041e+02 
2.036100e-01 7.695825e+02 
2.048900e-01 7.619499e+02 
2.060400e-01 7.551948e+02 
2.072200e-01 7.483666e+02 
2.084200e-01 7.415781e+02 
2.096900e-01 7.345004e+02 
2.109200e-01 7.277481e+02 
2.121100e-01 7.212827e+02 
2.132700e-01 7.150667e+02 
2.145200e-01 7.084635e+02 
2.157200e-01 7.021683e+02 
2.168800e-01 6.961451e+02 
2.180700e-01 6.900506e+02 
2.193400e-01 6.836055e+02 
2.206000e-01 6.772421e+02 
2.217500e-01 6.715147e+02 
2.229500e-01 6.656185e+02 
2.241400e-01 6.597655e+02 
2.253500e-01 6.538930e+02 
2.264900e-01 6.484337e+02 
2.277100e-01 6.426387e+02 
2.289900e-01 6.366104e+02 
2.301500e-01 6.312216e+02 
2.313600e-01 6.256743e+02 
2.325600e-01 6.202139e+02 
2.337700e-01 6.147811e+02 
2.350000e-01 6.093323e+02 
2.362000e-01 6.040839e+02 
2.374100e-01 5.988572e+02 
2.386500e-01 5.935719e+02 
2.399100e-01 5.882736e+02 
2.410400e-01 5.836019e+02 
2.422500e-01 5.786643e+02 
2.435000e-01 5.736298e+02 
2.447300e-01 5.687477e+02 
2.458700e-01 5.643078e+02 
2.470600e-01 5.597293e+02 
2.483300e-01 5.549053e+02 
2.495600e-01 5.503111e+02 
2.507600e-01 5.459087e+02 
2.519600e-01 5.415601e+02 
2.532200e-01 5.370511e+02 
2.543700e-01 5.330097e+02 
2.555500e-01 5.289276e+02 
2.568000e-01 5.246557e+02 
2.580100e-01 5.205710e+02 
2.592400e-01 5.164950e+02 
2.604100e-01 5.126751e+02 
2.616100e-01 5.088025e+02 
2.628400e-01 5.048800e+02 
2.640600e-01 5.010573e+02 
2.652200e-01 4.974728e+02 
2.664300e-01 4.937762e+02 
2.676500e-01 4.900923e+02 
2.688400e-01 4.865507e+02 
2.700700e-01 4.829386e+02 
2.712400e-01 4.795414e+02 
2.724800e-01 4.759816e+02 
2.736700e-01 4.726123e+02 
2.748800e-01 4.692331e+02 
2.761000e-01 4.658641e+02 
2.773200e-01 4.625329e+02 
2.785400e-01 4.592408e+02 
2.797000e-01 4.561490e+02 
2.808900e-01 4.530110e+02 
2.821400e-01 4.497511e+02 
2.833900e-01 4.465278e+02 
2.845500e-01 4.435710e+02 
2.857800e-01 4.404692e+02 
2.870300e-01 4.373516e+02 
2.882100e-01 4.344401e+02 
2.893900e-01 4.315611e+02 
2.906300e-01 4.285688e+02 
2.918900e-01 4.255615e+02 
2.930500e-01 4.228220e+02 
2.942500e-01 4.200172e+02 
2.954200e-01 4.173114e+02 
2.966500e-01 4.144961e+02 
2.978900e-01 4.116879e+02 
2.990400e-01 4.091101e+02 
3.002700e-01 4.063817e+02 
3.015100e-01 4.036604e+02 
3.026800e-01 4.011188e+02 
3.038500e-01 3.986020e+02 
3.050300e-01 3.960888e+02 
3.062600e-01 3.934975e+02 
3.075000e-01 3.909120e+02 
3.087000e-01 3.884350e+02 
3.099100e-01 3.859621e+02 
3.111200e-01 3.835160e+02 
3.123100e-01 3.811375e+02 
3.135300e-01 3.787230e+02 
3.147300e-01 3.763713e+02 
3.159900e-01 3.739265e+02 
3.171800e-01 3.716435e+02 
3.183700e-01 3.693843e+02 
3.196300e-01 3.670156e+02 
3.208400e-01 3.647632e+02 
3.220300e-01 3.625690e+02 
3.232000e-01 3.604372e+02 
3.244300e-01 3.582192e+02 
3.256700e-01 3.560049e+02 
3.269200e-01 3.537943e+02 
3.280800e-01 3.517620e+02 
3.292500e-01 3.497376e+02 
3.304800e-01 3.476313e+02 
3.317100e-01 3.455448e+02 
3.328900e-01 3.435615e+02 
3.340700e-01 3.415961e+02 
3.353600e-01 3.394748e+02 
3.365300e-01 3.375715e+02 
3.377100e-01 3.356689e+02 
3.389200e-01 3.337355e+02 
3.401600e-01 3.317722e+02 
3.413700e-01 3.298802e+02 
3.425300e-01 3.280867e+02 
3.437700e-01 3.261864e+02 
3.449800e-01 3.243489e+02 
3.461800e-01 3.225427e+02 
3.473600e-01 3.207850e+02 
3.485800e-01 3.189911e+02 
3.498100e-01 3.171986e+02 
3.510200e-01 3.154507e+02 
3.522000e-01 3.137608e+02 
3.533900e-01 3.120711e+02 
3.546400e-01 3.103206e+02 
3.558400e-01 3.086553e+02 
3.570600e-01 3.069768e+02 
3.582700e-01 3.053263e+02 
3.595000e-01 3.036629e+02 
3.607100e-01 3.020457e+02 
3.618900e-01 3.004857e+02 
3.631200e-01 2.988732e+02 
3.643200e-01 2.973133e+02 
3.655500e-01 2.957279e+02 
3.667300e-01 2.942196e+02 
3.679500e-01 2.926825e+02 
3.691900e-01 2.911333e+02 
3.703600e-01 2.896836e+02 
3.715700e-01 2.881965e+02 
3.727700e-01 2.867337e+02 
3.739900e-01 2.852616e+02 
3.752000e-01 2.838188e+02 
3.763900e-01 2.824112e+02 
3.775800e-01 2.810148e+02 
3.788200e-01 2.795716e+02 
3.800300e-01 2.781747e+02 
3.812100e-01 2.768273e+02 
3.824200e-01 2.754592e+02 
3.836100e-01 2.741243e+02 
3.848600e-01 2.727334e+02 
3.860400e-01 2.714307e+02 
3.872400e-01 2.701162e+02 
3.884600e-01 2.687956e+02 
3.896500e-01 2.675194e+02 
3.908700e-01 2.662212e+02 
3.920600e-01 2.649647e+02 
3.933100e-01 2.636551e+02 
3.945300e-01 2.623871e+02 
3.957200e-01 2.611648e+02 
3.969300e-01 2.599328e+02 
3.981700e-01 2.586801e+02 
3.993500e-01 2.574971e+02 
4.094840e-01 2.477169e+02 
4.272360e-01 2.321093e+02 
4.454600e-01 2.178152e+02 
4.630560e-01 2.054299e+02 
4.804610e-01 1.943647e+02 
4.980690e-01 1.842139e+02 
5.159230e-01 1.748541e+02 
5.317440e-01 1.672550e+02 
5.489640e-01 1.596430e+02 
5.671990e-01 1.522507e+02 
5.838690e-01 1.460279e+02 
6.018840e-01 1.398175e+02 
6.202330e-01 1.339905e+02 
6.379250e-01 1.287887e+02 
6.545410e-01 1.242536e+02 
6.714560e-01 1.199406e+02 
6.892080e-01 1.157197e+02 
7.066010e-01 1.118638e+02 
7.240540e-01 1.082367e+02 
7.420450e-01 1.047431e+02 
7.593780e-01 1.015868e+02 
7.764720e-01 9.865443e+01 
7.942840e-01 9.577629e+01 
8.116170e-01 9.313824e+01 
8.288310e-01 9.066311e+01 
8.462240e-01 8.829692e+01 
8.631980e-01 8.610606e+01 
8.810700e-01 8.391630e+01 
8.989410e-01 8.183719e+01 
9.166330e-01 7.988154e+01 
9.345640e-01 7.799648e+01 
9.515980e-01 7.628751e+01 
9.688720e-01 7.462976e+01 
9.865640e-01 7.300777e+01 
1.031870e+00 6.915654e+01 
1.063490e+00 6.670002e+01 
1.097920e+00 6.421709e+01 
1.134370e+00 6.177526e+01 
1.167730e+00 5.969379e+01 
1.203830e+00 5.758432e+01 
1.240470e+00 5.558298e+01 
1.275790e+00 5.377176e+01 
1.309140e+00 5.216028e+01 
1.342970e+00 5.060778e+01 
1.378420e+00 4.907018e+01 
1.413200e+00 4.764026e+01 
1.448110e+00 4.627567e+01 
1.484090e+00 4.493938e+01 
1.518820e+00 4.371047e+01 
1.552880e+00 4.255980e+01 
1.588630e+00 4.140519e+01 
1.623230e+00 4.033779e+01 
1.657720e+00 3.931776e+01 
1.692450e+00 3.833439e+01 
1.726400e+00 3.740991e+01 
1.762200e+00 3.647263e+01 
1.797880e+00 3.557640e+01 
1.833270e+00 3.472254e+01 
1.869070e+00 3.389061e+01 
1.903200e+00 3.312692e+01 
1.937740e+00 3.238144e+01 
1.973190e+00 3.164335e+01 
2.007440e+00 3.095518e+01 
2.042160e+00 3.028065e+01 
2.077900e+00 2.960950e+01 
2.112390e+00 2.898383e+01 
2.146220e+00 2.838870e+01 
2.181600e+00 2.778655e+01 
2.216930e+00 2.720402e+01 
2.250760e+00 2.666359e+01 
2.286500e+00 2.611025e+01 
2.321770e+00 2.558091e+01 
2.355950e+00 2.508355e+01 
2.391280e+00 2.458288e+01 
2.426240e+00 2.410213e+01 
2.460670e+00 2.364269e+01 
2.495640e+00 2.318976e+01 
2.531080e+00 2.274263e+01 
2.566220e+00 2.231134e+01 
2.600830e+00 2.189848e+01 
2.635080e+00 2.150131e+01 
2.670340e+00 2.110209e+01 
2.705970e+00 2.070982e+01 
2.740040e+00 2.034488e+01 
2.774520e+00 1.998438e+01 
2.809730e+00 1.962521e+01 
2.844390e+00 1.928100e+01 
2.879960e+00 1.893670e+01 
2.914860e+00 1.860688e+01 
2.949410e+00 1.828871e+01 
2.984440e+00 1.797351e+01 
3.019760e+00 1.766329e+01 
3.054730e+00 1.736392e+01 
3.089030e+00 1.707641e+01 
3.124060e+00 1.679008e+01 
3.159560e+00 1.650676e+01 
3.194710e+00 1.623251e+01 
3.229010e+00 1.597148e+01 
3.263320e+00 1.571503e+01 
3.297930e+00 1.546257e+01 
3.332830e+00 1.521352e+01 
3.368040e+00 1.496790e+01 
3.403300e+00 1.472764e+01 
3.438450e+00 1.449295e+01 
3.473060e+00 1.426739e+01 
3.508440e+00 1.404090e+01 
3.543110e+00 1.382427e+01 
3.577470e+00 1.361369e+01 
3.613040e+00 1.340064e+01 
3.648120e+00 1.319455e+01 
3.682910e+00 1.299463e+01 
3.718050e+00 1.279665e+01 
3.753320e+00 1.260218e+01 
3.787980e+00 1.241485e+01 
3.822290e+00 1.223324e+01 
3.857020e+00 1.205294e+01 
3.891920e+00 1.187545e+01 
3.926650e+00 1.170205e+01 
3.961970e+00 1.152944e+01 
3.997360e+00 1.135977e+01 
4.031670e+00 1.119877e+01 
4.066330e+00 1.103894e+01 
4.101420e+00 1.088062e+01 
4.136200e+00 1.072614e+01 
4.170810e+00 1.057570e+01 
4.206250e+00 1.042439e+01 
4.241580e+00 1.027669e+01 
4.276300e+00 1.013411e+01 
4.310970e+00 9.994434e+00 
4.346120e+00 9.855508e+00 
4.380600e+00 9.721613e+00 
4.414730e+00 9.591731e+00 
4.450350e+00 9.458376e+00 
4.485320e+00 9.330131e+00 
4.519810e+00 9.205763e+00 
4.555430e+00 9.079710e+00 
4.590870e+00 8.956661e+00 
4.625480e+00 8.838533e+00 
4.659910e+00 8.723292e+00 
4.695230e+00 8.607053e+00 
4.729960e+00 8.494921e+00 
4.764450e+00 8.385498e+00 
4.799530e+00 8.276011e+00 
4.834910e+00 8.167699e+00 
4.869700e+00 8.062937e+00 
4.904370e+00 7.960435e+00 
4.939450e+00 7.858569e+00 
4.973940e+00 7.760062e+00 
5.008430e+00 7.663341e+00 
5.043810e+00 7.565731e+00 
5.078840e+00 7.470734e+00 
5.113500e+00 7.378434e+00 
5.148890e+00 7.285635e+00 
5.184210e+00 7.194681e+00 
5.219060e+00 7.106496e+00 
5.253660e+00 7.020366e+00 
5.288570e+00 6.934980e+00 
5.323420e+00 6.851129e+00 
5.358440e+00 6.768225e+00 
5.393590e+00 6.686452e+00 
5.428310e+00 6.606979e+00 
5.462800e+00 6.529321e+00 
5.497640e+00 6.452193e+00 
5.532670e+00 6.375886e+00 
5.567280e+00 6.301733e+00 
5.602000e+00 6.228573e+00 
5.637270e+00 6.155402e+00 
5.672410e+00 6.083690e+00 
5.707020e+00 6.014216e+00 
5.742040e+00 5.945056e+00 
5.777430e+00 5.876306e+00 
5.812210e+00 5.809834e+00 
5.846820e+00 5.744667e+00 
5.881610e+00 5.680180e+00 
5.916510e+00 5.616513e+00 
5.951600e+00 5.553489e+00 
5.986560e+00 5.491676e+00 
6.021830e+00 5.430293e+00 
6.056490e+00 5.370930e+00 
6.091160e+00 5.312478e+00 
6.125830e+00 5.254916e+00 
6.161090e+00 5.197272e+00 
6.195760e+00 5.141458e+00 
6.230420e+00 5.086497e+00 
6.265690e+00 5.031413e+00 
6.300950e+00 4.977205e+00 
6.335620e+00 4.924699e+00 
6.370880e+00 4.872092e+00 
6.405550e+00 4.821153e+00 
6.440220e+00 4.770966e+00 
6.475480e+00 4.720671e+00 
6.510150e+00 4.671954e+00 
6.544810e+00 4.623987e+00 
6.580080e+00 4.575880e+00 
6.614750e+00 4.529268e+00 
6.649410e+00 4.483376e+00 
6.684080e+00 4.438126e+00 
6.719340e+00 4.392755e+00 
6.754010e+00 4.348799e+00 
6.788680e+00 4.305517e+00 
6.823940e+00 4.262112e+00 
6.859800e+00 4.218590e+00 
6.894470e+00 4.177137e+00 
6.929140e+00 4.136264e+00 
6.963800e+00 4.095955e+00 
6.999070e+00 4.055501e+00 
7.033730e+00 4.016371e+00 
7.068400e+00 3.977753e+00 
7.103660e+00 3.939004e+00 
7.138330e+00 3.901437e+00 
7.173600e+00 3.863779e+00 
7.208260e+00 3.827262e+00 
7.243530e+00 3.790592e+00 
7.277600e+00 3.755663e+00 
7.312860e+00 3.720013e+00 
7.348120e+00 3.684830e+00 
7.382790e+00 3.650682e+00 
7.417460e+00 3.617054e+00 
7.452720e+00 3.583333e+00 
7.487390e+00 3.550600e+00 
7.522650e+00 3.517732e+00 
7.557320e+00 3.485888e+00 
7.591990e+00 3.454465e+00 
7.627250e+00 3.422908e+00 
7.662510e+00 3.391747e+00 
7.697180e+00 3.361560e+00 
7.731850e+00 3.331770e+00 
7.766510e+00 3.302352e+00 
7.801180e+00 3.273284e+00 
7.836440e+00 3.244132e+00 
7.871110e+00 3.215848e+00 
7.906380e+00 3.187423e+00 
7.941040e+00 3.159826e+00 
7.976310e+00 3.132120e+00 
8.011570e+00 3.104803e+00 
8.046240e+00 3.078262e+00 
8.080900e+00 3.052041e+00 
8.115570e+00 3.026142e+00 
8.150830e+00 3.000197e+00 
8.185500e+00 2.974985e+00 
8.220770e+00 2.949635e+00 
8.255430e+00 2.925013e+00 
8.290100e+00 2.900751e+00 
8.324770e+00 2.876776e+00 
8.359430e+00 2.853080e+00 
8.394700e+00 2.829243e+00 
8.429960e+00 2.805734e+00 
8.464630e+00 2.782929e+00 
8.499890e+00 2.759997e+00 
8.534560e+00 2.737702e+00 
8.569200e+00 2.715673e+00 
