# Parameters:
# omega_b = 0.022854, omega_m = 0.121929, n_s = 1.043701, h = 78.385827, w = -1.000000, sigma_8 = 0.726772
# z = 1.500000
#
# k[1/Mpc] # P(k):
8.694000e-04 3.325204e+03 
2.077466e-03 7.482412e+03 
3.285532e-03 1.080842e+04 
4.493598e-03 1.336589e+04 
5.701664e-03 1.524511e+04 
6.909730e-03 1.654887e+04 
8.117797e-03 1.740010e+04 
9.325863e-03 1.786346e+04 
1.053393e-02 1.800526e+04 
1.174199e-02 1.788714e+04 
1.295006e-02 1.754961e+04 
1.415813e-02 1.704713e+04 
1.536619e-02 1.642654e+04 
1.657426e-02 1.572017e+04 
1.778233e-02 1.495771e+04 
1.899039e-02 1.418088e+04 
2.019846e-02 1.341239e+04 
2.140652e-02 1.267089e+04 
2.261459e-02 1.196713e+04 
2.382266e-02 1.131272e+04 
2.503072e-02 1.071457e+04 
2.623879e-02 1.017413e+04 
2.744685e-02 9.692180e+03 
2.865492e-02 9.266487e+03 
2.986299e-02 8.892741e+03 
3.100100e-02 8.586500e+03 
3.220400e-02 8.305378e+03 
3.288100e-02 8.165817e+03 
3.424300e-02 7.917757e+03 
3.555100e-02 7.713470e+03 
3.686000e-02 7.535998e+03 
3.795000e-02 7.403200e+03 
3.929100e-02 7.253226e+03 
4.039800e-02 7.134817e+03 
4.164000e-02 7.003943e+03 
4.294400e-02 6.860249e+03 
4.415000e-02 6.723052e+03 
4.542900e-02 6.564155e+03 
4.660900e-02 6.410273e+03 
4.782300e-02 6.234947e+03 
4.892900e-02 6.067935e+03 
5.031200e-02 5.847424e+03 
5.155900e-02 5.638484e+03 
5.238100e-02 5.497753e+03 
5.378200e-02 5.255312e+03 
5.513400e-02 5.020335e+03 
5.627600e-02 4.824257e+03 
5.735300e-02 4.643689e+03 
5.870100e-02 4.425930e+03 
5.988700e-02 4.244116e+03 
6.113500e-02 4.063936e+03 
6.225900e-02 3.913158e+03 
6.340100e-02 3.772051e+03 
6.480200e-02 3.614972e+03 
6.601100e-02 3.495897e+03 
6.725500e-02 3.388106e+03 
6.829100e-02 3.310484e+03 
6.958600e-02 3.225040e+03 
7.071100e-02 3.161790e+03 
7.192300e-02 3.102943e+03 
7.307400e-02 3.054714e+03 
7.412300e-02 3.016132e+03 
7.550400e-02 2.972183e+03 
7.663100e-02 2.939958e+03 
7.791200e-02 2.906518e+03 
7.912700e-02 2.875741e+03 
8.027600e-02 2.846384e+03 
8.138400e-02 2.817198e+03 
8.272200e-02 2.779739e+03 
8.406100e-02 2.739030e+03 
8.534100e-02 2.695276e+03 
8.653800e-02 2.649934e+03 
8.759800e-02 2.607225e+03 
8.900300e-02 2.546495e+03 
9.009000e-02 2.496107e+03 
9.113300e-02 2.444953e+03 
9.239600e-02 2.381546e+03 
9.358000e-02 2.320246e+03 
9.496100e-02 2.246877e+03 
9.608400e-02 2.187496e+03 
9.727500e-02 2.125326e+03 
9.852600e-02 2.060768e+03 
9.973800e-02 2.000642e+03 
1.009000e-01 1.945149e+03 
1.020900e-01 1.892167e+03 
1.034000e-01 1.837432e+03 
1.046000e-01 1.790687e+03 
1.057200e-01 1.752136e+03 
1.069100e-01 1.713870e+03 
1.082500e-01 1.676622e+03 
1.093900e-01 1.648868e+03 
1.105400e-01 1.623341e+03 
1.116900e-01 1.602494e+03 
1.129600e-01 1.581372e+03 
1.142000e-01 1.564414e+03 
1.153300e-01 1.550223e+03 
1.166400e-01 1.535554e+03 
1.177800e-01 1.523534e+03 
1.190000e-01 1.511197e+03 
1.201200e-01 1.499236e+03 
1.213400e-01 1.486367e+03 
1.227100e-01 1.469469e+03 
1.238900e-01 1.454515e+03 
1.250700e-01 1.437344e+03 
1.263200e-01 1.418465e+03 
1.275500e-01 1.397851e+03 
1.287500e-01 1.376968e+03 
1.299900e-01 1.353934e+03 
1.311300e-01 1.332302e+03 
1.323500e-01 1.308268e+03 
1.335900e-01 1.283841e+03 
1.347100e-01 1.261509e+03 
1.359800e-01 1.236618e+03 
1.372100e-01 1.212744e+03 
1.384300e-01 1.189722e+03 
1.395700e-01 1.168871e+03 
1.407700e-01 1.147516e+03 
1.420300e-01 1.126407e+03 
1.432800e-01 1.105977e+03 
1.444500e-01 1.088432e+03 
1.456300e-01 1.071125e+03 
1.468900e-01 1.054069e+03 
1.480500e-01 1.039005e+03 
1.491700e-01 1.025285e+03 
1.503800e-01 1.011436e+03 
1.516400e-01 9.975214e+02 
1.528200e-01 9.856508e+02 
1.540200e-01 9.738132e+02 
1.551900e-01 9.631406e+02 
1.564300e-01 9.522028e+02 
1.576600e-01 9.417804e+02 
1.588700e-01 9.319826e+02 
1.600900e-01 9.222936e+02 
1.612700e-01 9.131934e+02 
1.625400e-01 9.035805e+02 
1.637600e-01 8.943560e+02 
1.649500e-01 8.854252e+02 
1.662200e-01 8.759875e+02 
1.674000e-01 8.669297e+02 
1.685000e-01 8.586280e+02 
1.697500e-01 8.490070e+02 
1.710300e-01 8.389894e+02 
1.722200e-01 8.298448e+02 
1.734400e-01 8.199603e+02 
1.746400e-01 8.103834e+02 
1.758700e-01 8.005617e+02 
1.770900e-01 7.906284e+02 
1.782700e-01 7.811909e+02 
1.794600e-01 7.716397e+02 
1.807000e-01 7.617311e+02 
1.819100e-01 7.522360e+02 
1.830100e-01 7.436769e+02 
1.842200e-01 7.344077e+02 
1.855000e-01 7.247848e+02 
1.867000e-01 7.160573e+02 
1.879200e-01 7.073370e+02 
1.890900e-01 6.991585e+02 
1.902800e-01 6.912018e+02 
1.915200e-01 6.830497e+02 
1.926900e-01 6.755653e+02 
1.939000e-01 6.682111e+02 
1.951700e-01 6.606198e+02 
1.963100e-01 6.539987e+02 
1.975100e-01 6.473614e+02 
1.987800e-01 6.404489e+02 
2.000100e-01 6.339335e+02 
2.012500e-01 6.276353e+02 
2.023400e-01 6.221799e+02 
2.036100e-01 6.159444e+02 
2.048900e-01 6.098647e+02 
2.060400e-01 6.044838e+02 
2.072200e-01 5.990431e+02 
2.084200e-01 5.936155e+02 
2.096900e-01 5.879568e+02 
2.109200e-01 5.825583e+02 
2.121100e-01 5.773552e+02 
2.132700e-01 5.723513e+02 
2.145200e-01 5.670358e+02 
2.157200e-01 5.619421e+02 
2.168800e-01 5.570566e+02 
2.180700e-01 5.521136e+02 
2.193400e-01 5.468752e+02 
2.206000e-01 5.416831e+02 
2.217500e-01 5.370103e+02 
2.229500e-01 5.322002e+02 
2.241400e-01 5.274055e+02 
2.253500e-01 5.225950e+02 
2.264900e-01 5.181233e+02 
2.277100e-01 5.133746e+02 
2.289900e-01 5.084324e+02 
2.301500e-01 5.040150e+02 
2.313600e-01 4.994682e+02 
2.325600e-01 4.949978e+02 
2.337700e-01 4.905504e+02 
2.350000e-01 4.860906e+02 
2.362000e-01 4.818006e+02 
2.374100e-01 4.775356e+02 
2.386500e-01 4.732232e+02 
2.399100e-01 4.689005e+02 
2.410400e-01 4.651025e+02 
2.422500e-01 4.610903e+02 
2.435000e-01 4.569997e+02 
2.447300e-01 4.530358e+02 
2.458700e-01 4.494412e+02 
2.470600e-01 4.457347e+02 
2.483300e-01 4.418296e+02 
2.495600e-01 4.381147e+02 
2.507600e-01 4.345605e+02 
2.519600e-01 4.310499e+02 
2.532200e-01 4.274100e+02 
2.543700e-01 4.241499e+02 
2.555500e-01 4.208586e+02 
2.568000e-01 4.174145e+02 
2.580100e-01 4.141215e+02 
2.592400e-01 4.108342e+02 
2.604100e-01 4.077528e+02 
2.616100e-01 4.046292e+02 
2.628400e-01 4.014654e+02 
2.640600e-01 3.983782e+02 
2.652200e-01 3.954819e+02 
2.664300e-01 3.924952e+02 
2.676500e-01 3.895188e+02 
2.688400e-01 3.866527e+02 
2.700700e-01 3.837265e+02 
2.712400e-01 3.809747e+02 
2.724800e-01 3.780912e+02 
2.736700e-01 3.753581e+02 
2.748800e-01 3.726129e+02 
2.761000e-01 3.698762e+02 
2.773200e-01 3.671704e+02 
2.785400e-01 3.644943e+02 
2.797000e-01 3.619762e+02 
2.808900e-01 3.594208e+02 
2.821400e-01 3.567662e+02 
2.833900e-01 3.541415e+02 
2.845500e-01 3.517286e+02 
2.857800e-01 3.491976e+02 
2.870300e-01 3.466539e+02 
2.882100e-01 3.442787e+02 
2.893900e-01 3.419277e+02 
2.906300e-01 3.394832e+02 
2.918900e-01 3.370266e+02 
2.930500e-01 3.347890e+02 
2.942500e-01 3.324978e+02 
2.954200e-01 3.302863e+02 
2.966500e-01 3.279856e+02 
2.978900e-01 3.256909e+02 
2.990400e-01 3.235846e+02 
3.002700e-01 3.213555e+02 
3.015100e-01 3.191322e+02 
3.026800e-01 3.170559e+02 
3.038500e-01 3.150002e+02 
3.050300e-01 3.129475e+02 
3.062600e-01 3.108320e+02 
3.075000e-01 3.087213e+02 
3.087000e-01 3.066994e+02 
3.099100e-01 3.046812e+02 
3.111200e-01 3.026855e+02 
3.123100e-01 3.007463e+02 
3.135300e-01 2.987778e+02 
3.147300e-01 2.968608e+02 
3.159900e-01 2.948681e+02 
3.171800e-01 2.930086e+02 
3.183700e-01 2.911693e+02 
3.196300e-01 2.892411e+02 
3.208400e-01 2.874077e+02 
3.220300e-01 2.856219e+02 
3.232000e-01 2.838884e+02 
3.244300e-01 2.820856e+02 
3.256700e-01 2.802859e+02 
3.269200e-01 2.784894e+02 
3.280800e-01 2.768380e+02 
3.292500e-01 2.751943e+02 
3.304800e-01 2.734846e+02 
3.317100e-01 2.717911e+02 
3.328900e-01 2.701816e+02 
3.340700e-01 2.685867e+02 
3.353600e-01 2.668665e+02 
3.365300e-01 2.653235e+02 
3.377100e-01 2.637813e+02 
3.389200e-01 2.622141e+02 
3.401600e-01 2.606229e+02 
3.413700e-01 2.590901e+02 
3.425300e-01 2.576375e+02 
3.437700e-01 2.560987e+02 
3.449800e-01 2.546107e+02 
3.461800e-01 2.531482e+02 
3.473600e-01 2.517251e+02 
3.485800e-01 2.502729e+02 
3.498100e-01 2.488219e+02 
3.510200e-01 2.474072e+02 
3.522000e-01 2.460395e+02 
3.533900e-01 2.446720e+02 
3.546400e-01 2.432554e+02 
3.558400e-01 2.419078e+02 
3.570600e-01 2.405496e+02 
3.582700e-01 2.392142e+02 
3.595000e-01 2.378685e+02 
3.607100e-01 2.365596e+02 
3.618900e-01 2.352968e+02 
3.631200e-01 2.339915e+02 
3.643200e-01 2.327290e+02 
3.655500e-01 2.314458e+02 
3.667300e-01 2.302252e+02 
3.679500e-01 2.289803e+02 
3.691900e-01 2.277257e+02 
3.703600e-01 2.265517e+02 
3.715700e-01 2.253476e+02 
3.727700e-01 2.241632e+02 
3.739900e-01 2.229709e+02 
3.752000e-01 2.218015e+02 
3.763900e-01 2.206607e+02 
3.775800e-01 2.195291e+02 
3.788200e-01 2.183596e+02 
3.800300e-01 2.172278e+02 
3.812100e-01 2.161351e+02 
3.824200e-01 2.150252e+02 
3.836100e-01 2.139423e+02 
3.848600e-01 2.128139e+02 
3.860400e-01 2.117573e+02 
3.872400e-01 2.106912e+02 
3.884600e-01 2.096191e+02 
3.896500e-01 2.085828e+02 
3.908700e-01 2.075286e+02 
3.920600e-01 2.065084e+02 
3.933100e-01 2.054453e+02 
3.945300e-01 2.044159e+02 
3.957200e-01 2.034221e+02 
3.969300e-01 2.024201e+02 
3.981700e-01 2.014014e+02 
3.993500e-01 2.004393e+02 
4.094840e-01 1.924858e+02 
4.272360e-01 1.797700e+02 
4.454600e-01 1.681241e+02 
4.630560e-01 1.580445e+02 
4.804610e-01 1.490600e+02 
4.980690e-01 1.408419e+02 
5.159230e-01 1.332938e+02 
5.317440e-01 1.271849e+02 
5.489640e-01 1.210899e+02 
5.671990e-01 1.151928e+02 
5.838690e-01 1.102413e+02 
6.018840e-01 1.053111e+02 
6.202330e-01 1.006980e+02 
6.379250e-01 9.658665e+01 
6.545410e-01 9.300853e+01 
6.714560e-01 8.960882e+01 
6.892080e-01 8.628561e+01 
7.066010e-01 8.325138e+01 
7.240540e-01 8.040155e+01 
7.420450e-01 7.765766e+01 
7.593780e-01 7.518174e+01 
7.764720e-01 7.288293e+01 
7.942840e-01 7.063011e+01 
8.116170e-01 6.856631e+01 
8.288310e-01 6.663350e+01 
8.462240e-01 6.478697e+01 
8.631980e-01 6.308046e+01 
8.810700e-01 6.137781e+01 
8.989410e-01 5.976516e+01 
9.166330e-01 5.825073e+01 
9.345640e-01 5.679257e+01 
9.515980e-01 5.547455e+01 
9.688720e-01 5.419933e+01 
9.865640e-01 5.295448e+01 
1.031870e+00 5.001214e+01 
1.063490e+00 4.814604e+01 
1.097920e+00 4.626906e+01 
1.134370e+00 4.443339e+01 
1.167730e+00 4.287672e+01 
1.203830e+00 4.130964e+01 
1.240470e+00 3.982983e+01 
1.275790e+00 3.849785e+01 
1.309140e+00 3.731816e+01 
1.342970e+00 3.618903e+01 
1.378420e+00 3.507437e+01 
1.413200e+00 3.404294e+01 
1.448110e+00 3.306237e+01 
1.484090e+00 3.210638e+01 
1.518820e+00 3.123059e+01 
1.552880e+00 3.041348e+01 
1.588630e+00 2.959614e+01 
1.623230e+00 2.884281e+01 
1.657720e+00 2.812563e+01 
1.692450e+00 2.743554e+01 
1.726400e+00 2.678836e+01 
1.762200e+00 2.613391e+01 
1.797880e+00 2.551004e+01 
1.833270e+00 2.491638e+01 
1.869070e+00 2.433928e+01 
1.903200e+00 2.381066e+01 
1.937740e+00 2.329513e+01 
1.973190e+00 2.278529e+01 
2.007440e+00 2.231038e+01 
2.042160e+00 2.184588e+01 
2.077900e+00 2.138422e+01 
2.112390e+00 2.095390e+01 
2.146220e+00 2.054504e+01 
2.181600e+00 2.013176e+01 
2.216930e+00 1.973227e+01 
2.250760e+00 1.936169e+01 
2.286500e+00 1.898234e+01 
2.321770e+00 1.861958e+01 
2.355950e+00 1.827867e+01 
2.391280e+00 1.793599e+01 
2.426240e+00 1.760686e+01 
2.460670e+00 1.729218e+01 
2.495640e+00 1.698185e+01 
2.531080e+00 1.667557e+01 
2.566220e+00 1.638022e+01 
2.600830e+00 1.609740e+01 
2.635080e+00 1.582516e+01 
2.670340e+00 1.555125e+01 
2.705970e+00 1.528210e+01 
2.740040e+00 1.503164e+01 
2.774520e+00 1.478402e+01 
2.809730e+00 1.453728e+01 
2.844390e+00 1.430066e+01 
2.879960e+00 1.406358e+01 
2.914860e+00 1.383640e+01 
2.949410e+00 1.361714e+01 
2.984440e+00 1.339971e+01 
3.019760e+00 1.318566e+01 
3.054730e+00 1.297901e+01 
3.089030e+00 1.278007e+01 
3.124060e+00 1.258179e+01 
3.159560e+00 1.238540e+01 
3.194710e+00 1.219509e+01 
3.229010e+00 1.201383e+01 
3.263320e+00 1.183548e+01 
3.297930e+00 1.165978e+01 
3.332830e+00 1.148627e+01 
3.368040e+00 1.131485e+01 
3.403300e+00 1.114695e+01 
3.438450e+00 1.098274e+01 
3.473060e+00 1.082482e+01 
3.508440e+00 1.066599e+01 
3.543110e+00 1.051394e+01 
3.577470e+00 1.036566e+01 
3.613040e+00 1.021557e+01 
3.648120e+00 1.007033e+01 
3.682910e+00 9.929209e+00 
3.718050e+00 9.789103e+00 
3.753320e+00 9.651369e+00 
3.787980e+00 9.518550e+00 
3.822290e+00 9.389615e+00 
3.857020e+00 9.261376e+00 
3.891920e+00 9.134999e+00 
3.926650e+00 9.011310e+00 
3.961970e+00 8.888018e+00 
3.997360e+00 8.766514e+00 
4.031670e+00 8.651135e+00 
4.066330e+00 8.536449e+00 
4.101420e+00 8.422787e+00 
4.136200e+00 8.311512e+00 
4.170810e+00 8.203103e+00 
4.206250e+00 8.093830e+00 
4.241580e+00 7.987081e+00 
4.276300e+00 7.883803e+00 
4.310970e+00 7.782474e+00 
4.346120e+00 7.681574e+00 
4.380600e+00 7.584164e+00 
4.414730e+00 7.489627e+00 
4.450350e+00 7.392258e+00 
4.485320e+00 7.298580e+00 
4.519810e+00 7.207518e+00 
4.555430e+00 7.115102e+00 
4.590870e+00 7.024801e+00 
4.625480e+00 6.937974e+00 
4.659910e+00 6.853234e+00 
4.695230e+00 6.767460e+00 
4.729960e+00 6.684643e+00 
4.764450e+00 6.603714e+00 
4.799530e+00 6.522570e+00 
4.834910e+00 6.442266e+00 
4.869700e+00 6.364398e+00 
4.904370e+00 6.288154e+00 
4.939450e+00 6.212303e+00 
4.973940e+00 6.138789e+00 
5.008430e+00 6.066583e+00 
5.043810e+00 5.993572e+00 
5.078840e+00 5.922424e+00 
5.113500e+00 5.853271e+00 
5.148890e+00 5.783501e+00 
5.184210e+00 5.715084e+00 
5.219060e+00 5.648687e+00 
5.253660e+00 5.583702e+00 
5.288570e+00 5.519257e+00 
5.323420e+00 5.455880e+00 
5.358440e+00 5.393121e+00 
5.393590e+00 5.331198e+00 
5.428310e+00 5.270875e+00 
5.462800e+00 5.211846e+00 
5.497640e+00 5.153202e+00 
5.532670e+00 5.095035e+00 
5.567280e+00 5.038451e+00 
5.602000e+00 4.982608e+00 
5.637270e+00 4.926641e+00 
5.672410e+00 4.871752e+00 
5.707020e+00 4.818561e+00 
5.742040e+00 4.765466e+00 
5.777430e+00 4.712645e+00 
5.812210e+00 4.661561e+00 
5.846820e+00 4.611385e+00 
5.881610e+00 4.561699e+00 
5.916510e+00 4.512632e+00 
5.951600e+00 4.463951e+00 
5.986560e+00 4.416152e+00 
6.021830e+00 4.368673e+00 
6.056490e+00 4.322677e+00 
6.091160e+00 4.277319e+00 
6.125830e+00 4.232643e+00 
6.161090e+00 4.187866e+00 
6.195760e+00 4.144443e+00 
6.230420e+00 4.101676e+00 
6.265690e+00 4.058798e+00 
6.300950e+00 4.016481e+00 
6.335620e+00 3.975483e+00 
6.370880e+00 3.934399e+00 
6.405550e+00 3.894559e+00 
6.440220e+00 3.855278e+00 
6.475480e+00 3.815906e+00 
6.510150e+00 3.777731e+00 
6.544810e+00 3.740068e+00 
6.580080e+00 3.702288e+00 
6.614750e+00 3.665676e+00 
6.649410e+00 3.629568e+00 
6.684080e+00 3.593948e+00 
6.719340e+00 3.558228e+00 
6.754010e+00 3.523590e+00 
6.788680e+00 3.489418e+00 
6.823940e+00 3.455143e+00 
6.859800e+00 3.420770e+00 
6.894470e+00 3.387984e+00 
6.929140e+00 3.355636e+00 
6.963800e+00 3.323730e+00 
6.999070e+00 3.291702e+00 
7.033730e+00 3.260669e+00 
7.068400e+00 3.230038e+00 
7.103660e+00 3.199298e+00 
7.138330e+00 3.169476e+00 
7.173600e+00 3.139544e+00 
7.208260e+00 3.110515e+00 
7.243530e+00 3.081360e+00 
7.277600e+00 3.053563e+00 
7.312860e+00 3.025165e+00 
7.348120e+00 2.997135e+00 
7.382790e+00 2.969928e+00 
7.417460e+00 2.943089e+00 
7.452720e+00 2.916152e+00 
7.487390e+00 2.890000e+00 
7.522650e+00 2.863739e+00 
7.557320e+00 2.838276e+00 
7.591990e+00 2.813143e+00 
7.627250e+00 2.787899e+00 
7.662510e+00 2.762970e+00 
7.697180e+00 2.738790e+00 
7.731850e+00 2.714916e+00 
7.766510e+00 2.691337e+00 
7.801180e+00 2.668037e+00 
7.836440e+00 2.644655e+00 
7.871110e+00 2.621961e+00 
7.906380e+00 2.599150e+00 
7.941040e+00 2.577003e+00 
7.976310e+00 2.554750e+00 
8.011570e+00 2.532789e+00 
8.046240e+00 2.511451e+00 
8.080900e+00 2.490367e+00 
8.115570e+00 2.469538e+00 
8.150830e+00 2.448658e+00 
8.185500e+00 2.428366e+00 
8.220770e+00 2.407961e+00 
8.255430e+00 2.388141e+00 
8.290100e+00 2.368582e+00 
8.324770e+00 2.349250e+00 
8.359430e+00 2.330142e+00 
8.394700e+00 2.310918e+00 
8.429960e+00 2.291950e+00 
8.464630e+00 2.273542e+00 
8.499890e+00 2.255031e+00 
8.534560e+00 2.237033e+00 
8.569200e+00 2.219248e+00 
