# Parameters:
# omega_b = 0.022193, omega_m = 0.124409, n_s = 0.924016, h = 79.094488, w = -1.000000, sigma_8 = 0.794488
# z = 1.500000
#
# k[1/Mpc] # P(k):
8.694000e-04 6.460725e+03 
2.077466e-03 1.312269e+04 
3.285532e-03 1.798737e+04 
4.493598e-03 2.147364e+04 
5.701664e-03 2.385823e+04 
6.909730e-03 2.536788e+04 
8.117797e-03 2.622399e+04 
9.325863e-03 2.654183e+04 
1.053393e-02 2.642980e+04 
1.174199e-02 2.598235e+04 
1.295006e-02 2.526055e+04 
1.415813e-02 2.434197e+04 
1.536619e-02 2.329081e+04 
1.657426e-02 2.215000e+04 
1.778233e-02 2.095820e+04 
1.899039e-02 1.976972e+04 
2.019846e-02 1.861256e+04 
2.140652e-02 1.750900e+04 
2.261459e-02 1.647106e+04 
2.382266e-02 1.551171e+04 
2.503072e-02 1.463810e+04 
2.623879e-02 1.385030e+04 
2.744685e-02 1.314746e+04 
2.865492e-02 1.252541e+04 
2.986299e-02 1.197718e+04 
3.100100e-02 1.152498e+04 
3.220400e-02 1.110643e+04 
3.288100e-02 1.089666e+04 
3.424300e-02 1.052011e+04 
3.555100e-02 1.020592e+04 
3.686000e-02 9.929353e+03 
3.795000e-02 9.720540e+03 
3.929100e-02 9.483539e+03 
4.039800e-02 9.297057e+03 
4.164000e-02 9.092916e+03 
4.294400e-02 8.873731e+03 
4.415000e-02 8.668323e+03 
4.542900e-02 8.436912e+03 
4.660900e-02 8.216965e+03 
4.782300e-02 7.972593e+03 
4.892900e-02 7.743235e+03 
5.031200e-02 7.445092e+03 
5.155900e-02 7.166660e+03 
5.238100e-02 6.980705e+03 
5.378200e-02 6.662590e+03 
5.513400e-02 6.356256e+03 
5.627600e-02 6.101324e+03 
5.735300e-02 5.866456e+03 
5.870100e-02 5.582352e+03 
5.988700e-02 5.343892e+03 
6.113500e-02 5.106169e+03 
6.225900e-02 4.906062e+03 
6.340100e-02 4.717957e+03 
6.480200e-02 4.508050e+03 
6.601100e-02 4.348600e+03 
6.725500e-02 4.204219e+03 
6.829100e-02 4.100078e+03 
6.958600e-02 3.985320e+03 
7.071100e-02 3.899985e+03 
7.192300e-02 3.820082e+03 
7.307400e-02 3.754017e+03 
7.412300e-02 3.700648e+03 
7.550400e-02 3.639054e+03 
7.663100e-02 3.593446e+03 
7.791200e-02 3.545709e+03 
7.912700e-02 3.501820e+03 
8.027600e-02 3.460253e+03 
8.138400e-02 3.419349e+03 
8.272200e-02 3.367642e+03 
8.406100e-02 3.312446e+03 
8.534100e-02 3.254350e+03 
8.653800e-02 3.195191e+03 
8.759800e-02 3.140090e+03 
8.900300e-02 3.062676e+03 
9.009000e-02 2.999190e+03 
9.113300e-02 2.935357e+03 
9.239600e-02 2.856741e+03 
9.358000e-02 2.781302e+03 
9.496100e-02 2.691711e+03 
9.608400e-02 2.619543e+03 
9.727500e-02 2.544243e+03 
9.852600e-02 2.466483e+03 
9.973800e-02 2.394188e+03 
1.009000e-01 2.327563e+03 
1.020900e-01 2.264026e+03 
1.034000e-01 2.198344e+03 
1.046000e-01 2.142198e+03 
1.057200e-01 2.095672e+03 
1.069100e-01 2.049379e+03 
1.082500e-01 2.003920e+03 
1.093900e-01 1.969719e+03 
1.105400e-01 1.938053e+03 
1.116900e-01 1.911617e+03 
1.129600e-01 1.884602e+03 
1.142000e-01 1.862300e+03 
1.153300e-01 1.843410e+03 
1.166400e-01 1.823508e+03 
1.177800e-01 1.807026e+03 
1.190000e-01 1.790012e+03 
1.201200e-01 1.773719e+03 
1.213400e-01 1.756209e+03 
1.227100e-01 1.733930e+03 
1.238900e-01 1.714383e+03 
1.250700e-01 1.692493e+03 
1.263200e-01 1.668650e+03 
1.275500e-01 1.643084e+03 
1.287500e-01 1.617408e+03 
1.299900e-01 1.589420e+03 
1.311300e-01 1.563306e+03 
1.323500e-01 1.534530e+03 
1.335900e-01 1.505405e+03 
1.347100e-01 1.478930e+03 
1.359800e-01 1.449480e+03 
1.372100e-01 1.421345e+03 
1.384300e-01 1.394236e+03 
1.395700e-01 1.369731e+03 
1.407700e-01 1.344634e+03 
1.420300e-01 1.319819e+03 
1.432800e-01 1.295803e+03 
1.444500e-01 1.275100e+03 
1.456300e-01 1.254680e+03 
1.468900e-01 1.234454e+03 
1.480500e-01 1.216560e+03 
1.491700e-01 1.200189e+03 
1.503800e-01 1.183569e+03 
1.516400e-01 1.166838e+03 
1.528200e-01 1.152412e+03 
1.540200e-01 1.138028e+03 
1.551900e-01 1.124925e+03 
1.564300e-01 1.111463e+03 
1.576600e-01 1.098583e+03 
1.588700e-01 1.086409e+03 
1.600900e-01 1.074371e+03 
1.612700e-01 1.063029e+03 
1.625400e-01 1.051050e+03 
1.637600e-01 1.039597e+03 
1.649500e-01 1.028534e+03 
1.662200e-01 1.016864e+03 
1.674000e-01 1.005778e+03 
1.685000e-01 9.956184e+02 
1.697500e-01 9.839372e+02 
1.710300e-01 9.718638e+02 
1.722200e-01 9.608446e+02 
1.734400e-01 9.491043e+02 
1.746400e-01 9.377375e+02 
1.758700e-01 9.261265e+02 
1.770900e-01 9.144741e+02 
1.782700e-01 9.034043e+02 
1.794600e-01 8.922527e+02 
1.807000e-01 8.807177e+02 
1.819100e-01 8.696648e+02 
1.830100e-01 8.597290e+02 
1.842200e-01 8.489740e+02 
1.855000e-01 8.378084e+02 
1.867000e-01 8.276728e+02 
1.879200e-01 8.175459e+02 
1.890900e-01 8.080420e+02 
1.902800e-01 7.987620e+02 
1.915200e-01 7.892547e+02 
1.926900e-01 7.805131e+02 
1.939000e-01 7.718805e+02 
1.951700e-01 7.629703e+02 
1.963100e-01 7.551846e+02 
1.975100e-01 7.473395e+02 
1.987800e-01 7.391700e+02 
2.000100e-01 7.314570e+02 
2.012500e-01 7.239696e+02 
2.023400e-01 7.174850e+02 
2.036100e-01 7.100692e+02 
2.048900e-01 7.028201e+02 
2.060400e-01 6.964052e+02 
2.072200e-01 6.899198e+02 
2.084200e-01 6.834508e+02 
2.096900e-01 6.767073e+02 
2.109200e-01 6.702747e+02 
2.121100e-01 6.640954e+02 
2.132700e-01 6.581542e+02 
2.145200e-01 6.518439e+02 
2.157200e-01 6.458191e+02 
2.168800e-01 6.400509e+02 
2.180700e-01 6.342154e+02 
2.193400e-01 6.280446e+02 
2.206000e-01 6.219522e+02 
2.217500e-01 6.164695e+02 
2.229500e-01 6.108263e+02 
2.241400e-01 6.052361e+02 
2.253500e-01 5.996286e+02 
2.264900e-01 5.944165e+02 
2.277100e-01 5.888957e+02 
2.289900e-01 5.831657e+02 
2.301500e-01 5.780445e+02 
2.313600e-01 5.727737e+02 
2.325600e-01 5.676157e+02 
2.337700e-01 5.624845e+02 
2.350000e-01 5.573391e+02 
2.362000e-01 5.523973e+02 
2.374100e-01 5.474932e+02 
2.386500e-01 5.425345e+02 
2.399100e-01 5.375642e+02 
2.410400e-01 5.332064e+02 
2.422500e-01 5.286038e+02 
2.435000e-01 5.239115e+02 
2.447300e-01 5.193654e+02 
2.458700e-01 5.152469e+02 
2.470600e-01 5.110002e+02 
2.483300e-01 5.065260e+02 
2.495600e-01 5.022700e+02 
2.507600e-01 4.981984e+02 
2.519600e-01 4.941768e+02 
2.532200e-01 4.900071e+02 
2.543700e-01 4.862704e+02 
2.555500e-01 4.824966e+02 
2.568000e-01 4.785475e+02 
2.580100e-01 4.747717e+02 
2.592400e-01 4.709992e+02 
2.604100e-01 4.674615e+02 
2.616100e-01 4.638754e+02 
2.628400e-01 4.602432e+02 
2.640600e-01 4.566946e+02 
2.652200e-01 4.533638e+02 
2.664300e-01 4.499291e+02 
2.676500e-01 4.465063e+02 
2.688400e-01 4.432071e+02 
2.700700e-01 4.398370e+02 
2.712400e-01 4.366676e+02 
2.724800e-01 4.333467e+02 
2.736700e-01 4.301974e+02 
2.748800e-01 4.270325e+02 
2.761000e-01 4.238775e+02 
2.773200e-01 4.207581e+02 
2.785400e-01 4.176725e+02 
2.797000e-01 4.147680e+02 
2.808900e-01 4.118204e+02 
2.821400e-01 4.087586e+02 
2.833900e-01 4.057312e+02 
2.845500e-01 4.029473e+02 
2.857800e-01 4.000271e+02 
2.870300e-01 3.970924e+02 
2.882100e-01 3.943521e+02 
2.893900e-01 3.916398e+02 
2.906300e-01 3.888196e+02 
2.918900e-01 3.859856e+02 
2.930500e-01 3.834043e+02 
2.942500e-01 3.807613e+02 
2.954200e-01 3.782107e+02 
2.966500e-01 3.755572e+02 
2.978900e-01 3.729107e+02 
2.990400e-01 3.704816e+02 
3.002700e-01 3.679111e+02 
3.015100e-01 3.653475e+02 
3.026800e-01 3.629535e+02 
3.038500e-01 3.605833e+02 
3.050300e-01 3.582166e+02 
3.062600e-01 3.557777e+02 
3.075000e-01 3.533444e+02 
3.087000e-01 3.510136e+02 
3.099100e-01 3.486869e+02 
3.111200e-01 3.463862e+02 
3.123100e-01 3.441504e+02 
3.135300e-01 3.418809e+02 
3.147300e-01 3.396708e+02 
3.159900e-01 3.373734e+02 
3.171800e-01 3.352296e+02 
3.183700e-01 3.331092e+02 
3.196300e-01 3.308862e+02 
3.208400e-01 3.287727e+02 
3.220300e-01 3.267140e+02 
3.232000e-01 3.247151e+02 
3.244300e-01 3.226361e+02 
3.256700e-01 3.205606e+02 
3.269200e-01 3.184889e+02 
3.280800e-01 3.165846e+02 
3.292500e-01 3.146887e+02 
3.304800e-01 3.127166e+02 
3.317100e-01 3.107632e+02 
3.328900e-01 3.089068e+02 
3.340700e-01 3.070672e+02 
3.353600e-01 3.050828e+02 
3.365300e-01 3.033028e+02 
3.377100e-01 3.015237e+02 
3.389200e-01 2.997158e+02 
3.401600e-01 2.978803e+02 
3.413700e-01 2.961119e+02 
3.425300e-01 2.944360e+02 
3.437700e-01 2.926605e+02 
3.449800e-01 2.909437e+02 
3.461800e-01 2.892564e+02 
3.473600e-01 2.876146e+02 
3.485800e-01 2.859392e+02 
3.498100e-01 2.842653e+02 
3.510200e-01 2.826332e+02 
3.522000e-01 2.810555e+02 
3.533900e-01 2.794780e+02 
3.546400e-01 2.778437e+02 
3.558400e-01 2.762890e+02 
3.570600e-01 2.747221e+02 
3.582700e-01 2.731816e+02 
3.595000e-01 2.716292e+02 
3.607100e-01 2.701197e+02 
3.618900e-01 2.686635e+02 
3.631200e-01 2.671584e+02 
3.643200e-01 2.657027e+02 
3.655500e-01 2.642232e+02 
3.667300e-01 2.628157e+02 
3.679500e-01 2.613809e+02 
3.691900e-01 2.599349e+02 
3.703600e-01 2.585820e+02 
3.715700e-01 2.571942e+02 
3.727700e-01 2.558292e+02 
3.739900e-01 2.544553e+02 
3.752000e-01 2.531082e+02 
3.763900e-01 2.517941e+02 
3.775800e-01 2.504905e+02 
3.788200e-01 2.491434e+02 
3.800300e-01 2.478396e+02 
3.812100e-01 2.465817e+02 
3.824200e-01 2.453042e+02 
3.836100e-01 2.440579e+02 
3.848600e-01 2.427593e+02 
3.860400e-01 2.415433e+02 
3.872400e-01 2.403164e+02 
3.884600e-01 2.390832e+02 
3.896500e-01 2.378914e+02 
3.908700e-01 2.366791e+02 
3.920600e-01 2.355060e+02 
3.933100e-01 2.342834e+02 
3.945300e-01 2.330997e+02 
3.957200e-01 2.319579e+02 
3.969300e-01 2.308071e+02 
3.981700e-01 2.296369e+02 
3.993500e-01 2.285320e+02 
4.094840e-01 2.194005e+02 
4.272360e-01 2.048332e+02 
4.454600e-01 1.915160e+02 
4.630560e-01 1.800082e+02 
4.804610e-01 1.697625e+02 
4.980690e-01 1.604004e+02 
5.159230e-01 1.518050e+02 
5.317440e-01 1.448535e+02 
5.489640e-01 1.379188e+02 
5.671990e-01 1.312118e+02 
5.838690e-01 1.255843e+02 
6.018840e-01 1.199849e+02 
6.202330e-01 1.147476e+02 
6.379250e-01 1.100820e+02 
6.545410e-01 1.060235e+02 
6.714560e-01 1.021691e+02 
6.892080e-01 9.840256e+01 
7.066010e-01 9.496549e+01 
7.240540e-01 9.173661e+01 
7.420450e-01 8.862867e+01 
7.593780e-01 8.582308e+01 
7.764720e-01 8.321856e+01 
7.942840e-01 8.066416e+01 
8.116170e-01 7.832393e+01 
8.288310e-01 7.613015e+01 
8.462240e-01 7.403375e+01 
8.631980e-01 7.209451e+01 
8.810700e-01 7.015766e+01 
8.989410e-01 6.832046e+01 
9.166330e-01 6.659360e+01 
9.345640e-01 6.493051e+01 
9.515980e-01 6.342447e+01 
9.688720e-01 6.196515e+01 
9.865640e-01 6.053878e+01 
1.031870e+00 5.715947e+01 
1.063490e+00 5.501047e+01 
1.097920e+00 5.284340e+01 
1.134370e+00 5.071865e+01 
1.167730e+00 4.891252e+01 
1.203830e+00 4.708862e+01 
1.240470e+00 4.536309e+01 
1.275790e+00 4.380689e+01 
1.309140e+00 4.242586e+01 
1.342970e+00 4.110063e+01 
1.378420e+00 3.979127e+01 
1.413200e+00 3.857756e+01 
1.448110e+00 3.742269e+01 
1.484090e+00 3.629484e+01 
1.518820e+00 3.526071e+01 
1.552880e+00 3.429528e+01 
1.588630e+00 3.332897e+01 
1.623230e+00 3.243787e+01 
1.657720e+00 3.158838e+01 
1.692450e+00 3.077128e+01 
1.726400e+00 3.000513e+01 
1.762200e+00 2.923013e+01 
1.797880e+00 2.849070e+01 
1.833270e+00 2.778756e+01 
1.869070e+00 2.710402e+01 
1.903200e+00 2.647777e+01 
1.937740e+00 2.586751e+01 
1.973190e+00 2.526432e+01 
2.007440e+00 2.470286e+01 
2.042160e+00 2.415355e+01 
2.077900e+00 2.360785e+01 
2.112390e+00 2.309983e+01 
2.146220e+00 2.261740e+01 
2.181600e+00 2.213000e+01 
2.216930e+00 2.165913e+01 
2.250760e+00 2.122278e+01 
2.286500e+00 2.077653e+01 
2.321770e+00 2.035018e+01 
2.355950e+00 1.994998e+01 
2.391280e+00 1.954778e+01 
2.426240e+00 1.916193e+01 
2.460670e+00 1.879346e+01 
2.495640e+00 1.843048e+01 
2.531080e+00 1.807266e+01 
2.566220e+00 1.772781e+01 
2.600830e+00 1.739794e+01 
2.635080e+00 1.708083e+01 
2.670340e+00 1.676238e+01 
2.705970e+00 1.644968e+01 
2.740040e+00 1.615892e+01 
2.774520e+00 1.587194e+01 
2.809730e+00 1.558625e+01 
2.844390e+00 1.531257e+01 
2.879960e+00 1.503892e+01 
2.914860e+00 1.477697e+01 
2.949410e+00 1.452439e+01 
2.984440e+00 1.427431e+01 
3.019760e+00 1.402832e+01 
3.054730e+00 1.379102e+01 
3.089030e+00 1.356321e+01 
3.124060e+00 1.333638e+01 
3.159560e+00 1.311201e+01 
3.194710e+00 1.289493e+01 
3.229010e+00 1.268835e+01 
3.263320e+00 1.248545e+01 
3.297930e+00 1.228575e+01 
3.332830e+00 1.208883e+01 
3.368040e+00 1.189463e+01 
3.403300e+00 1.170468e+01 
3.438450e+00 1.151921e+01 
3.473060e+00 1.134098e+01 
3.508440e+00 1.116203e+01 
3.543110e+00 1.099087e+01 
3.577470e+00 1.082450e+01 
3.613040e+00 1.065619e+01 
3.648120e+00 1.049342e+01 
3.682910e+00 1.033551e+01 
3.718050e+00 1.017913e+01 
3.753320e+00 1.002553e+01 
3.787980e+00 9.877583e+00 
3.822290e+00 9.734144e+00 
3.857020e+00 9.591722e+00 
3.891920e+00 9.451529e+00 
3.926650e+00 9.314564e+00 
3.961970e+00 9.178203e+00 
3.997360e+00 9.044146e+00 
4.031670e+00 8.916923e+00 
4.066330e+00 8.790637e+00 
4.101420e+00 8.665538e+00 
4.136200e+00 8.543422e+00 
4.170810e+00 8.424499e+00 
4.206250e+00 8.304872e+00 
4.241580e+00 8.188091e+00 
4.276300e+00 8.075335e+00 
4.310970e+00 7.964849e+00 
4.346120e+00 7.854951e+00 
4.380600e+00 7.749024e+00 
4.414730e+00 7.646266e+00 
4.450350e+00 7.540708e+00 
4.485320e+00 7.439190e+00 
4.519810e+00 7.340706e+00 
4.555430e+00 7.240868e+00 
4.590870e+00 7.143404e+00 
4.625480e+00 7.049831e+00 
4.659910e+00 6.958542e+00 
4.695230e+00 6.866401e+00 
4.729960e+00 6.777504e+00 
4.764450e+00 6.690741e+00 
4.799530e+00 6.603907e+00 
4.834910e+00 6.518002e+00 
4.869700e+00 6.434871e+00 
4.904370e+00 6.353524e+00 
4.939450e+00 6.272670e+00 
4.973940e+00 6.194456e+00 
5.008430e+00 6.117659e+00 
5.043810e+00 6.040132e+00 
5.078840e+00 5.964668e+00 
5.113500e+00 5.891344e+00 
5.148890e+00 5.817575e+00 
5.184210e+00 5.745270e+00 
5.219060e+00 5.675156e+00 
5.253660e+00 5.606657e+00 
5.288570e+00 5.538746e+00 
5.323420e+00 5.472040e+00 
5.358440e+00 5.406068e+00 
5.393590e+00 5.340995e+00 
5.428310e+00 5.277726e+00 
5.462800e+00 5.215887e+00 
5.497640e+00 5.154470e+00 
5.532670e+00 5.093678e+00 
5.567280e+00 5.034592e+00 
5.602000e+00 4.976296e+00 
5.637270e+00 4.917976e+00 
5.672410e+00 4.860814e+00 
5.707020e+00 4.805435e+00 
5.742040e+00 4.750280e+00 
5.777430e+00 4.695446e+00 
5.812210e+00 4.642428e+00 
5.846820e+00 4.590433e+00 
5.881610e+00 4.538975e+00 
5.916510e+00 4.488171e+00 
5.951600e+00 4.437861e+00 
5.986560e+00 4.388509e+00 
6.021830e+00 4.339501e+00 
6.056490e+00 4.292094e+00 
6.091160e+00 4.245406e+00 
6.125830e+00 4.199429e+00 
6.161090e+00 4.153380e+00 
6.195760e+00 4.108780e+00 
6.230420e+00 4.064863e+00 
6.265690e+00 4.020847e+00 
6.300950e+00 3.977519e+00 
6.335620e+00 3.935551e+00 
6.370880e+00 3.893503e+00 
6.405550e+00 3.852777e+00 
6.440220e+00 3.812649e+00 
6.475480e+00 3.772434e+00 
6.510150e+00 3.733476e+00 
6.544810e+00 3.695109e+00 
6.580080e+00 3.656628e+00 
6.614750e+00 3.619345e+00 
6.649410e+00 3.582633e+00 
6.684080e+00 3.546435e+00 
6.719340e+00 3.510140e+00 
6.754010e+00 3.474973e+00 
6.788680e+00 3.440337e+00 
6.823940e+00 3.405603e+00 
6.859800e+00 3.370775e+00 
6.894470e+00 3.337603e+00 
6.929140e+00 3.304895e+00 
6.963800e+00 3.272640e+00 
6.999070e+00 3.240267e+00 
7.033730e+00 3.208952e+00 
7.068400e+00 3.178046e+00 
7.103660e+00 3.147036e+00 
7.138330e+00 3.116971e+00 
7.173600e+00 3.086831e+00 
7.208260e+00 3.057604e+00 
7.243530e+00 3.028255e+00 
7.277600e+00 3.000302e+00 
7.312860e+00 2.971773e+00 
7.348120e+00 2.943619e+00 
7.382790e+00 2.916293e+00 
7.417460e+00 2.889380e+00 
7.452720e+00 2.862393e+00 
7.487390e+00 2.836197e+00 
7.522650e+00 2.809893e+00 
7.557320e+00 2.784412e+00 
7.591990e+00 2.759271e+00 
7.627250e+00 2.734022e+00 
7.662510e+00 2.709092e+00 
7.697180e+00 2.684942e+00 
7.731850e+00 2.661110e+00 
7.766510e+00 2.637577e+00 
7.801180e+00 2.614323e+00 
7.836440e+00 2.591008e+00 
7.871110e+00 2.568390e+00 
7.906380e+00 2.545659e+00 
7.941040e+00 2.523591e+00 
7.976310e+00 2.501437e+00 
8.011570e+00 2.479598e+00 
8.046240e+00 2.458379e+00 
8.080900e+00 2.437415e+00 
8.115570e+00 2.416711e+00 
8.150830e+00 2.395976e+00 
8.185500e+00 2.375826e+00 
8.220770e+00 2.355567e+00 
8.255430e+00 2.335889e+00 
8.290100e+00 2.316505e+00 
8.324770e+00 2.297350e+00 
8.359430e+00 2.278419e+00 
8.394700e+00 2.259374e+00 
8.429960e+00 2.240597e+00 
8.464630e+00 2.222388e+00 
8.499890e+00 2.204077e+00 
8.534560e+00 2.186274e+00 
8.569200e+00 2.168685e+00 
