# Parameters:
# omega_b = 0.021626, omega_m = 0.126339, n_s = 1.021654, h = 55.000000, w = -1.000000, sigma_8 = 0.825984
# z = 1.500000
#
# k[1/Mpc] # P(k):
8.694000e-04 5.080984e+03 
2.077466e-03 1.126081e+04 
3.285532e-03 1.619928e+04 
4.493598e-03 2.001886e+04 
5.701664e-03 2.286349e+04 
6.909730e-03 2.487254e+04 
8.117797e-03 2.621580e+04 
9.325863e-03 2.698342e+04 
1.053393e-02 2.727203e+04 
1.174199e-02 2.717404e+04 
1.295006e-02 2.674642e+04 
1.415813e-02 2.606698e+04 
1.536619e-02 2.520670e+04 
1.657426e-02 2.421384e+04 
1.778233e-02 2.312908e+04 
1.899039e-02 2.201222e+04 
2.019846e-02 2.089679e+04 
2.140652e-02 1.981130e+04 
2.261459e-02 1.877177e+04 
2.382266e-02 1.779615e+04 
2.503072e-02 1.689674e+04 
2.623879e-02 1.607740e+04 
2.744685e-02 1.533996e+04 
2.865492e-02 1.468320e+04 
2.986299e-02 1.410197e+04 
3.100100e-02 1.362159e+04 
3.220400e-02 1.317694e+04 
3.288100e-02 1.295446e+04 
3.424300e-02 1.255623e+04 
3.555100e-02 1.222555e+04 
3.686000e-02 1.193625e+04 
3.795000e-02 1.171897e+04 
3.929100e-02 1.147351e+04 
4.039800e-02 1.128081e+04 
4.164000e-02 1.106953e+04 
4.294400e-02 1.084128e+04 
4.415000e-02 1.062595e+04 
4.542900e-02 1.038064e+04 
4.660900e-02 1.014536e+04 
4.782300e-02 9.880116e+03 
4.892900e-02 9.628814e+03 
5.031200e-02 9.298645e+03 
5.155900e-02 8.986444e+03 
5.238100e-02 8.776518e+03 
5.378200e-02 8.416159e+03 
5.513400e-02 8.070897e+03 
5.627600e-02 7.788586e+03 
5.735300e-02 7.536298e+03 
5.870100e-02 7.246196e+03 
5.988700e-02 7.018173e+03 
6.113500e-02 6.804979e+03 
6.225900e-02 6.634325e+03 
6.340100e-02 6.476189e+03 
6.480200e-02 6.295077e+03 
6.601100e-02 6.146149e+03 
6.725500e-02 5.996625e+03 
6.829100e-02 5.875253e+03 
6.958600e-02 5.728507e+03 
7.071100e-02 5.607404e+03 
7.192300e-02 5.484709e+03 
7.307400e-02 5.376231e+03 
7.412300e-02 5.284287e+03 
7.550400e-02 5.173659e+03 
7.663100e-02 5.090262e+03 
7.791200e-02 5.003353e+03 
7.912700e-02 4.926444e+03 
8.027600e-02 4.857134e+03 
8.138400e-02 4.792500e+03 
8.272200e-02 4.716173e+03 
8.406100e-02 4.640331e+03 
8.534100e-02 4.566332e+03 
8.653800e-02 4.494863e+03 
8.759800e-02 4.430149e+03 
8.900300e-02 4.341520e+03 
9.009000e-02 4.270121e+03 
9.113300e-02 4.198820e+03 
9.239600e-02 4.111051e+03 
9.358000e-02 4.026563e+03 
9.496100e-02 3.925140e+03 
9.608400e-02 3.842460e+03 
9.727500e-02 3.755284e+03 
9.852600e-02 3.662916e+03 
9.973800e-02 3.575561e+03 
1.009000e-01 3.493811e+03 
1.020900e-01 3.412756e+03 
1.034000e-01 3.327157e+03 
1.046000e-01 3.252099e+03 
1.057200e-01 3.186586e+03 
1.069100e-01 3.120041e+03 
1.082500e-01 3.050744e+03 
1.093900e-01 2.995975e+03 
1.105400e-01 2.943614e+03 
1.116900e-01 2.896160e+03 
1.129600e-01 2.846367e+03 
1.142000e-01 2.802113e+03 
1.153300e-01 2.763871e+03 
1.166400e-01 2.722319e+03 
1.177800e-01 2.688179e+03 
1.190000e-01 2.653044e+03 
1.201200e-01 2.621928e+03 
1.213400e-01 2.588899e+03 
1.227100e-01 2.552176e+03 
1.238900e-01 2.521054e+03 
1.250700e-01 2.489648e+03 
1.263200e-01 2.456629e+03 
1.275500e-01 2.423727e+03 
1.287500e-01 2.391670e+03 
1.299900e-01 2.358199e+03 
1.311300e-01 2.327455e+03 
1.323500e-01 2.294286e+03 
1.335900e-01 2.260777e+03 
1.347100e-01 2.230423e+03 
1.359800e-01 2.196419e+03 
1.372100e-01 2.163547e+03 
1.384300e-01 2.131495e+03 
1.395700e-01 2.101747e+03 
1.407700e-01 2.071083e+03 
1.420300e-01 2.039370e+03 
1.432800e-01 2.008623e+03 
1.444500e-01 1.980543e+03 
1.456300e-01 1.952816e+03 
1.468900e-01 1.924132e+03 
1.480500e-01 1.898368e+03 
1.491700e-01 1.874209e+03 
1.503800e-01 1.848916e+03 
1.516400e-01 1.823249e+03 
1.528200e-01 1.800228e+03 
1.540200e-01 1.777278e+03 
1.551900e-01 1.755815e+03 
1.564300e-01 1.733628e+03 
1.576600e-01 1.712283e+03 
1.588700e-01 1.691964e+03 
1.600900e-01 1.671885e+03 
1.612700e-01 1.653134e+03 
1.625400e-01 1.633334e+03 
1.637600e-01 1.614742e+03 
1.649500e-01 1.596978e+03 
1.662200e-01 1.578358e+03 
1.674000e-01 1.561296e+03 
1.685000e-01 1.545661e+03 
1.697500e-01 1.528081e+03 
1.710300e-01 1.510294e+03 
1.722200e-01 1.494056e+03 
1.734400e-01 1.477422e+03 
1.746400e-01 1.461335e+03 
1.758700e-01 1.445044e+03 
1.770900e-01 1.428983e+03 
1.782700e-01 1.413715e+03 
1.794600e-01 1.398463e+03 
1.807000e-01 1.382765e+03 
1.819100e-01 1.367710e+03 
1.830100e-01 1.354171e+03 
1.842200e-01 1.339503e+03 
1.855000e-01 1.324256e+03 
1.867000e-01 1.310257e+03 
1.879200e-01 1.296259e+03 
1.890900e-01 1.283071e+03 
1.902800e-01 1.269971e+03 
1.915200e-01 1.256542e+03 
1.926900e-01 1.244121e+03 
1.939000e-01 1.231628e+03 
1.951700e-01 1.218727e+03 
1.963100e-01 1.207384e+03 
1.975100e-01 1.195771e+03 
1.987800e-01 1.183674e+03 
2.000100e-01 1.172199e+03 
2.012500e-01 1.160937e+03 
2.023400e-01 1.151181e+03 
2.036100e-01 1.140006e+03 
2.048900e-01 1.129023e+03 
2.060400e-01 1.119301e+03 
2.072200e-01 1.109471e+03 
2.084200e-01 1.099676e+03 
2.096900e-01 1.089462e+03 
2.109200e-01 1.079718e+03 
2.121100e-01 1.070405e+03 
2.132700e-01 1.061453e+03 
2.145200e-01 1.051941e+03 
2.157200e-01 1.042891e+03 
2.168800e-01 1.034238e+03 
2.180700e-01 1.025483e+03 
2.193400e-01 1.016220e+03 
2.206000e-01 1.007070e+03 
2.217500e-01 9.988330e+02 
2.229500e-01 9.903524e+02 
2.241400e-01 9.818861e+02 
2.253500e-01 9.733896e+02 
2.264900e-01 9.654901e+02 
2.277100e-01 9.570528e+02 
2.289900e-01 9.482184e+02 
2.301500e-01 9.403207e+02 
2.313600e-01 9.321890e+02 
2.325600e-01 9.240458e+02 
2.337700e-01 9.159437e+02 
2.350000e-01 9.078180e+02 
2.362000e-01 8.999214e+02 
2.374100e-01 8.919762e+02 
2.386500e-01 8.839424e+02 
2.399100e-01 8.758895e+02 
2.410400e-01 8.686760e+02 
2.422500e-01 8.610385e+02 
2.435000e-01 8.532525e+02 
2.447300e-01 8.456864e+02 
2.458700e-01 8.387381e+02 
2.470600e-01 8.315745e+02 
2.483300e-01 8.240284e+02 
2.495600e-01 8.168302e+02 
2.507600e-01 8.099163e+02 
2.519600e-01 8.030884e+02 
2.532200e-01 7.960103e+02 
2.543700e-01 7.896848e+02 
2.555500e-01 7.833085e+02 
2.568000e-01 7.766372e+02 
2.580100e-01 7.702595e+02 
2.592400e-01 7.639510e+02 
2.604100e-01 7.580635e+02 
2.616100e-01 7.520958e+02 
2.628400e-01 7.460522e+02 
2.640600e-01 7.402375e+02 
2.652200e-01 7.348152e+02 
2.664300e-01 7.292239e+02 
2.676500e-01 7.236520e+02 
2.688400e-01 7.183627e+02 
2.700700e-01 7.130100e+02 
2.712400e-01 7.079759e+02 
2.724800e-01 7.027007e+02 
2.736700e-01 6.977555e+02 
2.748800e-01 6.928443e+02 
2.761000e-01 6.879478e+02 
2.773200e-01 6.831060e+02 
2.785400e-01 6.783447e+02 
2.797000e-01 6.739224e+02 
2.808900e-01 6.694337e+02 
2.821400e-01 6.647701e+02 
2.833900e-01 6.601608e+02 
2.845500e-01 6.559810e+02 
2.857800e-01 6.515955e+02 
2.870300e-01 6.471872e+02 
2.882100e-01 6.430700e+02 
2.893900e-01 6.390187e+02 
2.906300e-01 6.348187e+02 
2.918900e-01 6.305968e+02 
2.930500e-01 6.267504e+02 
2.942500e-01 6.228155e+02 
2.954200e-01 6.190311e+02 
2.966500e-01 6.150930e+02 
2.978900e-01 6.111642e+02 
2.990400e-01 6.075571e+02 
3.002700e-01 6.037423e+02 
3.015100e-01 5.999382e+02 
3.026800e-01 5.963848e+02 
3.038500e-01 5.928657e+02 
3.050300e-01 5.893508e+02 
3.062600e-01 5.857255e+02 
3.075000e-01 5.821074e+02 
3.087000e-01 5.786408e+02 
3.099100e-01 5.751794e+02 
3.111200e-01 5.717527e+02 
3.123100e-01 5.684168e+02 
3.135300e-01 5.650298e+02 
3.147300e-01 5.617304e+02 
3.159900e-01 5.582999e+02 
3.171800e-01 5.550916e+02 
3.183700e-01 5.519135e+02 
3.196300e-01 5.485809e+02 
3.208400e-01 5.454114e+02 
3.220300e-01 5.423235e+02 
3.232000e-01 5.393176e+02 
3.244300e-01 5.361878e+02 
3.256700e-01 5.330627e+02 
3.269200e-01 5.299424e+02 
3.280800e-01 5.270734e+02 
3.292500e-01 5.242108e+02 
3.304800e-01 5.212306e+02 
3.317100e-01 5.182780e+02 
3.328900e-01 5.154712e+02 
3.340700e-01 5.126892e+02 
3.353600e-01 5.096829e+02 
3.365300e-01 5.069837e+02 
3.377100e-01 5.042852e+02 
3.389200e-01 5.015426e+02 
3.401600e-01 4.987573e+02 
3.413700e-01 4.960713e+02 
3.425300e-01 4.935237e+02 
3.437700e-01 4.908242e+02 
3.449800e-01 4.882134e+02 
3.461800e-01 4.856468e+02 
3.473600e-01 4.831490e+02 
3.485800e-01 4.805996e+02 
3.498100e-01 4.780518e+02 
3.510200e-01 4.755672e+02 
3.522000e-01 4.731647e+02 
3.533900e-01 4.707622e+02 
3.546400e-01 4.682742e+02 
3.558400e-01 4.659070e+02 
3.570600e-01 4.635208e+02 
3.582700e-01 4.611741e+02 
3.595000e-01 4.588089e+02 
3.607100e-01 4.565114e+02 
3.618900e-01 4.542968e+02 
3.631200e-01 4.520075e+02 
3.643200e-01 4.497926e+02 
3.655500e-01 4.475411e+02 
3.667300e-01 4.453989e+02 
3.679500e-01 4.432203e+02 
3.691900e-01 4.410244e+02 
3.703600e-01 4.389693e+02 
3.715700e-01 4.368609e+02 
3.727700e-01 4.347867e+02 
3.739900e-01 4.327012e+02 
3.752000e-01 4.306610e+02 
3.763900e-01 4.286703e+02 
3.775800e-01 4.266952e+02 
3.788200e-01 4.246536e+02 
3.800300e-01 4.226773e+02 
3.812100e-01 4.207747e+02 
3.824200e-01 4.188454e+02 
3.836100e-01 4.169628e+02 
3.848600e-01 4.150007e+02 
3.860400e-01 4.131630e+02 
3.872400e-01 4.113084e+02 
3.884600e-01 4.094494e+02 
3.896500e-01 4.076544e+02 
3.908700e-01 4.058282e+02 
3.920600e-01 4.040605e+02 
3.933100e-01 4.022180e+02 
3.945300e-01 4.004336e+02 
3.957200e-01 3.987198e+02 
3.969300e-01 3.969940e+02 
3.981700e-01 3.952390e+02 
3.993500e-01 3.935813e+02 
4.094840e-01 3.798849e+02 
4.272360e-01 3.581390e+02 
4.454600e-01 3.382487e+02 
4.630560e-01 3.209888e+02 
4.804610e-01 3.055008e+02 
4.980690e-01 2.912072e+02 
5.159230e-01 2.779192e+02 
5.317440e-01 2.670575e+02 
5.489640e-01 2.560852e+02 
5.671990e-01 2.453447e+02 
5.838690e-01 2.362542e+02 
6.018840e-01 2.271374e+02 
6.202330e-01 2.185349e+02 
6.379250e-01 2.108308e+02 
6.545410e-01 2.040903e+02 
6.714560e-01 1.976698e+02 
6.892080e-01 1.913737e+02 
7.066010e-01 1.856177e+02 
7.240540e-01 1.801895e+02 
7.420450e-01 1.749602e+02 
7.593780e-01 1.702267e+02 
7.764720e-01 1.658259e+02 
7.942840e-01 1.614959e+02 
8.116170e-01 1.575254e+02 
8.288310e-01 1.537889e+02 
8.462240e-01 1.502143e+02 
8.631980e-01 1.468941e+02 
8.810700e-01 1.435658e+02 
8.989410e-01 1.403921e+02 
9.166330e-01 1.373987e+02 
9.345640e-01 1.345083e+02 
9.515980e-01 1.318736e+02 
9.688720e-01 1.293058e+02 
9.865640e-01 1.267829e+02 
1.031870e+00 1.207419e+02 
1.063490e+00 1.168473e+02 
1.097920e+00 1.128747e+02 
1.134370e+00 1.089268e+02 
1.167730e+00 1.055284e+02 
1.203830e+00 1.020406e+02 
1.240470e+00 9.870260e+01 
1.275790e+00 9.565058e+01 
1.309140e+00 9.291225e+01 
1.342970e+00 9.024231e+01 
1.378420e+00 8.758203e+01 
1.413200e+00 8.508545e+01 
1.448110e+00 8.268635e+01 
1.484090e+00 8.031861e+01 
1.518820e+00 7.812601e+01 
1.552880e+00 7.605993e+01 
1.588630e+00 7.397527e+01 
1.623230e+00 7.203801e+01 
1.657720e+00 7.017488e+01 
1.692450e+00 6.837268e+01 
1.726400e+00 6.667116e+01 
1.762200e+00 6.493858e+01 
1.797880e+00 6.327369e+01 
1.833270e+00 6.168423e+01 
1.869070e+00 6.012981e+01 
1.903200e+00 5.869803e+01 
1.937740e+00 5.729818e+01 
1.973190e+00 5.590966e+01 
2.007440e+00 5.461316e+01 
2.042160e+00 5.333822e+01 
2.077900e+00 5.206755e+01 
2.112390e+00 5.088266e+01 
2.146220e+00 4.975381e+01 
2.181600e+00 4.861002e+01 
2.216930e+00 4.750234e+01 
2.250760e+00 4.647454e+01 
2.286500e+00 4.542202e+01 
2.321770e+00 4.441467e+01 
2.355950e+00 4.346855e+01 
2.391280e+00 4.251432e+01 
2.426240e+00 4.159855e+01 
2.460670e+00 4.072406e+01 
2.495640e+00 3.986255e+01 
2.531080e+00 3.901189e+01 
2.566220e+00 3.819128e+01 
2.600830e+00 3.740629e+01 
2.635080e+00 3.665197e+01 
2.670340e+00 3.589488e+01 
2.705970e+00 3.515124e+01 
2.740040e+00 3.445987e+01 
2.774520e+00 3.377782e+01 
2.809730e+00 3.309866e+01 
2.844390e+00 3.244857e+01 
2.879960e+00 3.179998e+01 
2.914860e+00 3.117915e+01 
2.949410e+00 3.058085e+01 
2.984440e+00 2.998909e+01 
3.019760e+00 2.940709e+01 
3.054730e+00 2.884596e+01 
3.089030e+00 2.830902e+01 
3.124060e+00 2.777503e+01 
3.159560e+00 2.724755e+01 
3.194710e+00 2.673788e+01 
3.229010e+00 2.625342e+01 
3.263320e+00 2.577858e+01 
3.297930e+00 2.531175e+01 
3.332830e+00 2.485210e+01 
3.368040e+00 2.439994e+01 
3.403300e+00 2.395864e+01 
3.438450e+00 2.352845e+01 
3.473060e+00 2.311550e+01 
3.508440e+00 2.270189e+01 
3.543110e+00 2.230693e+01 
3.577470e+00 2.192482e+01 
3.613040e+00 2.153858e+01 
3.648120e+00 2.116532e+01 
3.682910e+00 2.080411e+01 
3.718050e+00 2.044778e+01 
3.753320e+00 2.009831e+01 
3.787980e+00 1.976228e+01 
3.822290e+00 1.943720e+01 
3.857020e+00 1.911535e+01 
3.891920e+00 1.879915e+01 
3.926650e+00 1.849109e+01 
3.961970e+00 1.818507e+01 
3.997360e+00 1.788545e+01 
4.031670e+00 1.760147e+01 
4.066330e+00 1.732019e+01 
4.101420e+00 1.704186e+01 
4.136200e+00 1.677159e+01 
4.170810e+00 1.650864e+01 
4.206250e+00 1.624503e+01 
4.241580e+00 1.598806e+01 
4.276300e+00 1.574086e+01 
4.310970e+00 1.549924e+01 
4.346120e+00 1.525938e+01 
4.380600e+00 1.502882e+01 
4.414730e+00 1.480538e+01 
4.450350e+00 1.457704e+01 
4.485320e+00 1.435764e+01 
4.519810e+00 1.414564e+01 
4.555430e+00 1.393122e+01 
4.590870e+00 1.372224e+01 
4.625480e+00 1.352211e+01 
4.659910e+00 1.332704e+01 
4.695230e+00 1.313130e+01 
4.729960e+00 1.294276e+01 
4.764450e+00 1.275918e+01 
4.799530e+00 1.257607e+01 
4.834910e+00 1.239506e+01 
4.869700e+00 1.222066e+01 
4.904370e+00 1.205023e+01 
4.939450e+00 1.188116e+01 
4.973940e+00 1.171821e+01 
5.008430e+00 1.155834e+01 
5.043810e+00 1.139747e+01 
5.078840e+00 1.124123e+01 
5.113500e+00 1.108952e+01 
5.148890e+00 1.093781e+01 
5.184210e+00 1.078923e+01 
5.219060e+00 1.064540e+01 
5.253660e+00 1.050538e+01 
5.288570e+00 1.036665e+01 
5.323420e+00 1.023073e+01 
5.358440e+00 1.009666e+01 
5.393590e+00 9.964512e+00 
5.428310e+00 9.836543e+00 
5.462800e+00 9.711771e+00 
5.497640e+00 9.587922e+00 
5.532670e+00 9.465871e+00 
5.567280e+00 9.347459e+00 
5.602000e+00 9.230697e+00 
5.637270e+00 9.114291e+00 
5.672410e+00 9.000341e+00 
5.707020e+00 8.890001e+00 
5.742040e+00 8.780621e+00 
5.777430e+00 8.672026e+00 
5.812210e+00 8.567080e+00 
5.846820e+00 8.464501e+00 
5.881610e+00 8.363104e+00 
5.916510e+00 8.263043e+00 
5.951600e+00 8.164338e+00 
5.986560e+00 8.067708e+00 
6.021830e+00 7.971793e+00 
6.056490e+00 7.879282e+00 
6.091160e+00 7.788402e+00 
6.125830e+00 7.698944e+00 
6.161090e+00 7.609478e+00 
6.195760e+00 7.523063e+00 
6.230420e+00 7.438004e+00 
6.265690e+00 7.352800e+00 
6.300950e+00 7.269325e+00 
6.335620e+00 7.188500e+00 
6.370880e+00 7.107549e+00 
6.405550e+00 7.029350e+00 
6.440220e+00 6.952397e+00 
6.475480e+00 6.875305e+00 
6.510150e+00 6.800749e+00 
6.544810e+00 6.727574e+00 
6.580080e+00 6.654207e+00 
6.614750e+00 6.583144e+00 
6.649410e+00 6.513365e+00 
6.684080e+00 6.444614e+00 
6.719340e+00 6.375702e+00 
6.754010e+00 6.309034e+00 
6.788680e+00 6.243590e+00 
6.823940e+00 6.177976e+00 
6.859800e+00 6.112204e+00 
6.894470e+00 6.049703e+00 
6.929140e+00 5.988137e+00 
6.963800e+00 5.927438e+00 
6.999070e+00 5.866544e+00 
7.033730e+00 5.807805e+00 
7.068400e+00 5.749847e+00 
7.103660e+00 5.691707e+00 
7.138330e+00 5.635403e+00 
7.173600e+00 5.579079e+00 
7.208260e+00 5.524472e+00 
7.243530e+00 5.469648e+00 
7.277600e+00 5.417511e+00 
7.312860e+00 5.364375e+00 
7.348120e+00 5.311945e+00 
7.382790e+00 5.261069e+00 
7.417460e+00 5.211099e+00 
7.452720e+00 5.161067e+00 
7.487390e+00 5.112509e+00 
7.522650e+00 5.063759e+00 
7.557320e+00 5.016584e+00 
7.591990e+00 4.970058e+00 
7.627250e+00 4.923341e+00 
7.662510e+00 4.877220e+00 
7.697180e+00 4.832627e+00 
7.731850e+00 4.788659e+00 
7.766510e+00 4.745247e+00 
7.801180e+00 4.702356e+00 
7.836440e+00 4.659385e+00 
7.871110e+00 4.617721e+00 
7.906380e+00 4.575855e+00 
7.941040e+00 4.535215e+00 
7.976310e+00 4.494466e+00 
8.011570e+00 4.454348e+00 
8.046240e+00 4.415377e+00 
8.080900e+00 4.376879e+00 
8.115570e+00 4.338869e+00 
8.150830e+00 4.300833e+00 
8.185500e+00 4.263876e+00 
8.220770e+00 4.226722e+00 
8.255430e+00 4.190639e+00 
8.290100e+00 4.155168e+00 
8.324770e+00 4.120130e+00 
8.359430e+00 4.085503e+00 
8.394700e+00 4.050673e+00 
8.429960e+00 4.016345e+00 
8.464630e+00 3.983070e+00 
8.499890e+00 3.949613e+00 
8.534560e+00 3.917088e+00 
8.569200e+00 3.884956e+00 
