# Parameters:
# omega_b = 0.023106, omega_m = 0.137087, n_s = 0.925591, h = 81.692913, w = -1.000000, sigma_8 = 0.849606
# z = 1.500000
#
# k[1/Mpc] # P(k):
8.694000e-04 5.346433e+03 
2.077466e-03 1.097414e+04 
3.285532e-03 1.519691e+04 
4.493598e-03 1.835073e+04 
5.701664e-03 2.060572e+04 
6.909730e-03 2.213455e+04 
8.117797e-03 2.311419e+04 
9.325863e-03 2.363381e+04 
1.053393e-02 2.377548e+04 
1.174199e-02 2.361013e+04 
1.295006e-02 2.318610e+04 
1.415813e-02 2.256751e+04 
1.536619e-02 2.180670e+04 
1.657426e-02 2.093990e+04 
1.778233e-02 2.000165e+04 
1.899039e-02 1.904100e+04 
2.019846e-02 1.808346e+04 
2.140652e-02 1.715070e+04 
2.261459e-02 1.625478e+04 
2.382266e-02 1.540975e+04 
2.503072e-02 1.462482e+04 
2.623879e-02 1.390262e+04 
2.744685e-02 1.324321e+04 
2.865492e-02 1.264758e+04 
2.986299e-02 1.211204e+04 
3.100100e-02 1.166070e+04 
3.220400e-02 1.123504e+04 
3.288100e-02 1.101835e+04 
3.424300e-02 1.062508e+04 
3.555100e-02 1.029405e+04 
3.686000e-02 1.000229e+04 
3.795000e-02 9.783532e+03 
3.929100e-02 9.540064e+03 
4.039800e-02 9.353618e+03 
4.164000e-02 9.154945e+03 
4.294400e-02 8.950398e+03 
4.415000e-02 8.763405e+03 
4.542900e-02 8.558409e+03 
4.660900e-02 8.365978e+03 
4.782300e-02 8.154230e+03 
4.892900e-02 7.955430e+03 
5.031200e-02 7.695723e+03 
5.155900e-02 7.450622e+03 
5.238100e-02 7.285071e+03 
5.378200e-02 6.997828e+03 
5.513400e-02 6.714334e+03 
5.627600e-02 6.471720e+03 
5.735300e-02 6.241721e+03 
5.870100e-02 5.953649e+03 
5.988700e-02 5.703192e+03 
6.113500e-02 5.445900e+03 
6.225900e-02 5.224044e+03 
6.340100e-02 5.012631e+03 
6.480200e-02 4.775711e+03 
6.601100e-02 4.595852e+03 
6.725500e-02 4.434135e+03 
6.829100e-02 4.318329e+03 
6.958600e-02 4.191593e+03 
7.071100e-02 4.097819e+03 
7.192300e-02 4.010233e+03 
7.307400e-02 3.937931e+03 
7.412300e-02 3.879615e+03 
7.550400e-02 3.812580e+03 
7.663100e-02 3.763268e+03 
7.791200e-02 3.712441e+03 
7.912700e-02 3.666710e+03 
8.027600e-02 3.624243e+03 
8.138400e-02 3.583174e+03 
8.272200e-02 3.532196e+03 
8.406100e-02 3.478600e+03 
8.534100e-02 3.422859e+03 
8.653800e-02 3.366371e+03 
8.759800e-02 3.313795e+03 
8.900300e-02 3.239848e+03 
9.009000e-02 3.179001e+03 
9.113300e-02 3.117503e+03 
9.239600e-02 3.041402e+03 
9.358000e-02 2.967886e+03 
9.496100e-02 2.879758e+03 
9.608400e-02 2.808229e+03 
9.727500e-02 2.733142e+03 
9.852600e-02 2.654548e+03 
9.973800e-02 2.580922e+03 
1.009000e-01 2.512610e+03 
1.020900e-01 2.446379e+03 
1.034000e-01 2.377351e+03 
1.046000e-01 2.317761e+03 
1.057200e-01 2.267414e+03 
1.069100e-01 2.216956e+03 
1.082500e-01 2.166355e+03 
1.093900e-01 2.127649e+03 
1.105400e-01 2.091413e+03 
1.116900e-01 2.060352e+03 
1.129600e-01 2.028360e+03 
1.142000e-01 2.001420e+03 
1.153300e-01 1.978578e+03 
1.166400e-01 1.954467e+03 
1.177800e-01 1.934890e+03 
1.190000e-01 1.914862e+03 
1.201200e-01 1.896658e+03 
1.213400e-01 1.877256e+03 
1.227100e-01 1.854169e+03 
1.238900e-01 1.834196e+03 
1.250700e-01 1.812689e+03 
1.263200e-01 1.789493e+03 
1.275500e-01 1.765105e+03 
1.287500e-01 1.740708e+03 
1.299900e-01 1.714254e+03 
1.311300e-01 1.689485e+03 
1.323500e-01 1.662072e+03 
1.335900e-01 1.634087e+03 
1.347100e-01 1.608354e+03 
1.359800e-01 1.579448e+03 
1.372100e-01 1.551317e+03 
1.384300e-01 1.523947e+03 
1.395700e-01 1.498623e+03 
1.407700e-01 1.472594e+03 
1.420300e-01 1.446059e+03 
1.432800e-01 1.420373e+03 
1.444500e-01 1.397538e+03 
1.456300e-01 1.375016e+03 
1.468900e-01 1.352344e+03 
1.480500e-01 1.332177e+03 
1.491700e-01 1.313637e+03 
1.503800e-01 1.294695e+03 
1.516400e-01 1.275638e+03 
1.528200e-01 1.259237e+03 
1.540200e-01 1.242889e+03 
1.551900e-01 1.228187e+03 
1.564300e-01 1.213133e+03 
1.576600e-01 1.198889e+03 
1.588700e-01 1.185621e+03 
1.600900e-01 1.172519e+03 
1.612700e-01 1.160531e+03 
1.625400e-01 1.147870e+03 
1.637600e-01 1.135943e+03 
1.649500e-01 1.124525e+03 
1.662200e-01 1.112506e+03 
1.674000e-01 1.101227e+03 
1.685000e-01 1.090889e+03 
1.697500e-01 1.079013e+03 
1.710300e-01 1.066748e+03 
1.722200e-01 1.055549e+03 
1.734400e-01 1.043541e+03 
1.746400e-01 1.031909e+03 
1.758700e-01 1.019976e+03 
1.770900e-01 1.007904e+03 
1.782700e-01 9.964310e+02 
1.794600e-01 9.847780e+02 
1.807000e-01 9.726601e+02 
1.819100e-01 9.610445e+02 
1.830100e-01 9.504821e+02 
1.842200e-01 9.390256e+02 
1.855000e-01 9.271236e+02 
1.867000e-01 9.162010e+02 
1.879200e-01 9.052858e+02 
1.890900e-01 8.950263e+02 
1.902800e-01 8.849343e+02 
1.915200e-01 8.745939e+02 
1.926900e-01 8.650728e+02 
1.939000e-01 8.556287e+02 
1.951700e-01 8.458803e+02 
1.963100e-01 8.373560e+02 
1.975100e-01 8.287515e+02 
1.987800e-01 8.197908e+02 
2.000100e-01 8.113326e+02 
2.012500e-01 8.031267e+02 
2.023400e-01 7.960194e+02 
2.036100e-01 7.878967e+02 
2.048900e-01 7.799784e+02 
2.060400e-01 7.729708e+02 
2.072200e-01 7.658885e+02 
2.084200e-01 7.588573e+02 
2.096900e-01 7.515270e+02 
2.109200e-01 7.445342e+02 
2.121100e-01 7.378514e+02 
2.132700e-01 7.314274e+02 
2.145200e-01 7.246034e+02 
2.157200e-01 7.181107e+02 
2.168800e-01 7.119044e+02 
2.180700e-01 7.056247e+02 
2.193400e-01 6.989930e+02 
2.206000e-01 6.924623e+02 
2.217500e-01 6.865844e+02 
2.229500e-01 6.805333e+02 
2.241400e-01 6.745587e+02 
2.253500e-01 6.685651e+02 
2.264900e-01 6.629931e+02 
2.277100e-01 6.570973e+02 
2.289900e-01 6.509847e+02 
2.301500e-01 6.455205e+02 
2.313600e-01 6.398957e+02 
2.325600e-01 6.344008e+02 
2.337700e-01 6.289333e+02 
2.350000e-01 6.234494e+02 
2.362000e-01 6.181848e+02 
2.374100e-01 6.129631e+02 
2.386500e-01 6.076822e+02 
2.399100e-01 6.023878e+02 
2.410400e-01 5.977459e+02 
2.422500e-01 5.928424e+02 
2.435000e-01 5.878422e+02 
2.447300e-01 5.829966e+02 
2.458700e-01 5.786043e+02 
2.470600e-01 5.740743e+02 
2.483300e-01 5.693008e+02 
2.495600e-01 5.647559e+02 
2.507600e-01 5.604029e+02 
2.519600e-01 5.561026e+02 
2.532200e-01 5.516430e+02 
2.543700e-01 5.476394e+02 
2.555500e-01 5.435911e+02 
2.568000e-01 5.393540e+02 
2.580100e-01 5.353021e+02 
2.592400e-01 5.312443e+02 
2.604100e-01 5.274347e+02 
2.616100e-01 5.235723e+02 
2.628400e-01 5.196596e+02 
2.640600e-01 5.158274e+02 
2.652200e-01 5.122261e+02 
2.664300e-01 5.085120e+02 
2.676500e-01 5.048103e+02 
2.688400e-01 5.012354e+02 
2.700700e-01 4.975790e+02 
2.712400e-01 4.941400e+02 
2.724800e-01 4.905361e+02 
2.736700e-01 4.871140e+02 
2.748800e-01 4.836704e+02 
2.761000e-01 4.802371e+02 
2.773200e-01 4.768422e+02 
2.785400e-01 4.734818e+02 
2.797000e-01 4.703147e+02 
2.808900e-01 4.671001e+02 
2.821400e-01 4.637606e+02 
2.833900e-01 4.604582e+02 
2.845500e-01 4.574184e+02 
2.857800e-01 4.542296e+02 
2.870300e-01 4.510244e+02 
2.882100e-01 4.480312e+02 
2.893900e-01 4.450673e+02 
2.906300e-01 4.419846e+02 
2.918900e-01 4.388863e+02 
2.930500e-01 4.360640e+02 
2.942500e-01 4.331737e+02 
2.954200e-01 4.303833e+02 
2.966500e-01 4.274800e+02 
2.978900e-01 4.245840e+02 
2.990400e-01 4.219256e+02 
3.002700e-01 4.191115e+02 
3.015100e-01 4.163043e+02 
3.026800e-01 4.136825e+02 
3.038500e-01 4.110864e+02 
3.050300e-01 4.084939e+02 
3.062600e-01 4.058214e+02 
3.075000e-01 4.031547e+02 
3.087000e-01 4.006000e+02 
3.099100e-01 3.980495e+02 
3.111200e-01 3.955269e+02 
3.123100e-01 3.930746e+02 
3.135300e-01 3.905850e+02 
3.147300e-01 3.881603e+02 
3.159900e-01 3.856396e+02 
3.171800e-01 3.832862e+02 
3.183700e-01 3.809578e+02 
3.196300e-01 3.785166e+02 
3.208400e-01 3.761951e+02 
3.220300e-01 3.739338e+02 
3.232000e-01 3.717370e+02 
3.244300e-01 3.694518e+02 
3.256700e-01 3.671702e+02 
3.269200e-01 3.648925e+02 
3.280800e-01 3.627985e+02 
3.292500e-01 3.607129e+02 
3.304800e-01 3.585430e+02 
3.317100e-01 3.563936e+02 
3.328900e-01 3.543505e+02 
3.340700e-01 3.523257e+02 
3.353600e-01 3.501405e+02 
3.365300e-01 3.481799e+02 
3.377100e-01 3.462199e+02 
3.389200e-01 3.442282e+02 
3.401600e-01 3.422057e+02 
3.413700e-01 3.402565e+02 
3.425300e-01 3.384086e+02 
3.437700e-01 3.364507e+02 
3.449800e-01 3.345574e+02 
3.461800e-01 3.326964e+02 
3.473600e-01 3.308853e+02 
3.485800e-01 3.290364e+02 
3.498100e-01 3.271889e+02 
3.510200e-01 3.253875e+02 
3.522000e-01 3.236458e+02 
3.533900e-01 3.219044e+02 
3.546400e-01 3.200993e+02 
3.558400e-01 3.183819e+02 
3.570600e-01 3.166510e+02 
3.582700e-01 3.149489e+02 
3.595000e-01 3.132337e+02 
3.607100e-01 3.115654e+02 
3.618900e-01 3.099557e+02 
3.631200e-01 3.082920e+02 
3.643200e-01 3.066825e+02 
3.655500e-01 3.050466e+02 
3.667300e-01 3.034903e+02 
3.679500e-01 3.019031e+02 
3.691900e-01 3.003034e+02 
3.703600e-01 2.988065e+02 
3.715700e-01 2.972709e+02 
3.727700e-01 2.957605e+02 
3.739900e-01 2.942400e+02 
3.752000e-01 2.927489e+02 
3.763900e-01 2.912943e+02 
3.775800e-01 2.898512e+02 
3.788200e-01 2.883597e+02 
3.800300e-01 2.869161e+02 
3.812100e-01 2.855230e+02 
3.824200e-01 2.841081e+02 
3.836100e-01 2.827276e+02 
3.848600e-01 2.812890e+02 
3.860400e-01 2.799418e+02 
3.872400e-01 2.785824e+02 
3.884600e-01 2.772157e+02 
3.896500e-01 2.758948e+02 
3.908700e-01 2.745511e+02 
3.920600e-01 2.732506e+02 
3.933100e-01 2.718951e+02 
3.945300e-01 2.705827e+02 
3.957200e-01 2.693168e+02 
3.969300e-01 2.680406e+02 
3.981700e-01 2.667429e+02 
3.993500e-01 2.655174e+02 
4.094840e-01 2.553835e+02 
4.272360e-01 2.391952e+02 
4.454600e-01 2.243642e+02 
4.630560e-01 2.115169e+02 
4.804610e-01 2.000472e+02 
4.980690e-01 1.895373e+02 
5.159230e-01 1.798581e+02 
5.317440e-01 1.720095e+02 
5.489640e-01 1.641570e+02 
5.671990e-01 1.565407e+02 
5.838690e-01 1.501360e+02 
6.018840e-01 1.437500e+02 
6.202330e-01 1.377632e+02 
6.379250e-01 1.324212e+02 
6.545410e-01 1.277664e+02 
6.714560e-01 1.233408e+02 
6.892080e-01 1.190106e+02 
7.066010e-01 1.150555e+02 
7.240540e-01 1.113350e+02 
7.420450e-01 1.077515e+02 
7.593780e-01 1.045132e+02 
7.764720e-01 1.015045e+02 
7.942840e-01 9.855062e+01 
8.116170e-01 9.584270e+01 
8.288310e-01 9.330112e+01 
8.462240e-01 9.087099e+01 
8.631980e-01 8.862020e+01 
8.810700e-01 8.636977e+01 
8.989410e-01 8.423207e+01 
9.166330e-01 8.222074e+01 
9.345640e-01 8.028186e+01 
9.515980e-01 7.852322e+01 
9.688720e-01 7.681661e+01 
9.865640e-01 7.514632e+01 
1.031870e+00 7.117819e+01 
1.063490e+00 6.864569e+01 
1.097920e+00 6.608468e+01 
1.134370e+00 6.356485e+01 
1.167730e+00 6.141600e+01 
1.203830e+00 5.923706e+01 
1.240470e+00 5.716924e+01 
1.275790e+00 5.529745e+01 
1.309140e+00 5.363154e+01 
1.342970e+00 5.202602e+01 
1.378420e+00 5.043584e+01 
1.413200e+00 4.895673e+01 
1.448110e+00 4.754519e+01 
1.484090e+00 4.616256e+01 
1.518820e+00 4.489100e+01 
1.552880e+00 4.370046e+01 
1.588630e+00 4.250580e+01 
1.623230e+00 4.140140e+01 
1.657720e+00 4.034577e+01 
1.692450e+00 3.932833e+01 
1.726400e+00 3.837196e+01 
1.762200e+00 3.740235e+01 
1.797880e+00 3.647510e+01 
1.833270e+00 3.559192e+01 
1.869070e+00 3.473144e+01 
1.903200e+00 3.394155e+01 
1.937740e+00 3.317070e+01 
1.973190e+00 3.240759e+01 
2.007440e+00 3.169625e+01 
2.042160e+00 3.099897e+01 
2.077900e+00 3.030526e+01 
2.112390e+00 2.965877e+01 
2.146220e+00 2.904390e+01 
2.181600e+00 2.842186e+01 
2.216930e+00 2.782016e+01 
2.250760e+00 2.726205e+01 
2.286500e+00 2.669074e+01 
2.321770e+00 2.614430e+01 
2.355950e+00 2.563100e+01 
2.391280e+00 2.511428e+01 
2.426240e+00 2.461824e+01 
2.460670e+00 2.414429e+01 
2.495640e+00 2.367714e+01 
2.531080e+00 2.321608e+01 
2.566220e+00 2.277138e+01 
2.600830e+00 2.234576e+01 
2.635080e+00 2.193642e+01 
2.670340e+00 2.152511e+01 
2.705970e+00 2.112099e+01 
2.740040e+00 2.074507e+01 
2.774520e+00 2.037382e+01 
2.809730e+00 2.000400e+01 
2.844390e+00 1.964964e+01 
2.879960e+00 1.929533e+01 
2.914860e+00 1.895595e+01 
2.949410e+00 1.862861e+01 
2.984440e+00 1.830440e+01 
3.019760e+00 1.798534e+01 
3.054730e+00 1.767748e+01 
3.089030e+00 1.738195e+01 
3.124060e+00 1.708768e+01 
3.159560e+00 1.679655e+01 
3.194710e+00 1.651481e+01 
3.229010e+00 1.624669e+01 
3.263320e+00 1.598333e+01 
3.297930e+00 1.572409e+01 
3.332830e+00 1.546842e+01 
3.368040e+00 1.521633e+01 
3.403300e+00 1.496980e+01 
3.438450e+00 1.472904e+01 
3.473060e+00 1.449768e+01 
3.508440e+00 1.426538e+01 
3.543110e+00 1.404324e+01 
3.577470e+00 1.382742e+01 
3.613040e+00 1.360908e+01 
3.648120e+00 1.339787e+01 
3.682910e+00 1.319302e+01 
3.718050e+00 1.299025e+01 
3.753320e+00 1.279110e+01 
3.787980e+00 1.259928e+01 
3.822290e+00 1.241335e+01 
3.857020e+00 1.222879e+01 
3.891920e+00 1.204715e+01 
3.926650e+00 1.186973e+01 
3.961970e+00 1.169314e+01 
3.997360e+00 1.151964e+01 
4.031670e+00 1.135500e+01 
4.066330e+00 1.119158e+01 
4.101420e+00 1.102972e+01 
4.136200e+00 1.087184e+01 
4.170810e+00 1.071811e+01 
4.206250e+00 1.056352e+01 
4.241580e+00 1.041263e+01 
4.276300e+00 1.026702e+01 
4.310970e+00 1.012439e+01 
4.346120e+00 9.982545e+00 
4.380600e+00 9.845864e+00 
4.414730e+00 9.713289e+00 
4.450350e+00 9.577213e+00 
4.485320e+00 9.446357e+00 
4.519810e+00 9.319491e+00 
4.555430e+00 9.190923e+00 
4.590870e+00 9.065431e+00 
4.625480e+00 8.944978e+00 
4.659910e+00 8.827475e+00 
4.695230e+00 8.709001e+00 
4.729960e+00 8.594726e+00 
4.764450e+00 8.483229e+00 
4.799530e+00 8.371693e+00 
4.834910e+00 8.261358e+00 
4.869700e+00 8.154664e+00 
4.904370e+00 8.050279e+00 
4.939450e+00 7.946553e+00 
4.973940e+00 7.846268e+00 
5.008430e+00 7.747808e+00 
5.043810e+00 7.648460e+00 
5.078840e+00 7.551786e+00 
5.113500e+00 7.457859e+00 
5.148890e+00 7.363462e+00 
5.184210e+00 7.270946e+00 
5.219060e+00 7.181255e+00 
5.253660e+00 7.093673e+00 
5.288570e+00 7.006850e+00 
5.323420e+00 6.921599e+00 
5.358440e+00 6.837320e+00 
5.393590e+00 6.754195e+00 
5.428310e+00 6.673430e+00 
5.462800e+00 6.594520e+00 
5.497640e+00 6.516153e+00 
5.532670e+00 6.438641e+00 
5.567280e+00 6.363326e+00 
5.602000e+00 6.289022e+00 
5.637270e+00 6.214720e+00 
5.672410e+00 6.141907e+00 
5.707020e+00 6.071367e+00 
5.742040e+00 6.001167e+00 
5.777430e+00 5.931389e+00 
5.812210e+00 5.863925e+00 
5.846820e+00 5.797795e+00 
5.881610e+00 5.732359e+00 
5.916510e+00 5.667758e+00 
5.951600e+00 5.603823e+00 
5.986560e+00 5.541125e+00 
6.021830e+00 5.478867e+00 
6.056490e+00 5.418669e+00 
6.091160e+00 5.359404e+00 
6.125830e+00 5.301045e+00 
6.161090e+00 5.242606e+00 
6.195760e+00 5.186028e+00 
6.230420e+00 5.130317e+00 
6.265690e+00 5.074483e+00 
6.300950e+00 5.019558e+00 
6.335620e+00 4.966359e+00 
6.370880e+00 4.913059e+00 
6.405550e+00 4.861454e+00 
6.440220e+00 4.810614e+00 
6.475480e+00 4.759666e+00 
6.510150e+00 4.710322e+00 
6.544810e+00 4.661750e+00 
6.580080e+00 4.613036e+00 
6.614750e+00 4.565839e+00 
6.649410e+00 4.519378e+00 
6.684080e+00 4.473569e+00 
6.719340e+00 4.427640e+00 
6.754010e+00 4.383147e+00 
6.788680e+00 4.339347e+00 
6.823940e+00 4.295423e+00 
6.859800e+00 4.251381e+00 
6.894470e+00 4.209442e+00 
6.929140e+00 4.168090e+00 
6.963800e+00 4.127312e+00 
6.999070e+00 4.086388e+00 
7.033730e+00 4.046810e+00 
7.068400e+00 4.007750e+00 
7.103660e+00 3.968559e+00 
7.138330e+00 3.930567e+00 
7.173600e+00 3.892487e+00 
7.208260e+00 3.855561e+00 
7.243530e+00 3.818481e+00 
7.277600e+00 3.783168e+00 
7.312860e+00 3.747129e+00 
7.348120e+00 3.711564e+00 
7.382790e+00 3.677046e+00 
7.417460e+00 3.643061e+00 
7.452720e+00 3.608987e+00 
7.487390e+00 3.575912e+00 
7.522650e+00 3.542702e+00 
7.557320e+00 3.510527e+00 
7.591990e+00 3.478780e+00 
7.627250e+00 3.446897e+00 
7.662510e+00 3.415416e+00 
7.697180e+00 3.384923e+00 
7.731850e+00 3.354834e+00 
7.766510e+00 3.325121e+00 
7.801180e+00 3.295762e+00 
7.836440e+00 3.266320e+00 
7.871110e+00 3.237757e+00 
7.906380e+00 3.209051e+00 
7.941040e+00 3.181183e+00 
7.976310e+00 3.153208e+00 
8.011570e+00 3.125629e+00 
8.046240e+00 3.098835e+00 
8.080900e+00 3.072363e+00 
8.115570e+00 3.046218e+00 
8.150830e+00 3.020029e+00 
8.185500e+00 2.994580e+00 
8.220770e+00 2.968992e+00 
8.255430e+00 2.944139e+00 
8.290100e+00 2.919657e+00 
8.324770e+00 2.895465e+00 
8.359430e+00 2.871554e+00 
8.394700e+00 2.847502e+00 
8.429960e+00 2.823782e+00 
8.464630e+00 2.800776e+00 
8.499890e+00 2.777641e+00 
8.534560e+00 2.755150e+00 
8.569200e+00 2.732927e+00 
