# Parameters:
# omega_b = 0.023327, omega_m = 0.143701, n_s = 0.939764, h = 55.472441, w = -1.000000, sigma_8 = 0.797638
# z = 1.500000
#
# k[1/Mpc] # P(k):
8.694000e-04 4.611988e+03 
2.077466e-03 9.656553e+03 
3.285532e-03 1.355013e+04 
4.493598e-03 1.653555e+04 
5.701664e-03 1.874700e+04 
6.909730e-03 2.031218e+04 
8.117797e-03 2.137257e+04 
9.325863e-03 2.200083e+04 
1.053393e-02 2.226956e+04 
1.174199e-02 2.224525e+04 
1.295006e-02 2.196971e+04 
1.415813e-02 2.149979e+04 
1.536619e-02 2.088637e+04 
1.657426e-02 2.016391e+04 
1.778233e-02 1.936207e+04 
1.899039e-02 1.852541e+04 
2.019846e-02 1.767814e+04 
2.140652e-02 1.684179e+04 
2.261459e-02 1.602791e+04 
2.382266e-02 1.525100e+04 
2.503072e-02 1.452176e+04 
2.623879e-02 1.384449e+04 
2.744685e-02 1.322034e+04 
2.865492e-02 1.265227e+04 
2.986299e-02 1.213821e+04 
3.100100e-02 1.170246e+04 
3.220400e-02 1.128961e+04 
3.288100e-02 1.107861e+04 
3.424300e-02 1.069460e+04 
3.555100e-02 1.037044e+04 
3.686000e-02 1.008423e+04 
3.795000e-02 9.869514e+03 
3.929100e-02 9.630781e+03 
4.039800e-02 9.448552e+03 
4.164000e-02 9.255112e+03 
4.294400e-02 9.057454e+03 
4.415000e-02 8.877754e+03 
4.542900e-02 8.682305e+03 
4.660900e-02 8.499617e+03 
4.782300e-02 8.299228e+03 
4.892900e-02 8.111322e+03 
5.031200e-02 7.865920e+03 
5.155900e-02 7.633684e+03 
5.238100e-02 7.476683e+03 
5.378200e-02 7.204937e+03 
5.513400e-02 6.940008e+03 
5.627600e-02 6.718633e+03 
5.735300e-02 6.516069e+03 
5.870100e-02 6.275645e+03 
5.988700e-02 6.079465e+03 
6.113500e-02 5.888875e+03 
6.225900e-02 5.730434e+03 
6.340100e-02 5.579737e+03 
6.480200e-02 5.405101e+03 
6.601100e-02 5.261035e+03 
6.725500e-02 5.117480e+03 
6.829100e-02 5.001823e+03 
6.958600e-02 4.862906e+03 
7.071100e-02 4.748593e+03 
7.192300e-02 4.632828e+03 
7.307400e-02 4.530402e+03 
7.412300e-02 4.443511e+03 
7.550400e-02 4.338978e+03 
7.663100e-02 4.260403e+03 
7.791200e-02 4.179242e+03 
7.912700e-02 4.108596e+03 
8.027600e-02 4.046086e+03 
8.138400e-02 3.988910e+03 
8.272200e-02 3.923069e+03 
8.406100e-02 3.859451e+03 
8.534100e-02 3.799322e+03 
8.653800e-02 3.742598e+03 
8.759800e-02 3.691909e+03 
8.900300e-02 3.623344e+03 
9.009000e-02 3.568583e+03 
9.113300e-02 3.514035e+03 
9.239600e-02 3.446872e+03 
9.358000e-02 3.382038e+03 
9.496100e-02 3.303595e+03 
9.608400e-02 3.239137e+03 
9.727500e-02 3.170731e+03 
9.852600e-02 3.096933e+03 
9.973800e-02 3.026414e+03 
1.009000e-01 2.959820e+03 
1.020900e-01 2.892149e+03 
1.034000e-01 2.819853e+03 
1.046000e-01 2.755591e+03 
1.057200e-01 2.697980e+03 
1.069100e-01 2.638926e+03 
1.082500e-01 2.575844e+03 
1.093900e-01 2.525083e+03 
1.105400e-01 2.476026e+03 
1.116900e-01 2.430507e+03 
1.129600e-01 2.382479e+03 
1.142000e-01 2.339213e+03 
1.153300e-01 2.301855e+03 
1.166400e-01 2.261288e+03 
1.177800e-01 2.228456e+03 
1.190000e-01 2.194910e+03 
1.201200e-01 2.166389e+03 
1.213400e-01 2.136334e+03 
1.227100e-01 2.105020e+03 
1.238900e-01 2.078916e+03 
1.250700e-01 2.053961e+03 
1.263200e-01 2.028172e+03 
1.275500e-01 2.003457e+03 
1.287500e-01 1.979681e+03 
1.299900e-01 1.955328e+03 
1.311300e-01 1.932971e+03 
1.323500e-01 1.908865e+03 
1.335900e-01 1.884246e+03 
1.347100e-01 1.861601e+03 
1.359800e-01 1.835853e+03 
1.372100e-01 1.810220e+03 
1.384300e-01 1.784844e+03 
1.395700e-01 1.760404e+03 
1.407700e-01 1.735087e+03 
1.420300e-01 1.707668e+03 
1.432800e-01 1.681090e+03 
1.444500e-01 1.655762e+03 
1.456300e-01 1.630768e+03 
1.468900e-01 1.604401e+03 
1.480500e-01 1.580580e+03 
1.491700e-01 1.558138e+03 
1.503800e-01 1.534506e+03 
1.516400e-01 1.510568e+03 
1.528200e-01 1.489206e+03 
1.540200e-01 1.467927e+03 
1.551900e-01 1.448355e+03 
1.564300e-01 1.428211e+03 
1.576600e-01 1.409090e+03 
1.588700e-01 1.391194e+03 
1.600900e-01 1.373546e+03 
1.612700e-01 1.357623e+03 
1.625400e-01 1.340812e+03 
1.637600e-01 1.325330e+03 
1.649500e-01 1.310715e+03 
1.662200e-01 1.295444e+03 
1.674000e-01 1.281729e+03 
1.685000e-01 1.269160e+03 
1.697500e-01 1.255097e+03 
1.710300e-01 1.240936e+03 
1.722200e-01 1.228006e+03 
1.734400e-01 1.214735e+03 
1.746400e-01 1.201898e+03 
1.758700e-01 1.188849e+03 
1.770900e-01 1.175885e+03 
1.782700e-01 1.163559e+03 
1.794600e-01 1.151123e+03 
1.807000e-01 1.138242e+03 
1.819100e-01 1.125888e+03 
1.830100e-01 1.114602e+03 
1.842200e-01 1.102347e+03 
1.855000e-01 1.089599e+03 
1.867000e-01 1.077702e+03 
1.879200e-01 1.065807e+03 
1.890900e-01 1.054578e+03 
1.902800e-01 1.043297e+03 
1.915200e-01 1.031735e+03 
1.926900e-01 1.021020e+03 
1.939000e-01 1.010169e+03 
1.951700e-01 9.989679e+02 
1.963100e-01 9.891094e+02 
1.975100e-01 9.789898e+02 
1.987800e-01 9.684510e+02 
2.000100e-01 9.584588e+02 
2.012500e-01 9.486617e+02 
2.023400e-01 9.401766e+02 
2.036100e-01 9.304707e+02 
2.048900e-01 9.209743e+02 
2.060400e-01 9.125706e+02 
2.072200e-01 9.040809e+02 
2.084200e-01 8.956898e+02 
2.096900e-01 8.869421e+02 
2.109200e-01 8.785975e+02 
2.121100e-01 8.707020e+02 
2.132700e-01 8.631163e+02 
2.145200e-01 8.550584e+02 
2.157200e-01 8.474435e+02 
2.168800e-01 8.401882e+02 
2.180700e-01 8.328469e+02 
2.193400e-01 8.251068e+02 
2.206000e-01 8.175083e+02 
2.217500e-01 8.106689e+02 
2.229500e-01 8.036277e+02 
2.241400e-01 7.966524e+02 
2.253500e-01 7.896540e+02 
2.264900e-01 7.831476e+02 
2.277100e-01 7.762203e+02 
2.289900e-01 7.689911e+02 
2.301500e-01 7.625287e+02 
2.313600e-01 7.558753e+02 
2.325600e-01 7.492446e+02 
2.337700e-01 7.426477e+02 
2.350000e-01 7.360315e+02 
2.362000e-01 7.296121e+02 
2.374100e-01 7.231649e+02 
2.386500e-01 7.166459e+02 
2.399100e-01 7.101115e+02 
2.410400e-01 7.042678e+02 
2.422500e-01 6.980819e+02 
2.435000e-01 6.917757e+02 
2.447300e-01 6.856473e+02 
2.458700e-01 6.800186e+02 
2.470600e-01 6.742155e+02 
2.483300e-01 6.681026e+02 
2.495600e-01 6.622665e+02 
2.507600e-01 6.566542e+02 
2.519600e-01 6.511117e+02 
2.532200e-01 6.453662e+02 
2.543700e-01 6.402194e+02 
2.555500e-01 6.350231e+02 
2.568000e-01 6.295865e+02 
2.580100e-01 6.243893e+02 
2.592400e-01 6.192289e+02 
2.604100e-01 6.144044e+02 
2.616100e-01 6.095144e+02 
2.628400e-01 6.045623e+02 
2.640600e-01 5.997767e+02 
2.652200e-01 5.953057e+02 
2.664300e-01 5.906956e+02 
2.676500e-01 5.861019e+02 
2.688400e-01 5.817238e+02 
2.700700e-01 5.772826e+02 
2.712400e-01 5.731060e+02 
2.724800e-01 5.687298e+02 
2.736700e-01 5.646158e+02 
2.748800e-01 5.605184e+02 
2.761000e-01 5.564336e+02 
2.773200e-01 5.523948e+02 
2.785400e-01 5.484178e+02 
2.797000e-01 5.447122e+02 
2.808900e-01 5.409514e+02 
2.821400e-01 5.370444e+02 
2.833900e-01 5.331827e+02 
2.845500e-01 5.296688e+02 
2.857800e-01 5.259825e+02 
2.870300e-01 5.222773e+02 
2.882100e-01 5.188172e+02 
2.893900e-01 5.154069e+02 
2.906300e-01 5.118686e+02 
2.918900e-01 5.083122e+02 
2.930500e-01 5.050725e+02 
2.942500e-01 5.017573e+02 
2.954200e-01 4.985643e+02 
2.966500e-01 4.952421e+02 
2.978900e-01 4.919281e+02 
2.990400e-01 4.888858e+02 
3.002700e-01 4.856656e+02 
3.015100e-01 4.824534e+02 
3.026800e-01 4.794531e+02 
3.038500e-01 4.764822e+02 
3.050300e-01 4.735151e+02 
3.062600e-01 4.704511e+02 
3.075000e-01 4.673937e+02 
3.087000e-01 4.644646e+02 
3.099100e-01 4.615402e+02 
3.111200e-01 4.586447e+02 
3.123100e-01 4.558246e+02 
3.135300e-01 4.529616e+02 
3.147300e-01 4.501730e+02 
3.159900e-01 4.472741e+02 
3.171800e-01 4.445622e+02 
3.183700e-01 4.418755e+02 
3.196300e-01 4.390585e+02 
3.208400e-01 4.363798e+02 
3.220300e-01 4.337704e+02 
3.232000e-01 4.312301e+02 
3.244300e-01 4.285852e+02 
3.256700e-01 4.259446e+02 
3.269200e-01 4.233084e+02 
3.280800e-01 4.208849e+02 
3.292500e-01 4.184671e+02 
3.304800e-01 4.159501e+02 
3.317100e-01 4.134568e+02 
3.328900e-01 4.110870e+02 
3.340700e-01 4.087384e+02 
3.353600e-01 4.062017e+02 
3.365300e-01 4.039249e+02 
3.377100e-01 4.016490e+02 
3.389200e-01 3.993361e+02 
3.401600e-01 3.969876e+02 
3.413700e-01 3.947244e+02 
3.425300e-01 3.925790e+02 
3.437700e-01 3.903060e+02 
3.449800e-01 3.881079e+02 
3.461800e-01 3.859473e+02 
3.473600e-01 3.838457e+02 
3.485800e-01 3.817027e+02 
3.498100e-01 3.795613e+02 
3.510200e-01 3.774733e+02 
3.522000e-01 3.754546e+02 
3.533900e-01 3.734361e+02 
3.546400e-01 3.713498e+02 
3.558400e-01 3.693654e+02 
3.570600e-01 3.673651e+02 
3.582700e-01 3.653982e+02 
3.595000e-01 3.634160e+02 
3.607100e-01 3.614927e+02 
3.618900e-01 3.596406e+02 
3.631200e-01 3.577261e+02 
3.643200e-01 3.558741e+02 
3.655500e-01 3.539917e+02 
3.667300e-01 3.522007e+02 
3.679500e-01 3.503841e+02 
3.691900e-01 3.485531e+02 
3.703600e-01 3.468397e+02 
3.715700e-01 3.450820e+02 
3.727700e-01 3.433530e+02 
3.739900e-01 3.416162e+02 
3.752000e-01 3.399198e+02 
3.763900e-01 3.382648e+02 
3.775800e-01 3.366229e+02 
3.788200e-01 3.349258e+02 
3.800300e-01 3.332831e+02 
3.812100e-01 3.317042e+02 
3.824200e-01 3.301048e+02 
3.836100e-01 3.285442e+02 
3.848600e-01 3.269179e+02 
3.860400e-01 3.253948e+02 
3.872400e-01 3.238578e+02 
3.884600e-01 3.223201e+02 
3.896500e-01 3.208366e+02 
3.908700e-01 3.193274e+02 
3.920600e-01 3.178666e+02 
3.933100e-01 3.163440e+02 
3.945300e-01 3.148697e+02 
3.957200e-01 3.134564e+02 
3.969300e-01 3.120342e+02 
3.981700e-01 3.105878e+02 
3.993500e-01 3.092219e+02 
4.094840e-01 2.979534e+02 
4.272360e-01 2.801424e+02 
4.454600e-01 2.639096e+02 
4.630560e-01 2.498554e+02 
4.804610e-01 2.372591e+02 
4.980690e-01 2.256358e+02 
5.159230e-01 2.148333e+02 
5.317440e-01 2.059997e+02 
5.489640e-01 1.970776e+02 
5.671990e-01 1.883431e+02 
5.838690e-01 1.809492e+02 
6.018840e-01 1.735325e+02 
6.202330e-01 1.665381e+02 
6.379250e-01 1.602773e+02 
6.545410e-01 1.548024e+02 
6.714560e-01 1.495899e+02 
6.892080e-01 1.444823e+02 
7.066010e-01 1.398147e+02 
7.240540e-01 1.354203e+02 
7.420450e-01 1.311889e+02 
7.593780e-01 1.273646e+02 
7.764720e-01 1.238123e+02 
7.942840e-01 1.203239e+02 
8.116170e-01 1.171277e+02 
8.288310e-01 1.141268e+02 
8.462240e-01 1.112583e+02 
8.631980e-01 1.085998e+02 
8.810700e-01 1.059404e+02 
8.989410e-01 1.034116e+02 
9.166330e-01 1.010307e+02 
9.345640e-01 9.873444e+01 
9.515980e-01 9.664813e+01 
9.688720e-01 9.462039e+01 
9.865640e-01 9.263279e+01 
1.031870e+00 8.789626e+01 
1.063490e+00 8.486028e+01 
1.097920e+00 8.177817e+01 
1.134370e+00 7.873239e+01 
1.167730e+00 7.612366e+01 
1.203830e+00 7.346390e+01 
1.240470e+00 7.092987e+01 
1.275790e+00 6.862479e+01 
1.309140e+00 6.656568e+01 
1.342970e+00 6.457057e+01 
1.378420e+00 6.258884e+01 
1.413200e+00 6.073779e+01 
1.448110e+00 5.896541e+01 
1.484090e+00 5.722362e+01 
1.518820e+00 5.561664e+01 
1.552880e+00 5.410753e+01 
1.588630e+00 5.258956e+01 
1.623230e+00 5.118307e+01 
1.657720e+00 4.983529e+01 
1.692450e+00 4.853409e+01 
1.726400e+00 4.730872e+01 
1.762200e+00 4.606428e+01 
1.797880e+00 4.487198e+01 
1.833270e+00 4.373526e+01 
1.869070e+00 4.262637e+01 
1.903200e+00 4.160725e+01 
1.937740e+00 4.061201e+01 
1.973190e+00 3.962626e+01 
2.007440e+00 3.870699e+01 
2.042160e+00 3.780509e+01 
2.077900e+00 3.690747e+01 
2.112390e+00 3.607090e+01 
2.146220e+00 3.527509e+01 
2.181600e+00 3.446976e+01 
2.216930e+00 3.369081e+01 
2.250760e+00 3.296848e+01 
2.286500e+00 3.222925e+01 
2.321770e+00 3.152239e+01 
2.355950e+00 3.085868e+01 
2.391280e+00 3.019054e+01 
2.426240e+00 2.954953e+01 
2.460670e+00 2.893750e+01 
2.495640e+00 2.833470e+01 
2.531080e+00 2.774004e+01 
2.566220e+00 2.716681e+01 
2.600830e+00 2.661861e+01 
2.635080e+00 2.609183e+01 
2.670340e+00 2.556315e+01 
2.705970e+00 2.504411e+01 
2.740040e+00 2.456168e+01 
2.774520e+00 2.408578e+01 
2.809730e+00 2.361213e+01 
2.844390e+00 2.315873e+01 
2.879960e+00 2.270608e+01 
2.914860e+00 2.227301e+01 
2.949410e+00 2.185569e+01 
2.984440e+00 2.144290e+01 
3.019760e+00 2.103707e+01 
3.054730e+00 2.064584e+01 
3.089030e+00 2.027112e+01 
3.124060e+00 1.989839e+01 
3.159560e+00 1.953016e+01 
3.194710e+00 1.917432e+01 
3.229010e+00 1.883600e+01 
3.263320e+00 1.850435e+01 
3.297930e+00 1.817823e+01 
3.332830e+00 1.785707e+01 
3.368040e+00 1.754095e+01 
3.403300e+00 1.723225e+01 
3.438450e+00 1.693129e+01 
3.473060e+00 1.664232e+01 
3.508440e+00 1.635283e+01 
3.543110e+00 1.607627e+01 
3.577470e+00 1.580833e+01 
3.613040e+00 1.553747e+01 
3.648120e+00 1.527584e+01 
3.682910e+00 1.502247e+01 
3.718050e+00 1.477222e+01 
3.753320e+00 1.452675e+01 
3.787980e+00 1.429069e+01 
3.822290e+00 1.406220e+01 
3.857020e+00 1.383585e+01 
3.891920e+00 1.361337e+01 
3.926650e+00 1.339648e+01 
3.961970e+00 1.318090e+01 
3.997360e+00 1.296960e+01 
4.031670e+00 1.276927e+01 
4.066330e+00 1.257083e+01 
4.101420e+00 1.237442e+01 
4.136200e+00 1.218343e+01 
4.170810e+00 1.199757e+01 
4.206250e+00 1.181112e+01 
4.241580e+00 1.162931e+01 
4.276300e+00 1.145424e+01 
4.310970e+00 1.128302e+01 
4.346120e+00 1.111297e+01 
4.380600e+00 1.094944e+01 
4.414730e+00 1.079091e+01 
4.450350e+00 1.062871e+01 
4.485320e+00 1.047281e+01 
4.519810e+00 1.032204e+01 
4.555430e+00 1.016945e+01 
4.590870e+00 1.002069e+01 
4.625480e+00 9.878171e+00 
4.659910e+00 9.739221e+00 
4.695230e+00 9.599566e+00 
4.729960e+00 9.464987e+00 
4.764450e+00 9.333874e+00 
4.799530e+00 9.202993e+00 
4.834910e+00 9.073588e+00 
4.869700e+00 8.948786e+00 
4.904370e+00 8.826791e+00 
4.939450e+00 8.705710e+00 
4.973940e+00 8.588922e+00 
5.008430e+00 8.474312e+00 
5.043810e+00 8.358907e+00 
5.078840e+00 8.246765e+00 
5.113500e+00 8.137860e+00 
5.148890e+00 8.028769e+00 
5.184210e+00 7.921915e+00 
5.219060e+00 7.818435e+00 
5.253660e+00 7.717618e+00 
5.288570e+00 7.617717e+00 
5.323420e+00 7.519782e+00 
5.358440e+00 7.423136e+00 
5.393590e+00 7.327852e+00 
5.428310e+00 7.235484e+00 
5.462800e+00 7.145367e+00 
5.497640e+00 7.055903e+00 
5.532670e+00 6.967636e+00 
5.567280e+00 6.881959e+00 
5.602000e+00 6.797465e+00 
5.637270e+00 6.713172e+00 
5.672410e+00 6.630635e+00 
5.707020e+00 6.550704e+00 
5.742040e+00 6.471371e+00 
5.777430e+00 6.392581e+00 
5.812210e+00 6.316430e+00 
5.846820e+00 6.241949e+00 
5.881610e+00 6.168309e+00 
5.916510e+00 6.095631e+00 
5.951600e+00 6.023867e+00 
5.986560e+00 5.953577e+00 
6.021830e+00 5.883799e+00 
6.056490e+00 5.816446e+00 
6.091160e+00 5.750236e+00 
6.125830e+00 5.685056e+00 
6.161090e+00 5.619852e+00 
6.195760e+00 5.556844e+00 
6.230420e+00 5.494818e+00 
6.265690e+00 5.432679e+00 
6.300950e+00 5.371723e+00 
6.335620e+00 5.312697e+00 
6.370880e+00 5.253574e+00 
6.405550e+00 5.196437e+00 
6.440220e+00 5.140198e+00 
6.475480e+00 5.083853e+00 
6.510150e+00 5.029338e+00 
6.544810e+00 4.975784e+00 
6.580080e+00 4.922087e+00 
6.614750e+00 4.870072e+00 
6.649410e+00 4.818972e+00 
6.684080e+00 4.768618e+00 
6.719340e+00 4.718142e+00 
6.754010e+00 4.669292e+00 
6.788680e+00 4.621297e+00 
6.823940e+00 4.573175e+00 
6.859800e+00 4.524934e+00 
6.894470e+00 4.479075e+00 
6.929140e+00 4.433893e+00 
6.963800e+00 4.389345e+00 
6.999070e+00 4.344650e+00 
7.033730e+00 4.301517e+00 
7.068400e+00 4.258956e+00 
7.103660e+00 4.216258e+00 
7.138330e+00 4.174900e+00 
7.173600e+00 4.133514e+00 
7.208260e+00 4.093388e+00 
7.243530e+00 4.053099e+00 
7.277600e+00 4.014775e+00 
7.312860e+00 3.975707e+00 
7.348120e+00 3.937156e+00 
7.382790e+00 3.899746e+00 
7.417460e+00 3.862974e+00 
7.452720e+00 3.826142e+00 
7.487390e+00 3.790393e+00 
7.522650e+00 3.754502e+00 
7.557320e+00 3.719776e+00 
7.591990e+00 3.685528e+00 
7.627250e+00 3.651139e+00 
7.662510e+00 3.617186e+00 
7.697180e+00 3.584348e+00 
7.731850e+00 3.551964e+00 
7.766510e+00 3.519989e+00 
7.801180e+00 3.488396e+00 
7.836440e+00 3.456749e+00 
7.871110e+00 3.426066e+00 
7.906380e+00 3.395232e+00 
7.941040e+00 3.365301e+00 
7.976310e+00 3.335282e+00 
8.011570e+00 3.305721e+00 
8.046240e+00 3.277004e+00 
8.080900e+00 3.248634e+00 
8.115570e+00 3.220624e+00 
8.150830e+00 3.192600e+00 
8.185500e+00 3.165369e+00 
8.220770e+00 3.137993e+00 
8.255430e+00 3.111404e+00 
8.290100e+00 3.085256e+00 
8.324770e+00 3.059425e+00 
8.359430e+00 3.033897e+00 
8.394700e+00 3.008218e+00 
8.429960e+00 2.982911e+00 
8.464630e+00 2.958383e+00 
8.499890e+00 2.933719e+00 
8.534560e+00 2.909742e+00 
8.569200e+00 2.886052e+00 
