# Parameters:
# omega_b = 0.022240, omega_m = 0.135709, n_s = 0.865748, h = 83.818898, w = -1.000000, sigma_8 = 0.807087
# z = 1.500000
#
# k[1/Mpc] # P(k):
8.694000e-04 6.371637e+03 
2.077466e-03 1.239881e+04 
3.285532e-03 1.670218e+04 
4.493598e-03 1.977193e+04 
5.701664e-03 2.187142e+04 
6.909730e-03 2.321097e+04 
8.117797e-03 2.398824e+04 
9.325863e-03 2.430452e+04 
1.053393e-02 2.425217e+04 
1.174199e-02 2.390987e+04 
1.295006e-02 2.332904e+04 
1.415813e-02 2.257484e+04 
1.536619e-02 2.169972e+04 
1.657426e-02 2.073833e+04 
1.778233e-02 1.972330e+04 
1.899039e-02 1.870136e+04 
2.019846e-02 1.769624e+04 
2.140652e-02 1.672745e+04 
2.261459e-02 1.580538e+04 
2.382266e-02 1.494242e+04 
2.503072e-02 1.414637e+04 
2.623879e-02 1.341864e+04 
2.744685e-02 1.275855e+04 
2.865492e-02 1.216530e+04 
2.986299e-02 1.163412e+04 
3.100100e-02 1.118804e+04 
3.220400e-02 1.076814e+04 
3.288100e-02 1.055442e+04 
3.424300e-02 1.016587e+04 
3.555100e-02 9.837293e+03 
3.686000e-02 9.545420e+03 
3.795000e-02 9.324582e+03 
3.929100e-02 9.075551e+03 
4.039800e-02 8.882507e+03 
4.164000e-02 8.674968e+03 
4.294400e-02 8.459293e+03 
4.415000e-02 8.261740e+03 
4.542900e-02 8.045727e+03 
4.660900e-02 7.843989e+03 
4.782300e-02 7.624450e+03 
4.892900e-02 7.420231e+03 
5.031200e-02 7.156644e+03 
5.155900e-02 6.911249e+03 
5.238100e-02 6.747106e+03 
5.378200e-02 6.464971e+03 
5.513400e-02 6.189748e+03 
5.627600e-02 5.956416e+03 
5.735300e-02 5.736621e+03 
5.870100e-02 5.462751e+03 
5.988700e-02 5.225291e+03 
6.113500e-02 4.981500e+03 
6.225900e-02 4.771123e+03 
6.340100e-02 4.570293e+03 
6.480200e-02 4.344770e+03 
6.601100e-02 4.173319e+03 
6.725500e-02 4.019108e+03 
6.829100e-02 3.908805e+03 
6.958600e-02 3.788339e+03 
7.071100e-02 3.699474e+03 
7.192300e-02 3.616726e+03 
7.307400e-02 3.548621e+03 
7.412300e-02 3.493808e+03 
7.550400e-02 3.430917e+03 
7.663100e-02 3.384700e+03 
7.791200e-02 3.337074e+03 
7.912700e-02 3.294211e+03 
8.027600e-02 3.254384e+03 
8.138400e-02 3.215847e+03 
8.272200e-02 3.167995e+03 
8.406100e-02 3.117687e+03 
8.534100e-02 3.065398e+03 
8.653800e-02 3.012468e+03 
8.759800e-02 2.963261e+03 
8.900300e-02 2.894167e+03 
9.009000e-02 2.837429e+03 
9.113300e-02 2.780207e+03 
9.239600e-02 2.709526e+03 
9.358000e-02 2.641406e+03 
9.496100e-02 2.559985e+03 
9.608400e-02 2.494046e+03 
9.727500e-02 2.424952e+03 
9.852600e-02 2.352855e+03 
9.973800e-02 2.285429e+03 
1.009000e-01 2.222966e+03 
1.020900e-01 2.162537e+03 
1.034000e-01 2.099623e+03 
1.046000e-01 2.045371e+03 
1.057200e-01 1.999568e+03 
1.069100e-01 1.953680e+03 
1.082500e-01 1.907659e+03 
1.093900e-01 1.872443e+03 
1.105400e-01 1.839466e+03 
1.116900e-01 1.811159e+03 
1.129600e-01 1.781992e+03 
1.142000e-01 1.757395e+03 
1.153300e-01 1.736537e+03 
1.166400e-01 1.714513e+03 
1.177800e-01 1.696649e+03 
1.190000e-01 1.678379e+03 
1.201200e-01 1.661844e+03 
1.213400e-01 1.644232e+03 
1.227100e-01 1.623395e+03 
1.238900e-01 1.605391e+03 
1.250700e-01 1.586075e+03 
1.263200e-01 1.565260e+03 
1.275500e-01 1.543412e+03 
1.287500e-01 1.521556e+03 
1.299900e-01 1.497860e+03 
1.311300e-01 1.475654e+03 
1.323500e-01 1.451050e+03 
1.335900e-01 1.425897e+03 
1.347100e-01 1.402720e+03 
1.359800e-01 1.376649e+03 
1.372100e-01 1.351200e+03 
1.384300e-01 1.326412e+03 
1.395700e-01 1.303399e+03 
1.407700e-01 1.279746e+03 
1.420300e-01 1.255533e+03 
1.432800e-01 1.232110e+03 
1.444500e-01 1.211212e+03 
1.456300e-01 1.190613e+03 
1.468900e-01 1.169864e+03 
1.480500e-01 1.151410e+03 
1.491700e-01 1.134456e+03 
1.503800e-01 1.117148e+03 
1.516400e-01 1.099755e+03 
1.528200e-01 1.084840e+03 
1.540200e-01 1.069979e+03 
1.551900e-01 1.056689e+03 
1.564300e-01 1.043102e+03 
1.576600e-01 1.030296e+03 
1.588700e-01 1.018425e+03 
1.600900e-01 1.006710e+03 
1.612700e-01 9.960866e+02 
1.625400e-01 9.848664e+02 
1.637600e-01 9.743438e+02 
1.649500e-01 9.642963e+02 
1.662200e-01 9.537256e+02 
1.674000e-01 9.438358e+02 
1.685000e-01 9.347716e+02 
1.697500e-01 9.243590e+02 
1.710300e-01 9.136051e+02 
1.722200e-01 9.037878e+02 
1.734400e-01 8.932350e+02 
1.746400e-01 8.830118e+02 
1.758700e-01 8.725135e+02 
1.770900e-01 8.618695e+02 
1.782700e-01 8.517558e+02 
1.794600e-01 8.414610e+02 
1.807000e-01 8.307419e+02 
1.819100e-01 8.204697e+02 
1.830100e-01 8.111048e+02 
1.842200e-01 8.009455e+02 
1.855000e-01 7.903930e+02 
1.867000e-01 7.806857e+02 
1.879200e-01 7.709878e+02 
1.890900e-01 7.618724e+02 
1.902800e-01 7.528945e+02 
1.915200e-01 7.436983e+02 
1.926900e-01 7.352314e+02 
1.939000e-01 7.268290e+02 
1.951700e-01 7.181583e+02 
1.963100e-01 7.105782e+02 
1.975100e-01 7.029280e+02 
1.987800e-01 6.949632e+02 
2.000100e-01 6.874482e+02 
2.012500e-01 6.801623e+02 
2.023400e-01 6.738533e+02 
2.036100e-01 6.666464e+02 
2.048900e-01 6.596302e+02 
2.060400e-01 6.534222e+02 
2.072200e-01 6.471501e+02 
2.084200e-01 6.409353e+02 
2.096900e-01 6.344573e+02 
2.109200e-01 6.282787e+02 
2.121100e-01 6.223880e+02 
2.132700e-01 6.167268e+02 
2.145200e-01 6.107145e+02 
2.157200e-01 6.050027e+02 
2.168800e-01 5.995475e+02 
2.180700e-01 5.940288e+02 
2.193400e-01 5.882064e+02 
2.206000e-01 5.824823e+02 
2.217500e-01 5.773313e+02 
2.229500e-01 5.720295e+02 
2.241400e-01 5.668054e+02 
2.253500e-01 5.615657e+02 
2.264900e-01 5.566955e+02 
2.277100e-01 5.515475e+02 
2.289900e-01 5.462162e+02 
2.301500e-01 5.414511e+02 
2.313600e-01 5.365468e+02 
2.325600e-01 5.317633e+02 
2.337700e-01 5.270045e+02 
2.350000e-01 5.222321e+02 
2.362000e-01 5.176532e+02 
2.374100e-01 5.131144e+02 
2.386500e-01 5.085250e+02 
2.399100e-01 5.039244e+02 
2.410400e-01 4.998942e+02 
2.422500e-01 4.956379e+02 
2.435000e-01 4.912982e+02 
2.447300e-01 4.870933e+02 
2.458700e-01 4.832823e+02 
2.470600e-01 4.793524e+02 
2.483300e-01 4.752118e+02 
2.495600e-01 4.712697e+02 
2.507600e-01 4.674943e+02 
2.519600e-01 4.637650e+02 
2.532200e-01 4.598981e+02 
2.543700e-01 4.564262e+02 
2.555500e-01 4.529153e+02 
2.568000e-01 4.492413e+02 
2.580100e-01 4.457283e+02 
2.592400e-01 4.422090e+02 
2.604100e-01 4.389047e+02 
2.616100e-01 4.355550e+02 
2.628400e-01 4.321623e+02 
2.640600e-01 4.288382e+02 
2.652200e-01 4.257144e+02 
2.664300e-01 4.224932e+02 
2.676500e-01 4.192831e+02 
2.688400e-01 4.161820e+02 
2.700700e-01 4.130098e+02 
2.712400e-01 4.100266e+02 
2.724800e-01 4.069009e+02 
2.736700e-01 4.039324e+02 
2.748800e-01 4.009448e+02 
2.761000e-01 3.979666e+02 
2.773200e-01 3.950222e+02 
2.785400e-01 3.921077e+02 
2.797000e-01 3.893602e+02 
2.808900e-01 3.865721e+02 
2.821400e-01 3.836760e+02 
2.833900e-01 3.808124e+02 
2.845500e-01 3.781754e+02 
2.857800e-01 3.754094e+02 
2.870300e-01 3.726297e+02 
2.882100e-01 3.700343e+02 
2.893900e-01 3.674637e+02 
2.906300e-01 3.647902e+02 
2.918900e-01 3.621036e+02 
2.930500e-01 3.596566e+02 
2.942500e-01 3.571509e+02 
2.954200e-01 3.547316e+02 
2.966500e-01 3.522149e+02 
2.978900e-01 3.497048e+02 
2.990400e-01 3.474011e+02 
3.002700e-01 3.449625e+02 
3.015100e-01 3.425303e+02 
3.026800e-01 3.402590e+02 
3.038500e-01 3.380104e+02 
3.050300e-01 3.357652e+02 
3.062600e-01 3.334506e+02 
3.075000e-01 3.311415e+02 
3.087000e-01 3.289297e+02 
3.099100e-01 3.267220e+02 
3.111200e-01 3.245387e+02 
3.123100e-01 3.224168e+02 
3.135300e-01 3.202630e+02 
3.147300e-01 3.181655e+02 
3.159900e-01 3.159855e+02 
3.171800e-01 3.139509e+02 
3.183700e-01 3.119385e+02 
3.196300e-01 3.098288e+02 
3.208400e-01 3.078231e+02 
3.220300e-01 3.058695e+02 
3.232000e-01 3.039725e+02 
3.244300e-01 3.019996e+02 
3.256700e-01 3.000301e+02 
3.269200e-01 2.980643e+02 
3.280800e-01 2.962574e+02 
3.292500e-01 2.944585e+02 
3.304800e-01 2.925873e+02 
3.317100e-01 2.907341e+02 
3.328900e-01 2.889728e+02 
3.340700e-01 2.872276e+02 
3.353600e-01 2.853453e+02 
3.365300e-01 2.836570e+02 
3.377100e-01 2.819696e+02 
3.389200e-01 2.802550e+02 
3.401600e-01 2.785142e+02 
3.413700e-01 2.768375e+02 
3.425300e-01 2.752486e+02 
3.437700e-01 2.735654e+02 
3.449800e-01 2.719379e+02 
3.461800e-01 2.703384e+02 
3.473600e-01 2.687823e+02 
3.485800e-01 2.671948e+02 
3.498100e-01 2.656087e+02 
3.510200e-01 2.640623e+02 
3.522000e-01 2.625675e+02 
3.533900e-01 2.610730e+02 
3.546400e-01 2.595254e+02 
3.558400e-01 2.580534e+02 
3.570600e-01 2.565698e+02 
3.582700e-01 2.551113e+02 
3.595000e-01 2.536416e+02 
3.607100e-01 2.522129e+02 
3.618900e-01 2.508350e+02 
3.631200e-01 2.494110e+02 
3.643200e-01 2.480336e+02 
3.655500e-01 2.466338e+02 
3.667300e-01 2.453023e+02 
3.679500e-01 2.439457e+02 
3.691900e-01 2.425787e+02 
3.703600e-01 2.412996e+02 
3.715700e-01 2.399877e+02 
3.727700e-01 2.386974e+02 
3.739900e-01 2.373989e+02 
3.752000e-01 2.361263e+02 
3.763900e-01 2.348850e+02 
3.775800e-01 2.336537e+02 
3.788200e-01 2.323812e+02 
3.800300e-01 2.311497e+02 
3.812100e-01 2.299620e+02 
3.824200e-01 2.287563e+02 
3.836100e-01 2.275799e+02 
3.848600e-01 2.263543e+02 
3.860400e-01 2.252067e+02 
3.872400e-01 2.240487e+02 
3.884600e-01 2.228855e+02 
3.896500e-01 2.217615e+02 
3.908700e-01 2.206183e+02 
3.920600e-01 2.195119e+02 
3.933100e-01 2.183590e+02 
3.945300e-01 2.172428e+02 
3.957200e-01 2.161667e+02 
3.969300e-01 2.150822e+02 
3.981700e-01 2.139795e+02 
3.993500e-01 2.129384e+02 
4.094840e-01 2.043376e+02 
4.272360e-01 1.906336e+02 
4.454600e-01 1.781177e+02 
4.630560e-01 1.673092e+02 
4.804610e-01 1.576893e+02 
4.980690e-01 1.488996e+02 
5.159230e-01 1.408302e+02 
5.317440e-01 1.343036e+02 
5.489640e-01 1.277930e+02 
5.671990e-01 1.214959e+02 
5.838690e-01 1.162121e+02 
6.018840e-01 1.109545e+02 
6.202330e-01 1.060376e+02 
6.379250e-01 1.016583e+02 
6.545410e-01 9.784937e+01 
6.714560e-01 9.423264e+01 
6.892080e-01 9.069933e+01 
7.066010e-01 8.747569e+01 
7.240540e-01 8.444883e+01 
7.420450e-01 8.153603e+01 
7.593780e-01 7.890790e+01 
7.764720e-01 7.646893e+01 
7.942840e-01 7.407829e+01 
8.116170e-01 7.188881e+01 
8.288310e-01 6.983770e+01 
8.462240e-01 6.787828e+01 
8.631980e-01 6.606692e+01 
8.810700e-01 6.425888e+01 
8.989410e-01 6.254518e+01 
9.166330e-01 6.093527e+01 
9.345640e-01 5.938539e+01 
9.515980e-01 5.798307e+01 
9.688720e-01 5.662525e+01 
9.865640e-01 5.529893e+01 
1.031870e+00 5.216057e+01 
1.063490e+00 5.016779e+01 
1.097920e+00 4.816070e+01 
1.134370e+00 4.619561e+01 
1.167730e+00 4.452731e+01 
1.203830e+00 4.284536e+01 
1.240470e+00 4.125595e+01 
1.275790e+00 3.982434e+01 
1.309140e+00 3.855530e+01 
1.342970e+00 3.733946e+01 
1.378420e+00 3.613912e+01 
1.413200e+00 3.502780e+01 
1.448110e+00 3.397132e+01 
1.484090e+00 3.294071e+01 
1.518820e+00 3.199664e+01 
1.552880e+00 3.111605e+01 
1.588630e+00 3.023537e+01 
1.623230e+00 2.942387e+01 
1.657720e+00 2.865102e+01 
1.692450e+00 2.790800e+01 
1.726400e+00 2.721176e+01 
1.762200e+00 2.650800e+01 
1.797880e+00 2.583708e+01 
1.833270e+00 2.519931e+01 
1.869070e+00 2.457974e+01 
1.903200e+00 2.401246e+01 
1.937740e+00 2.345981e+01 
1.973190e+00 2.291378e+01 
2.007440e+00 2.240569e+01 
2.042160e+00 2.190893e+01 
2.077900e+00 2.141562e+01 
2.112390e+00 2.095643e+01 
2.146220e+00 2.052055e+01 
2.181600e+00 2.008033e+01 
2.216930e+00 1.965520e+01 
2.250760e+00 1.926129e+01 
2.286500e+00 1.885851e+01 
2.321770e+00 1.847377e+01 
2.355950e+00 1.811266e+01 
2.391280e+00 1.774995e+01 
2.426240e+00 1.740201e+01 
2.460670e+00 1.706975e+01 
2.495640e+00 1.674244e+01 
2.531080e+00 1.641987e+01 
2.566220e+00 1.610907e+01 
2.600830e+00 1.581178e+01 
2.635080e+00 1.552598e+01 
2.670340e+00 1.523897e+01 
2.705970e+00 1.495718e+01 
2.740040e+00 1.469518e+01 
2.774520e+00 1.443658e+01 
2.809730e+00 1.417918e+01 
2.844390e+00 1.393258e+01 
2.879960e+00 1.368595e+01 
2.914860e+00 1.344990e+01 
2.949410e+00 1.322229e+01 
2.984440e+00 1.299693e+01 
3.019760e+00 1.277528e+01 
3.054730e+00 1.256146e+01 
3.089030e+00 1.235611e+01 
3.124060e+00 1.215164e+01 
3.159560e+00 1.194936e+01 
3.194710e+00 1.175364e+01 
3.229010e+00 1.156738e+01 
3.263320e+00 1.138443e+01 
3.297930e+00 1.120433e+01 
3.332830e+00 1.102673e+01 
3.368040e+00 1.085154e+01 
3.403300e+00 1.068016e+01 
3.438450e+00 1.051280e+01 
3.473060e+00 1.035197e+01 
3.508440e+00 1.019046e+01 
3.543110e+00 1.003596e+01 
3.577470e+00 9.885699e+00 
3.613040e+00 9.733684e+00 
3.648120e+00 9.586699e+00 
3.682910e+00 9.444063e+00 
3.718050e+00 9.302739e+00 
3.753320e+00 9.163924e+00 
3.787980e+00 9.030209e+00 
3.822290e+00 8.900543e+00 
3.857020e+00 8.771765e+00 
3.891920e+00 8.644981e+00 
3.926650e+00 8.521087e+00 
3.961970e+00 8.397712e+00 
3.997360e+00 8.276369e+00 
4.031670e+00 8.161204e+00 
4.066330e+00 8.046879e+00 
4.101420e+00 7.933619e+00 
4.136200e+00 7.823000e+00 
4.170810e+00 7.715264e+00 
4.206250e+00 7.606863e+00 
4.241580e+00 7.501030e+00 
4.276300e+00 7.398806e+00 
4.310970e+00 7.298616e+00 
4.346120e+00 7.198945e+00 
4.380600e+00 7.102856e+00 
4.414730e+00 7.009633e+00 
4.450350e+00 6.913823e+00 
4.485320e+00 6.821674e+00 
4.519810e+00 6.732246e+00 
4.555430e+00 6.641570e+00 
4.590870e+00 6.553040e+00 
4.625480e+00 6.468029e+00 
4.659910e+00 6.385087e+00 
4.695230e+00 6.301320e+00 
4.729960e+00 6.220489e+00 
4.764450e+00 6.141582e+00 
4.799530e+00 6.062586e+00 
4.834910e+00 5.984429e+00 
4.869700e+00 5.908769e+00 
4.904370e+00 5.834724e+00 
4.939450e+00 5.761117e+00 
4.973940e+00 5.689890e+00 
5.008430e+00 5.619948e+00 
5.043810e+00 5.549323e+00 
5.078840e+00 5.480564e+00 
5.113500e+00 5.413750e+00 
5.148890e+00 5.346491e+00 
5.184210e+00 5.280561e+00 
5.219060e+00 5.216622e+00 
5.253660e+00 5.154135e+00 
5.288570e+00 5.092183e+00 
5.323420e+00 5.031318e+00 
5.358440e+00 4.971109e+00 
5.393590e+00 4.911718e+00 
5.428310e+00 4.853950e+00 
5.462800e+00 4.797475e+00 
5.497640e+00 4.741382e+00 
5.532670e+00 4.685837e+00 
5.567280e+00 4.631841e+00 
5.602000e+00 4.578565e+00 
5.637270e+00 4.525251e+00 
5.672410e+00 4.472993e+00 
5.707020e+00 4.422361e+00 
5.742040e+00 4.371912e+00 
5.777430e+00 4.321750e+00 
5.812210e+00 4.273248e+00 
5.846820e+00 4.225670e+00 
5.881610e+00 4.178580e+00 
5.916510e+00 4.132086e+00 
5.951600e+00 4.086027e+00 
5.986560e+00 4.040837e+00 
6.021830e+00 3.995960e+00 
6.056490e+00 3.952538e+00 
6.091160e+00 3.909762e+00 
6.125830e+00 3.867637e+00 
6.161090e+00 3.825443e+00 
6.195760e+00 3.784568e+00 
6.230420e+00 3.744318e+00 
6.265690e+00 3.703975e+00 
6.300950e+00 3.664244e+00 
6.335620e+00 3.625760e+00 
6.370880e+00 3.587200e+00 
6.405550e+00 3.549847e+00 
6.440220e+00 3.513038e+00 
6.475480e+00 3.476150e+00 
6.510150e+00 3.440408e+00 
6.544810e+00 3.405197e+00 
6.580080e+00 3.369881e+00 
6.614750e+00 3.335663e+00 
6.649410e+00 3.301963e+00 
6.684080e+00 3.268732e+00 
6.719340e+00 3.235412e+00 
6.754010e+00 3.203123e+00 
6.788680e+00 3.171311e+00 
6.823940e+00 3.139408e+00 
6.859800e+00 3.107419e+00 
6.894470e+00 3.076946e+00 
6.929140e+00 3.046897e+00 
6.963800e+00 3.017262e+00 
6.999070e+00 2.987520e+00 
7.033730e+00 2.958743e+00 
7.068400e+00 2.930341e+00 
7.103660e+00 2.901844e+00 
7.138330e+00 2.874212e+00 
7.173600e+00 2.846508e+00 
7.208260e+00 2.819643e+00 
7.243530e+00 2.792665e+00 
7.277600e+00 2.766967e+00 
7.312860e+00 2.740736e+00 
7.348120e+00 2.714850e+00 
7.382790e+00 2.689725e+00 
7.417460e+00 2.664973e+00 
7.452720e+00 2.640149e+00 
7.487390e+00 2.616052e+00 
7.522650e+00 2.591855e+00 
7.557320e+00 2.568416e+00 
7.591990e+00 2.545290e+00 
7.627250e+00 2.522064e+00 
7.662510e+00 2.499130e+00 
7.697180e+00 2.476911e+00 
7.731850e+00 2.454984e+00 
7.766510e+00 2.433330e+00 
7.801180e+00 2.411934e+00 
7.836440e+00 2.390481e+00 
7.871110e+00 2.369670e+00 
7.906380e+00 2.348754e+00 
7.941040e+00 2.328448e+00 
7.976310e+00 2.308062e+00 
8.011570e+00 2.287961e+00 
8.046240e+00 2.268432e+00 
8.080900e+00 2.249138e+00 
8.115570e+00 2.230082e+00 
8.150830e+00 2.210998e+00 
8.185500e+00 2.192453e+00 
8.220770e+00 2.173806e+00 
8.255430e+00 2.155695e+00 
8.290100e+00 2.137850e+00 
8.324770e+00 2.120217e+00 
8.359430e+00 2.102788e+00 
8.394700e+00 2.085256e+00 
8.429960e+00 2.067969e+00 
8.464630e+00 2.051205e+00 
8.499890e+00 2.034347e+00 
8.534560e+00 2.017957e+00 
8.569200e+00 2.001763e+00 
