# Parameters:
# omega_b = 0.023028, omega_m = 0.134055, n_s = 1.038976, h = 83.346457, w = -1.000000, sigma_8 = 0.866929
# z = 1.500000
#
# k[1/Mpc] # P(k):
8.694000e-04 3.348153e+03 
2.077466e-03 7.570063e+03 
3.285532e-03 1.101796e+04 
4.493598e-03 1.374940e+04 
5.701664e-03 1.582359e+04 
6.909730e-03 1.733055e+04 
8.117797e-03 1.838549e+04 
9.325863e-03 1.904713e+04 
1.053393e-02 1.937558e+04 
1.174199e-02 1.942698e+04 
1.295006e-02 1.923918e+04 
1.415813e-02 1.886546e+04 
1.536619e-02 1.835088e+04 
1.657426e-02 1.772696e+04 
1.778233e-02 1.702437e+04 
1.899039e-02 1.628719e+04 
2.019846e-02 1.553965e+04 
2.140652e-02 1.480257e+04 
2.261459e-02 1.408822e+04 
2.382266e-02 1.341072e+04 
2.503072e-02 1.277983e+04 
2.623879e-02 1.219914e+04 
2.744685e-02 1.167015e+04 
2.865492e-02 1.119395e+04 
2.986299e-02 1.076785e+04 
3.100100e-02 1.041129e+04 
3.220400e-02 1.007754e+04 
3.288100e-02 9.908983e+03 
3.424300e-02 9.605079e+03 
3.555100e-02 9.351138e+03 
3.686000e-02 9.128471e+03 
3.795000e-02 8.961726e+03 
3.929100e-02 8.775278e+03 
4.039800e-02 8.630932e+03 
4.164000e-02 8.474784e+03 
4.294400e-02 8.309442e+03 
4.415000e-02 8.155149e+03 
4.542900e-02 7.981079e+03 
4.660900e-02 7.814709e+03 
4.782300e-02 7.627508e+03 
4.892900e-02 7.449663e+03 
5.031200e-02 7.214774e+03 
5.155900e-02 6.991138e+03 
5.238100e-02 6.839467e+03 
5.378200e-02 6.575505e+03 
5.513400e-02 6.314548e+03 
5.627600e-02 6.091335e+03 
5.735300e-02 5.879984e+03 
5.870100e-02 5.615710e+03 
5.988700e-02 5.386309e+03 
6.113500e-02 5.150863e+03 
6.225900e-02 4.948029e+03 
6.340100e-02 4.754838e+03 
6.480200e-02 4.538385e+03 
6.601100e-02 4.374522e+03 
6.725500e-02 4.227805e+03 
6.829100e-02 4.123555e+03 
6.958600e-02 4.010353e+03 
7.071100e-02 3.927689e+03 
7.192300e-02 3.851537e+03 
7.307400e-02 3.789652e+03 
7.412300e-02 3.740488e+03 
7.550400e-02 3.685009e+03 
7.663100e-02 3.644734e+03 
7.791200e-02 3.603691e+03 
7.912700e-02 3.566727e+03 
8.027600e-02 3.532102e+03 
8.138400e-02 3.498185e+03 
8.272200e-02 3.455262e+03 
8.406100e-02 3.409076e+03 
8.534100e-02 3.359715e+03 
8.653800e-02 3.308576e+03 
8.759800e-02 3.260318e+03 
8.900300e-02 3.191459e+03 
9.009000e-02 3.134034e+03 
9.113300e-02 3.075395e+03 
9.239600e-02 3.002358e+03 
9.358000e-02 2.931288e+03 
9.496100e-02 2.845512e+03 
9.608400e-02 2.775634e+03 
9.727500e-02 2.702096e+03 
9.852600e-02 2.624880e+03 
9.973800e-02 2.552512e+03 
1.009000e-01 2.485343e+03 
1.020900e-01 2.420346e+03 
1.034000e-01 2.352731e+03 
1.046000e-01 2.294503e+03 
1.057200e-01 2.245680e+03 
1.069100e-01 2.196904e+03 
1.082500e-01 2.148522e+03 
1.093900e-01 2.111905e+03 
1.105400e-01 2.077866e+03 
1.116900e-01 2.049305e+03 
1.129600e-01 2.020114e+03 
1.142000e-01 1.996124e+03 
1.153300e-01 1.975979e+03 
1.166400e-01 1.955037e+03 
1.177800e-01 1.938172e+03 
1.190000e-01 1.920995e+03 
1.201200e-01 1.905200e+03 
1.213400e-01 1.888346e+03 
1.227100e-01 1.867663e+03 
1.238900e-01 1.849613e+03 
1.250700e-01 1.829641e+03 
1.263200e-01 1.807888e+03 
1.275500e-01 1.784554e+03 
1.287500e-01 1.760995e+03 
1.299900e-01 1.735125e+03 
1.311300e-01 1.710752e+03 
1.323500e-01 1.683563e+03 
1.335900e-01 1.655723e+03 
1.347100e-01 1.630017e+03 
1.359800e-01 1.601122e+03 
1.372100e-01 1.572966e+03 
1.384300e-01 1.545585e+03 
1.395700e-01 1.520288e+03 
1.407700e-01 1.494295e+03 
1.420300e-01 1.467923e+03 
1.432800e-01 1.442389e+03 
1.444500e-01 1.419870e+03 
1.456300e-01 1.397653e+03 
1.468900e-01 1.375439e+03 
1.480500e-01 1.355722e+03 
1.491700e-01 1.337678e+03 
1.503800e-01 1.319354e+03 
1.516400e-01 1.300947e+03 
1.528200e-01 1.285252e+03 
1.540200e-01 1.269602e+03 
1.551900e-01 1.255642e+03 
1.564300e-01 1.241373e+03 
1.576600e-01 1.227907e+03 
1.588700e-01 1.215406e+03 
1.600900e-01 1.203060e+03 
1.612700e-01 1.191763e+03 
1.625400e-01 1.179830e+03 
1.637600e-01 1.168531e+03 
1.649500e-01 1.157677e+03 
1.662200e-01 1.146228e+03 
1.674000e-01 1.135357e+03 
1.685000e-01 1.125392e+03 
1.697500e-01 1.113848e+03 
1.710300e-01 1.101831e+03 
1.722200e-01 1.090858e+03 
1.734400e-01 1.078927e+03 
1.746400e-01 1.067360e+03 
1.758700e-01 1.055451e+03 
1.770900e-01 1.043321e+03 
1.782700e-01 1.031790e+03 
1.794600e-01 1.020038e+03 
1.807000e-01 1.007788e+03 
1.819100e-01 9.960451e+02 
1.830100e-01 9.853539e+02 
1.842200e-01 9.737541e+02 
1.855000e-01 9.617026e+02 
1.867000e-01 9.506714e+02 
1.879200e-01 9.396457e+02 
1.890900e-01 9.292898e+02 
1.902800e-01 9.191497e+02 
1.915200e-01 9.087579e+02 
1.926900e-01 8.992034e+02 
1.939000e-01 8.897762e+02 
1.951700e-01 8.800432e+02 
1.963100e-01 8.715466e+02 
1.975100e-01 8.630118e+02 
1.987800e-01 8.541216e+02 
2.000100e-01 8.457409e+02 
2.012500e-01 8.376385e+02 
2.023400e-01 8.306195e+02 
2.036100e-01 8.225991e+02 
2.048900e-01 8.147913e+02 
2.060400e-01 8.078801e+02 
2.072200e-01 8.008930e+02 
2.084200e-01 7.939456e+02 
2.096900e-01 7.867012e+02 
2.109200e-01 7.797889e+02 
2.121100e-01 7.731531e+02 
2.132700e-01 7.667716e+02 
2.145200e-01 7.599916e+02 
2.157200e-01 7.535143e+02 
2.168800e-01 7.473102e+02 
2.180700e-01 7.410317e+02 
2.193400e-01 7.343859e+02 
2.206000e-01 7.278138e+02 
2.217500e-01 7.218977e+02 
2.229500e-01 7.158065e+02 
2.241400e-01 7.097584e+02 
2.253500e-01 7.036892e+02 
2.264900e-01 6.980462e+02 
2.277100e-01 6.920620e+02 
2.289900e-01 6.858432e+02 
2.301500e-01 6.802833e+02 
2.313600e-01 6.745590e+02 
2.325600e-01 6.689482e+02 
2.337700e-01 6.633648e+02 
2.350000e-01 6.577639e+02 
2.362000e-01 6.523819e+02 
2.374100e-01 6.470379e+02 
2.386500e-01 6.416327e+02 
2.399100e-01 6.362130e+02 
2.410400e-01 6.314561e+02 
2.422500e-01 6.264300e+02 
2.435000e-01 6.213043e+02 
2.447300e-01 6.163364e+02 
2.458700e-01 6.118328e+02 
2.470600e-01 6.071876e+02 
2.483300e-01 6.022921e+02 
2.495600e-01 5.976315e+02 
2.507600e-01 5.931685e+02 
2.519600e-01 5.887589e+02 
2.532200e-01 5.841856e+02 
2.543700e-01 5.800821e+02 
2.555500e-01 5.759339e+02 
2.568000e-01 5.715920e+02 
2.580100e-01 5.674394e+02 
2.592400e-01 5.632837e+02 
2.604100e-01 5.593834e+02 
2.616100e-01 5.554285e+02 
2.628400e-01 5.514219e+02 
2.640600e-01 5.475006e+02 
2.652200e-01 5.438168e+02 
2.664300e-01 5.400170e+02 
2.676500e-01 5.362296e+02 
2.688400e-01 5.325742e+02 
2.700700e-01 5.288367e+02 
2.712400e-01 5.253210e+02 
2.724800e-01 5.216364e+02 
2.736700e-01 5.181386e+02 
2.748800e-01 5.146198e+02 
2.761000e-01 5.111111e+02 
2.773200e-01 5.076412e+02 
2.785400e-01 5.042068e+02 
2.797000e-01 5.009705e+02 
2.808900e-01 4.976854e+02 
2.821400e-01 4.942723e+02 
2.833900e-01 4.908967e+02 
2.845500e-01 4.877909e+02 
2.857800e-01 4.845323e+02 
2.870300e-01 4.812568e+02 
2.882100e-01 4.781975e+02 
2.893900e-01 4.751685e+02 
2.906300e-01 4.720183e+02 
2.918900e-01 4.688517e+02 
2.930500e-01 4.659668e+02 
2.942500e-01 4.630123e+02 
2.954200e-01 4.601602e+02 
2.966500e-01 4.571924e+02 
2.978900e-01 4.542317e+02 
2.990400e-01 4.515135e+02 
3.002700e-01 4.486364e+02 
3.015100e-01 4.457664e+02 
3.026800e-01 4.430856e+02 
3.038500e-01 4.404308e+02 
3.050300e-01 4.377793e+02 
3.062600e-01 4.350471e+02 
3.075000e-01 4.323206e+02 
3.087000e-01 4.297083e+02 
3.099100e-01 4.270999e+02 
3.111200e-01 4.245203e+02 
3.123100e-01 4.220131e+02 
3.135300e-01 4.194675e+02 
3.147300e-01 4.169879e+02 
3.159900e-01 4.144099e+02 
3.171800e-01 4.120031e+02 
3.183700e-01 4.096217e+02 
3.196300e-01 4.071246e+02 
3.208400e-01 4.047497e+02 
3.220300e-01 4.024360e+02 
3.232000e-01 4.001889e+02 
3.244300e-01 3.978512e+02 
3.256700e-01 3.955170e+02 
3.269200e-01 3.931864e+02 
3.280800e-01 3.910436e+02 
3.292500e-01 3.889095e+02 
3.304800e-01 3.866888e+02 
3.317100e-01 3.844888e+02 
3.328900e-01 3.823975e+02 
3.340700e-01 3.803247e+02 
3.353600e-01 3.780868e+02 
3.365300e-01 3.760785e+02 
3.377100e-01 3.740708e+02 
3.389200e-01 3.720301e+02 
3.401600e-01 3.699578e+02 
3.413700e-01 3.679596e+02 
3.425300e-01 3.660648e+02 
3.437700e-01 3.640569e+02 
3.449800e-01 3.621150e+02 
3.461800e-01 3.602060e+02 
3.473600e-01 3.583475e+02 
3.485800e-01 3.564489e+02 
3.498100e-01 3.545516e+02 
3.510200e-01 3.527013e+02 
3.522000e-01 3.509122e+02 
3.533900e-01 3.491231e+02 
3.546400e-01 3.472663e+02 
3.558400e-01 3.454996e+02 
3.570600e-01 3.437186e+02 
3.582700e-01 3.419672e+02 
3.595000e-01 3.402019e+02 
3.607100e-01 3.384835e+02 
3.618900e-01 3.368241e+02 
3.631200e-01 3.351088e+02 
3.643200e-01 3.334493e+02 
3.655500e-01 3.317624e+02 
3.667300e-01 3.301574e+02 
3.679500e-01 3.285174e+02 
3.691900e-01 3.268643e+02 
3.703600e-01 3.253172e+02 
3.715700e-01 3.237301e+02 
3.727700e-01 3.221687e+02 
3.739900e-01 3.205959e+02 
3.752000e-01 3.190516e+02 
3.763900e-01 3.175449e+02 
3.775800e-01 3.160500e+02 
3.788200e-01 3.145048e+02 
3.800300e-01 3.130092e+02 
3.812100e-01 3.115638e+02 
3.824200e-01 3.100943e+02 
3.836100e-01 3.086605e+02 
3.848600e-01 3.071663e+02 
3.860400e-01 3.057668e+02 
3.872400e-01 3.043545e+02 
3.884600e-01 3.029324e+02 
3.896500e-01 3.015570e+02 
3.908700e-01 3.001577e+02 
3.920600e-01 2.988033e+02 
3.933100e-01 2.973916e+02 
3.945300e-01 2.960245e+02 
3.957200e-01 2.947034e+02 
3.969300e-01 2.933707e+02 
3.981700e-01 2.920156e+02 
3.993500e-01 2.907357e+02 
4.094840e-01 2.801366e+02 
4.272360e-01 2.631236e+02 
4.454600e-01 2.474706e+02 
4.630560e-01 2.338649e+02 
4.804610e-01 2.216877e+02 
4.980690e-01 2.105088e+02 
5.159230e-01 2.001982e+02 
5.317440e-01 1.918278e+02 
5.489640e-01 1.834438e+02 
5.671990e-01 1.753033e+02 
5.838690e-01 1.684496e+02 
6.018840e-01 1.616085e+02 
6.202330e-01 1.551868e+02 
6.379250e-01 1.494500e+02 
6.545410e-01 1.444451e+02 
6.714560e-01 1.396818e+02 
6.892080e-01 1.350159e+02 
7.066010e-01 1.307499e+02 
7.240540e-01 1.267318e+02 
7.420450e-01 1.228587e+02 
7.593780e-01 1.193553e+02 
7.764720e-01 1.160973e+02 
7.942840e-01 1.128958e+02 
8.116170e-01 1.099590e+02 
8.288310e-01 1.071999e+02 
8.462240e-01 1.045605e+02 
8.631980e-01 1.021136e+02 
8.810700e-01 9.966543e+01 
8.989410e-01 9.733801e+01 
9.166330e-01 9.514685e+01 
9.345640e-01 9.303295e+01 
9.515980e-01 9.111402e+01 
9.688720e-01 8.925043e+01 
9.865640e-01 8.742529e+01 
1.031870e+00 8.308236e+01 
1.063490e+00 8.030477e+01 
1.097920e+00 7.749201e+01 
1.134370e+00 7.471846e+01 
1.167730e+00 7.234895e+01 
1.203830e+00 6.994029e+01 
1.240470e+00 6.764987e+01 
1.275790e+00 6.557145e+01 
1.309140e+00 6.371828e+01 
1.342970e+00 6.192691e+01 
1.378420e+00 6.014937e+01 
1.413200e+00 5.849187e+01 
1.448110e+00 5.690635e+01 
1.484090e+00 5.534996e+01 
1.518820e+00 5.391499e+01 
1.552880e+00 5.256806e+01 
1.588630e+00 5.121349e+01 
1.623230e+00 4.995849e+01 
1.657720e+00 4.875644e+01 
1.692450e+00 4.759536e+01 
1.726400e+00 4.650122e+01 
1.762200e+00 4.538950e+01 
1.797880e+00 4.432422e+01 
1.833270e+00 4.330762e+01 
1.869070e+00 4.231482e+01 
1.903200e+00 4.140167e+01 
1.937740e+00 4.050892e+01 
1.973190e+00 3.962346e+01 
2.007440e+00 3.879654e+01 
2.042160e+00 3.798434e+01 
2.077900e+00 3.717488e+01 
2.112390e+00 3.641924e+01 
2.146220e+00 3.569919e+01 
2.181600e+00 3.496950e+01 
2.216930e+00 3.426243e+01 
2.250760e+00 3.360563e+01 
2.286500e+00 3.293227e+01 
2.321770e+00 3.228715e+01 
2.355950e+00 3.168035e+01 
2.391280e+00 3.106825e+01 
2.426240e+00 3.047984e+01 
2.460670e+00 2.991698e+01 
2.495640e+00 2.936157e+01 
2.531080e+00 2.881228e+01 
2.566220e+00 2.828182e+01 
2.600830e+00 2.777352e+01 
2.635080e+00 2.728408e+01 
2.670340e+00 2.679147e+01 
2.705970e+00 2.630695e+01 
2.740040e+00 2.585578e+01 
2.774520e+00 2.540958e+01 
2.809730e+00 2.496450e+01 
2.844390e+00 2.453766e+01 
2.879960e+00 2.411040e+01 
2.914860e+00 2.370060e+01 
2.949410e+00 2.330500e+01 
2.984440e+00 2.291268e+01 
3.019760e+00 2.252616e+01 
3.054730e+00 2.215291e+01 
3.089030e+00 2.179413e+01 
3.124060e+00 2.143663e+01 
3.159560e+00 2.108263e+01 
3.194710e+00 2.073962e+01 
3.229010e+00 2.041300e+01 
3.263320e+00 2.009179e+01 
3.297930e+00 1.977542e+01 
3.332830e+00 1.946306e+01 
3.368040e+00 1.915483e+01 
3.403300e+00 1.885322e+01 
3.438450e+00 1.855829e+01 
3.473060e+00 1.827476e+01 
3.508440e+00 1.798977e+01 
3.543110e+00 1.771714e+01 
3.577470e+00 1.745197e+01 
3.613040e+00 1.718357e+01 
3.648120e+00 1.692370e+01 
3.682910e+00 1.667153e+01 
3.718050e+00 1.642170e+01 
3.753320e+00 1.617620e+01 
3.787980e+00 1.593955e+01 
3.822290e+00 1.571004e+01 
3.857020e+00 1.548206e+01 
3.891920e+00 1.525758e+01 
3.926650e+00 1.503814e+01 
3.961970e+00 1.481965e+01 
3.997360e+00 1.460480e+01 
4.031670e+00 1.440086e+01 
4.066330e+00 1.419826e+01 
4.101420e+00 1.399754e+01 
4.136200e+00 1.380161e+01 
4.170810e+00 1.361079e+01 
4.206250e+00 1.341873e+01 
4.241580e+00 1.323122e+01 
4.276300e+00 1.305016e+01 
4.310970e+00 1.287273e+01 
4.346120e+00 1.269620e+01 
4.380600e+00 1.252597e+01 
4.414730e+00 1.236083e+01 
4.450350e+00 1.219121e+01 
4.485320e+00 1.202807e+01 
4.519810e+00 1.186982e+01 
4.555430e+00 1.170938e+01 
4.590870e+00 1.155273e+01 
4.625480e+00 1.140225e+01 
4.659910e+00 1.125543e+01 
4.695230e+00 1.110733e+01 
4.729960e+00 1.096445e+01 
4.764450e+00 1.082498e+01 
4.799530e+00 1.068538e+01 
4.834910e+00 1.054726e+01 
4.869700e+00 1.041363e+01 
4.904370e+00 1.028287e+01 
4.939450e+00 1.015289e+01 
4.973940e+00 1.002715e+01 
5.008430e+00 9.903678e+00 
5.043810e+00 9.779032e+00 
5.078840e+00 9.657696e+00 
5.113500e+00 9.539794e+00 
5.148890e+00 9.421230e+00 
5.184210e+00 9.305012e+00 
5.219060e+00 9.192312e+00 
5.253660e+00 9.082194e+00 
5.288570e+00 8.973018e+00 
5.323420e+00 8.865779e+00 
5.358440e+00 8.759722e+00 
5.393590e+00 8.655104e+00 
5.428310e+00 8.553410e+00 
5.462800e+00 8.454024e+00 
5.497640e+00 8.355309e+00 
5.532670e+00 8.257627e+00 
5.567280e+00 8.162690e+00 
5.602000e+00 8.069018e+00 
5.637270e+00 7.975287e+00 
5.672410e+00 7.883411e+00 
5.707020e+00 7.794394e+00 
5.742040e+00 7.705758e+00 
5.777430e+00 7.617638e+00 
5.812210e+00 7.532432e+00 
5.846820e+00 7.448867e+00 
5.881610e+00 7.366161e+00 
5.916510e+00 7.284501e+00 
5.951600e+00 7.203645e+00 
5.986560e+00 7.124332e+00 
6.021830e+00 7.045566e+00 
6.056490e+00 6.969375e+00 
6.091160e+00 6.894337e+00 
6.125830e+00 6.820439e+00 
6.161090e+00 6.746419e+00 
6.195760e+00 6.674722e+00 
6.230420e+00 6.604118e+00 
6.265690e+00 6.533349e+00 
6.300950e+00 6.463673e+00 
6.335620e+00 6.396181e+00 
6.370880e+00 6.328555e+00 
6.405550e+00 6.263049e+00 
6.440220e+00 6.198498e+00 
6.475480e+00 6.133804e+00 
6.510150e+00 6.071130e+00 
6.544810e+00 6.009403e+00 
6.580080e+00 5.947492e+00 
6.614750e+00 5.887502e+00 
6.649410e+00 5.828405e+00 
6.684080e+00 5.770125e+00 
6.719340e+00 5.711688e+00 
6.754010e+00 5.655063e+00 
6.788680e+00 5.599291e+00 
6.823940e+00 5.543358e+00 
6.859800e+00 5.487270e+00 
6.894470e+00 5.433820e+00 
6.929140e+00 5.381104e+00 
6.963800e+00 5.329114e+00 
6.999070e+00 5.276931e+00 
7.033730e+00 5.226427e+00 
7.068400e+00 5.176581e+00 
7.103660e+00 5.126565e+00 
7.138330e+00 5.078061e+00 
7.173600e+00 5.029419e+00 
7.208260e+00 4.982248e+00 
7.243530e+00 4.934877e+00 
7.277600e+00 4.889736e+00 
7.312860e+00 4.843646e+00 
7.348120e+00 4.798157e+00 
7.382790e+00 4.754006e+00 
7.417460e+00 4.710510e+00 
7.452720e+00 4.666888e+00 
7.487390e+00 4.624541e+00 
7.522650e+00 4.582018e+00 
7.557320e+00 4.540790e+00 
7.591990e+00 4.500096e+00 
7.627250e+00 4.459226e+00 
7.662510e+00 4.418869e+00 
7.697180e+00 4.379752e+00 
7.731850e+00 4.341141e+00 
7.766510e+00 4.303012e+00 
7.801180e+00 4.265334e+00 
7.836440e+00 4.227524e+00 
7.871110e+00 4.190825e+00 
7.906380e+00 4.153942e+00 
7.941040e+00 4.118132e+00 
7.976310e+00 4.082168e+00 
8.011570e+00 4.046693e+00 
8.046240e+00 4.012225e+00 
8.080900e+00 3.978172e+00 
8.115570e+00 3.944530e+00 
8.150830e+00 3.910804e+00 
8.185500e+00 3.878030e+00 
8.220770e+00 3.845076e+00 
8.255430e+00 3.813068e+00 
8.290100e+00 3.781504e+00 
8.324770e+00 3.750310e+00 
8.359430e+00 3.719478e+00 
8.394700e+00 3.688462e+00 
8.429960e+00 3.657858e+00 
8.464630e+00 3.628154e+00 
8.499890e+00 3.598285e+00 
8.534560e+00 3.569246e+00 
8.569200e+00 3.540553e+00 
