# Parameters:
# omega_b = 0.023043, omega_m = 0.152520, n_s = 0.971260, h = 75.551181, w = -1.000000, sigma_8 = 0.884252
# z = 1.700000
#
# k[1/Mpc] # P(k):
8.694000e-04 2.889677e+03 
2.077466e-03 6.254796e+03 
3.285532e-03 8.944945e+03 
4.493598e-03 1.108125e+04 
5.701664e-03 1.272037e+04 
6.909730e-03 1.393547e+04 
8.117797e-03 1.481469e+04 
9.325863e-03 1.540220e+04 
1.053393e-02 1.574156e+04 
1.174199e-02 1.587282e+04 
1.295006e-02 1.582259e+04 
1.415813e-02 1.562834e+04 
1.536619e-02 1.532120e+04 
1.657426e-02 1.492255e+04 
1.778233e-02 1.445346e+04 
1.899039e-02 1.394564e+04 
2.019846e-02 1.341615e+04 
2.140652e-02 1.288066e+04 
2.261459e-02 1.234777e+04 
2.382266e-02 1.182898e+04 
2.503072e-02 1.133331e+04 
2.623879e-02 1.086504e+04 
2.744685e-02 1.042546e+04 
2.865492e-02 1.001884e+04 
2.986299e-02 9.645037e+03 
3.100100e-02 9.323000e+03 
3.220400e-02 9.013395e+03 
3.288100e-02 8.853184e+03 
3.424300e-02 8.558648e+03 
3.555100e-02 8.307216e+03 
3.686000e-02 8.083342e+03 
3.795000e-02 7.914834e+03 
3.929100e-02 7.727671e+03 
4.039800e-02 7.585591e+03 
4.164000e-02 7.436034e+03 
4.294400e-02 7.285798e+03 
4.415000e-02 7.150902e+03 
4.542900e-02 7.006497e+03 
4.660900e-02 6.872766e+03 
4.782300e-02 6.727818e+03 
4.892900e-02 6.592378e+03 
5.031200e-02 6.415602e+03 
5.155900e-02 6.248066e+03 
5.238100e-02 6.134129e+03 
5.378200e-02 5.934496e+03 
5.513400e-02 5.734194e+03 
5.627600e-02 5.559655e+03 
5.735300e-02 5.391300e+03 
5.870100e-02 5.176001e+03 
5.988700e-02 4.984737e+03 
6.113500e-02 4.784034e+03 
6.225900e-02 4.607118e+03 
6.340100e-02 4.435057e+03 
6.480200e-02 4.238381e+03 
6.601100e-02 4.085163e+03 
6.725500e-02 3.944276e+03 
6.829100e-02 3.840809e+03 
6.958600e-02 3.725399e+03 
7.071100e-02 3.637936e+03 
7.192300e-02 3.554626e+03 
7.307400e-02 3.484694e+03 
7.412300e-02 3.427650e+03 
7.550400e-02 3.361611e+03 
7.663100e-02 3.313178e+03 
7.791200e-02 3.264204e+03 
7.912700e-02 3.221789e+03 
8.027600e-02 3.183951e+03 
8.138400e-02 3.148798e+03 
8.272200e-02 3.107190e+03 
8.406100e-02 3.065396e+03 
8.534100e-02 3.023749e+03 
8.653800e-02 2.982515e+03 
8.759800e-02 2.944473e+03 
8.900300e-02 2.891212e+03 
9.009000e-02 2.847292e+03 
9.113300e-02 2.802493e+03 
9.239600e-02 2.746541e+03 
9.358000e-02 2.691704e+03 
9.496100e-02 2.624565e+03 
9.608400e-02 2.569128e+03 
9.727500e-02 2.510147e+03 
9.852600e-02 2.446461e+03 
9.973800e-02 2.385806e+03 
1.009000e-01 2.328706e+03 
1.020900e-01 2.271337e+03 
1.034000e-01 2.210555e+03 
1.046000e-01 2.157059e+03 
1.057200e-01 2.110153e+03 
1.069100e-01 2.062519e+03 
1.082500e-01 2.012971e+03 
1.093900e-01 1.974028e+03 
1.105400e-01 1.936932e+03 
1.116900e-01 1.903820e+03 
1.129600e-01 1.869330e+03 
1.142000e-01 1.839453e+03 
1.153300e-01 1.814063e+03 
1.166400e-01 1.787154e+03 
1.177800e-01 1.765804e+03 
1.190000e-01 1.744197e+03 
1.201200e-01 1.725914e+03 
1.213400e-01 1.706664e+03 
1.227100e-01 1.686185e+03 
1.238900e-01 1.668935e+03 
1.250700e-01 1.651816e+03 
1.263200e-01 1.633783e+03 
1.275500e-01 1.615731e+03 
1.287500e-01 1.597905e+03 
1.299900e-01 1.578922e+03 
1.311300e-01 1.561070e+03 
1.323500e-01 1.541197e+03 
1.335900e-01 1.520560e+03 
1.347100e-01 1.501144e+03 
1.359800e-01 1.478898e+03 
1.372100e-01 1.456418e+03 
1.384300e-01 1.434131e+03 
1.395700e-01 1.412576e+03 
1.407700e-01 1.390273e+03 
1.420300e-01 1.366234e+03 
1.432800e-01 1.342954e+03 
1.444500e-01 1.321141e+03 
1.456300e-01 1.299631e+03 
1.468900e-01 1.277385e+03 
1.480500e-01 1.257422e+03 
1.491700e-01 1.238907e+03 
1.503800e-01 1.219777e+03 
1.516400e-01 1.200537e+03 
1.528200e-01 1.183965e+03 
1.540200e-01 1.167454e+03 
1.551900e-01 1.152819e+03 
1.564300e-01 1.137891e+03 
1.576600e-01 1.123969e+03 
1.588700e-01 1.111248e+03 
1.600900e-01 1.098713e+03 
1.612700e-01 1.087725e+03 
1.625400e-01 1.076118e+03 
1.637600e-01 1.065447e+03 
1.649500e-01 1.055383e+03 
1.662200e-01 1.044829e+03 
1.674000e-01 1.035151e+03 
1.685000e-01 1.026279e+03 
1.697500e-01 1.016119e+03 
1.710300e-01 1.005657e+03 
1.722200e-01 9.961027e+02 
1.734400e-01 9.857689e+02 
1.746400e-01 9.757503e+02 
1.758700e-01 9.654093e+02 
1.770900e-01 9.548237e+02 
1.782700e-01 9.447596e+02 
1.794600e-01 9.344060e+02 
1.807000e-01 9.235515e+02 
1.819100e-01 9.131434e+02 
1.830100e-01 9.035235e+02 
1.842200e-01 8.930609e+02 
1.855000e-01 8.821815e+02 
1.867000e-01 8.720353e+02 
1.879200e-01 8.618943e+02 
1.890900e-01 8.523437e+02 
1.902800e-01 8.428570e+02 
1.915200e-01 8.331360e+02 
1.926900e-01 8.241698e+02 
1.939000e-01 8.152270e+02 
1.951700e-01 8.059958e+02 
1.963100e-01 7.979196e+02 
1.975100e-01 7.897565e+02 
1.987800e-01 7.812554e+02 
2.000100e-01 7.732385e+02 
2.012500e-01 7.654789e+02 
2.023400e-01 7.587580e+02 
2.036100e-01 7.510865e+02 
2.048900e-01 7.436461e+02 
2.060400e-01 7.370610e+02 
2.072200e-01 7.304094e+02 
2.084200e-01 7.238537e+02 
2.096900e-01 7.170185e+02 
2.109200e-01 7.104975e+02 
2.121100e-01 7.043082e+02 
2.132700e-01 6.983600e+02 
2.145200e-01 6.920410e+02 
2.157200e-01 6.860438e+02 
2.168800e-01 6.803178e+02 
2.180700e-01 6.745235e+02 
2.193400e-01 6.684047e+02 
2.206000e-01 6.623808e+02 
2.217500e-01 6.569583e+02 
2.229500e-01 6.513753e+02 
2.241400e-01 6.458459e+02 
2.253500e-01 6.402976e+02 
2.264900e-01 6.351391e+02 
2.277100e-01 6.296649e+02 
2.289900e-01 6.239721e+02 
2.301500e-01 6.188825e+02 
2.313600e-01 6.136424e+02 
2.325600e-01 6.084823e+02 
2.337700e-01 6.033475e+02 
2.350000e-01 5.981969e+02 
2.362000e-01 5.932346e+02 
2.374100e-01 5.882919e+02 
2.386500e-01 5.832929e+02 
2.399100e-01 5.782808e+02 
2.410400e-01 5.738567e+02 
2.422500e-01 5.691795e+02 
2.435000e-01 5.644099e+02 
2.447300e-01 5.597825e+02 
2.458700e-01 5.555676e+02 
2.470600e-01 5.512206e+02 
2.483300e-01 5.466398e+02 
2.495600e-01 5.422734e+02 
2.507600e-01 5.380844e+02 
2.519600e-01 5.339461e+02 
2.532200e-01 5.296546e+02 
2.543700e-01 5.258021e+02 
2.555500e-01 5.219066e+02 
2.568000e-01 5.178296e+02 
2.580100e-01 5.139308e+02 
2.592400e-01 5.100302e+02 
2.604100e-01 5.063700e+02 
2.616100e-01 5.026590e+02 
2.628400e-01 4.988998e+02 
2.640600e-01 4.952289e+02 
2.652200e-01 4.917838e+02 
2.664300e-01 4.882306e+02 
2.676500e-01 4.846892e+02 
2.688400e-01 4.812800e+02 
2.700700e-01 4.777998e+02 
2.712400e-01 4.745264e+02 
2.724800e-01 4.710959e+02 
2.736700e-01 4.678450e+02 
2.748800e-01 4.645801e+02 
2.761000e-01 4.613249e+02 
2.773200e-01 4.581060e+02 
2.785400e-01 4.549234e+02 
2.797000e-01 4.519314e+02 
2.808900e-01 4.488946e+02 
2.821400e-01 4.457395e+02 
2.833900e-01 4.426196e+02 
2.845500e-01 4.397547e+02 
2.857800e-01 4.367490e+02 
2.870300e-01 4.337279e+02 
2.882100e-01 4.309064e+02 
2.893900e-01 4.281146e+02 
2.906300e-01 4.252122e+02 
2.918900e-01 4.222949e+02 
2.930500e-01 4.196372e+02 
2.942500e-01 4.169153e+02 
2.954200e-01 4.142869e+02 
2.966500e-01 4.115521e+02 
2.978900e-01 4.088240e+02 
2.990400e-01 4.063195e+02 
3.002700e-01 4.036670e+02 
3.015100e-01 4.010204e+02 
3.026800e-01 3.985485e+02 
3.038500e-01 3.961006e+02 
3.050300e-01 3.936559e+02 
3.062600e-01 3.911319e+02 
3.075000e-01 3.886134e+02 
3.087000e-01 3.862005e+02 
3.099100e-01 3.837915e+02 
3.111200e-01 3.814069e+02 
3.123100e-01 3.790858e+02 
3.135300e-01 3.767293e+02 
3.147300e-01 3.744340e+02 
3.159900e-01 3.720478e+02 
3.171800e-01 3.698178e+02 
3.183700e-01 3.676102e+02 
3.196300e-01 3.652953e+02 
3.208400e-01 3.630941e+02 
3.220300e-01 3.609496e+02 
3.232000e-01 3.588642e+02 
3.244300e-01 3.566938e+02 
3.256700e-01 3.545268e+02 
3.269200e-01 3.523633e+02 
3.280800e-01 3.503744e+02 
3.292500e-01 3.483914e+02 
3.304800e-01 3.463276e+02 
3.317100e-01 3.442831e+02 
3.328900e-01 3.423397e+02 
3.340700e-01 3.404137e+02 
3.353600e-01 3.383334e+02 
3.365300e-01 3.364661e+02 
3.377100e-01 3.345995e+02 
3.389200e-01 3.327025e+02 
3.401600e-01 3.307762e+02 
3.413700e-01 3.289194e+02 
3.425300e-01 3.271591e+02 
3.437700e-01 3.252939e+02 
3.449800e-01 3.234902e+02 
3.461800e-01 3.217171e+02 
3.473600e-01 3.199914e+02 
3.485800e-01 3.182293e+02 
3.498100e-01 3.164684e+02 
3.510200e-01 3.147514e+02 
3.522000e-01 3.130913e+02 
3.533900e-01 3.114313e+02 
3.546400e-01 3.097122e+02 
3.558400e-01 3.080768e+02 
3.570600e-01 3.064283e+02 
3.582700e-01 3.048073e+02 
3.595000e-01 3.031736e+02 
3.607100e-01 3.015858e+02 
3.618900e-01 3.000546e+02 
3.631200e-01 2.984719e+02 
3.643200e-01 2.969408e+02 
3.655500e-01 2.953845e+02 
3.667300e-01 2.939038e+02 
3.679500e-01 2.923952e+02 
3.691900e-01 2.908748e+02 
3.703600e-01 2.894519e+02 
3.715700e-01 2.879923e+02 
3.727700e-01 2.865565e+02 
3.739900e-01 2.851118e+02 
3.752000e-01 2.836966e+02 
3.763900e-01 2.823158e+02 
3.775800e-01 2.809460e+02 
3.788200e-01 2.795302e+02 
3.800300e-01 2.781597e+02 
3.812100e-01 2.768386e+02 
3.824200e-01 2.754977e+02 
3.836100e-01 2.741893e+02 
3.848600e-01 2.728259e+02 
3.860400e-01 2.715490e+02 
3.872400e-01 2.702605e+02 
3.884600e-01 2.689667e+02 
3.896500e-01 2.677167e+02 
3.908700e-01 2.664451e+02 
3.920600e-01 2.652143e+02 
3.933100e-01 2.639315e+02 
3.945300e-01 2.626893e+02 
3.957200e-01 2.614929e+02 
3.969300e-01 2.602873e+02 
3.981700e-01 2.590613e+02 
3.993500e-01 2.579035e+02 
4.094840e-01 2.483324e+02 
4.272360e-01 2.330794e+02 
4.454600e-01 2.191096e+02 
4.630560e-01 2.069999e+02 
4.804610e-01 1.961647e+02 
4.980690e-01 1.862067e+02 
5.159230e-01 1.770034e+02 
5.317440e-01 1.695136e+02 
5.489640e-01 1.619914e+02 
5.671990e-01 1.546697e+02 
5.838690e-01 1.484889e+02 
6.018840e-01 1.423099e+02 
6.202330e-01 1.365000e+02 
6.379250e-01 1.313041e+02 
6.545410e-01 1.267669e+02 
6.714560e-01 1.224487e+02 
6.892080e-01 1.182165e+02 
7.066010e-01 1.143475e+02 
7.240540e-01 1.107065e+02 
7.420450e-01 1.071970e+02 
7.593780e-01 1.040256e+02 
7.764720e-01 1.010791e+02 
7.942840e-01 9.818740e+01 
8.116170e-01 9.553677e+01 
8.288310e-01 9.304941e+01 
8.462240e-01 9.067127e+01 
8.631980e-01 8.847040e+01 
8.810700e-01 8.627169e+01 
8.989410e-01 8.418501e+01 
9.166330e-01 8.222186e+01 
9.345640e-01 8.033041e+01 
9.515980e-01 7.861623e+01 
9.688720e-01 7.695404e+01 
9.865640e-01 7.532833e+01 
1.031870e+00 7.146862e+01 
1.063490e+00 6.900801e+01 
1.097920e+00 6.652210e+01 
1.134370e+00 6.407669e+01 
1.167730e+00 6.199230e+01 
1.203830e+00 5.987998e+01 
1.240470e+00 5.787501e+01 
1.275790e+00 5.605994e+01 
1.309140e+00 5.444455e+01 
1.342970e+00 5.288713e+01 
1.378420e+00 5.134374e+01 
1.413200e+00 4.990715e+01 
1.448110e+00 4.853541e+01 
1.484090e+00 4.719049e+01 
1.518820e+00 4.595313e+01 
1.552880e+00 4.479259e+01 
1.588630e+00 4.362740e+01 
1.623230e+00 4.254827e+01 
1.657720e+00 4.151714e+01 
1.692450e+00 4.052081e+01 
1.726400e+00 3.958386e+01 
1.762200e+00 3.863275e+01 
1.797880e+00 3.772189e+01 
1.833270e+00 3.685306e+01 
1.869070e+00 3.600596e+01 
1.903200e+00 3.522685e+01 
1.937740e+00 3.446586e+01 
1.973190e+00 3.371141e+01 
2.007440e+00 3.300713e+01 
2.042160e+00 3.231587e+01 
2.077900e+00 3.162735e+01 
2.112390e+00 3.098515e+01 
2.146220e+00 3.037325e+01 
2.181600e+00 2.975339e+01 
2.216930e+00 2.915286e+01 
2.250760e+00 2.859517e+01 
2.286500e+00 2.802376e+01 
2.321770e+00 2.747661e+01 
2.355950e+00 2.696137e+01 
2.391280e+00 2.644264e+01 
2.426240e+00 2.594377e+01 
2.460670e+00 2.546651e+01 
2.495640e+00 2.499573e+01 
2.531080e+00 2.453021e+01 
2.566220e+00 2.408071e+01 
2.600830e+00 2.364994e+01 
2.635080e+00 2.323508e+01 
2.670340e+00 2.281799e+01 
2.705970e+00 2.240750e+01 
2.740040e+00 2.202516e+01 
2.774520e+00 2.164715e+01 
2.809730e+00 2.127017e+01 
2.844390e+00 2.090862e+01 
2.879960e+00 2.054665e+01 
2.914860e+00 2.019945e+01 
2.949410e+00 1.986424e+01 
2.984440e+00 1.953171e+01 
3.019760e+00 1.920428e+01 
3.054730e+00 1.888815e+01 
3.089030e+00 1.858398e+01 
3.124060e+00 1.828090e+01 
3.159560e+00 1.798084e+01 
3.194710e+00 1.768997e+01 
3.229010e+00 1.741296e+01 
3.263320e+00 1.714054e+01 
3.297930e+00 1.687221e+01 
3.332830e+00 1.660727e+01 
3.368040e+00 1.634572e+01 
3.403300e+00 1.608970e+01 
3.438450e+00 1.583936e+01 
3.473060e+00 1.559868e+01 
3.508440e+00 1.535665e+01 
3.543110e+00 1.512509e+01 
3.577470e+00 1.489979e+01 
3.613040e+00 1.467171e+01 
3.648120e+00 1.445082e+01 
3.682910e+00 1.423650e+01 
3.718050e+00 1.402421e+01 
3.753320e+00 1.381549e+01 
3.787980e+00 1.361414e+01 
3.822290e+00 1.341887e+01 
3.857020e+00 1.322490e+01 
3.891920e+00 1.303390e+01 
3.926650e+00 1.284718e+01 
3.961970e+00 1.266121e+01 
3.997360e+00 1.247818e+01 
4.031670e+00 1.230444e+01 
4.066330e+00 1.213180e+01 
4.101420e+00 1.196077e+01 
4.136200e+00 1.179374e+01 
4.170810e+00 1.163107e+01 
4.206250e+00 1.146726e+01 
4.241580e+00 1.130730e+01 
4.276300e+00 1.115282e+01 
4.310970e+00 1.100142e+01 
4.346120e+00 1.085075e+01 
4.380600e+00 1.070541e+01 
4.414730e+00 1.056441e+01 
4.450350e+00 1.041948e+01 
4.485320e+00 1.028009e+01 
4.519810e+00 1.014487e+01 
4.555430e+00 1.000778e+01 
4.590870e+00 9.873882e+00 
4.625480e+00 9.745177e+00 
4.659910e+00 9.619608e+00 
4.695230e+00 9.492854e+00 
4.729960e+00 9.370555e+00 
4.764450e+00 9.251202e+00 
4.799530e+00 9.131769e+00 
4.834910e+00 9.013607e+00 
4.869700e+00 8.899148e+00 
4.904370e+00 8.787124e+00 
4.939450e+00 8.675769e+00 
4.973940e+00 8.568025e+00 
5.008430e+00 8.462229e+00 
5.043810e+00 8.355403e+00 
5.078840e+00 8.251403e+00 
5.113500e+00 8.150348e+00 
5.148890e+00 8.048685e+00 
5.184210e+00 7.949035e+00 
5.219060e+00 7.852392e+00 
5.253660e+00 7.757937e+00 
5.288570e+00 7.664292e+00 
5.323420e+00 7.572275e+00 
5.358440e+00 7.481236e+00 
5.393590e+00 7.391436e+00 
5.428310e+00 7.304154e+00 
5.462800e+00 7.218859e+00 
5.497640e+00 7.134143e+00 
5.532670e+00 7.050261e+00 
5.567280e+00 6.968722e+00 
5.602000e+00 6.888273e+00 
5.637270e+00 6.807759e+00 
5.672410e+00 6.728838e+00 
5.707020e+00 6.652377e+00 
5.742040e+00 6.576204e+00 
5.777430e+00 6.500469e+00 
5.812210e+00 6.427241e+00 
5.846820e+00 6.355430e+00 
5.881610e+00 6.284362e+00 
5.916510e+00 6.214194e+00 
5.951600e+00 6.144717e+00 
5.986560e+00 6.076566e+00 
6.021830e+00 6.008889e+00 
6.056490e+00 5.943395e+00 
6.091160e+00 5.878871e+00 
6.125830e+00 5.815329e+00 
6.161090e+00 5.751685e+00 
6.195760e+00 5.690037e+00 
6.230420e+00 5.629332e+00 
6.265690e+00 5.568489e+00 
6.300950e+00 5.508595e+00 
6.335620e+00 5.450580e+00 
6.370880e+00 5.392454e+00 
6.405550e+00 5.336138e+00 
6.440220e+00 5.280641e+00 
6.475480e+00 5.225024e+00 
6.510150e+00 5.171146e+00 
6.544810e+00 5.118085e+00 
6.580080e+00 5.064868e+00 
6.614750e+00 5.013306e+00 
6.649410e+00 4.962503e+00 
6.684080e+00 4.912403e+00 
6.719340e+00 4.862171e+00 
6.754010e+00 4.813499e+00 
6.788680e+00 4.765558e+00 
6.823940e+00 4.717481e+00 
6.859800e+00 4.669275e+00 
6.894470e+00 4.623357e+00 
6.929140e+00 4.578080e+00 
6.963800e+00 4.533429e+00 
6.999070e+00 4.488614e+00 
7.033730e+00 4.445232e+00 
7.068400e+00 4.402418e+00 
7.103660e+00 4.359459e+00 
7.138330e+00 4.317804e+00 
7.173600e+00 4.276034e+00 
7.208260e+00 4.235529e+00 
7.243530e+00 4.194854e+00 
7.277600e+00 4.156114e+00 
7.312860e+00 4.116575e+00 
7.348120e+00 4.077554e+00 
7.382790e+00 4.039683e+00 
7.417460e+00 4.002358e+00 
7.452720e+00 3.964918e+00 
7.487390e+00 3.928574e+00 
7.522650e+00 3.892082e+00 
7.557320e+00 3.856715e+00 
7.591990e+00 3.821813e+00 
7.627250e+00 3.786763e+00 
7.662510e+00 3.752154e+00 
7.697180e+00 3.718624e+00 
7.731850e+00 3.685535e+00 
7.766510e+00 3.652859e+00 
7.801180e+00 3.620573e+00 
7.836440e+00 3.588185e+00 
7.871110e+00 3.556756e+00 
7.906380e+00 3.525171e+00 
7.941040e+00 3.494507e+00 
7.976310e+00 3.463720e+00 
8.011570e+00 3.433361e+00 
8.046240e+00 3.403865e+00 
8.080900e+00 3.374726e+00 
8.115570e+00 3.345941e+00 
8.150830e+00 3.317094e+00 
8.185500e+00 3.289063e+00 
8.220770e+00 3.260879e+00 
8.255430e+00 3.233505e+00 
8.290100e+00 3.206526e+00 
8.324770e+00 3.179866e+00 
8.359430e+00 3.153517e+00 
8.394700e+00 3.127012e+00 
8.429960e+00 3.100863e+00 
8.464630e+00 3.075490e+00 
8.499890e+00 3.049977e+00 
8.534560e+00 3.025173e+00 
8.569200e+00 3.000666e+00 
