# Parameters:
# omega_b = 0.023374, omega_m = 0.142323, n_s = 0.873622, h = 66.811024, w = -1.000000, sigma_8 = 0.728346
# z = 1.700000
#
# k[1/Mpc] # P(k):
8.694000e-04 4.236677e+03 
2.077466e-03 8.379084e+03 
3.285532e-03 1.139580e+04 
4.493598e-03 1.360127e+04 
5.701664e-03 1.515580e+04 
6.909730e-03 1.619044e+04 
8.117797e-03 1.683351e+04 
9.325863e-03 1.715085e+04 
1.053393e-02 1.720411e+04 
1.174199e-02 1.704734e+04 
1.295006e-02 1.671509e+04 
1.415813e-02 1.625144e+04 
1.536619e-02 1.569353e+04 
1.657426e-02 1.506614e+04 
1.778233e-02 1.439141e+04 
1.899039e-02 1.370206e+04 
2.019846e-02 1.301502e+04 
2.140652e-02 1.234505e+04 
2.261459e-02 1.169988e+04 
2.382266e-02 1.108936e+04 
2.503072e-02 1.052026e+04 
2.623879e-02 9.994752e+03 
2.744685e-02 9.513143e+03 
2.865492e-02 9.076459e+03 
2.986299e-02 8.682377e+03 
3.100100e-02 8.349049e+03 
3.220400e-02 8.033562e+03 
3.288100e-02 7.872313e+03 
3.424300e-02 7.578723e+03 
3.555100e-02 7.330424e+03 
3.686000e-02 7.110611e+03 
3.795000e-02 6.945341e+03 
3.929100e-02 6.761044e+03 
4.039800e-02 6.620013e+03 
4.164000e-02 6.470348e+03 
4.294400e-02 6.317763e+03 
4.415000e-02 6.179500e+03 
4.542900e-02 6.030088e+03 
4.660900e-02 5.891195e+03 
4.782300e-02 5.740422e+03 
4.892900e-02 5.600018e+03 
5.031200e-02 5.417930e+03 
5.155900e-02 5.247088e+03 
5.238100e-02 5.132103e+03 
5.378200e-02 4.933446e+03 
5.513400e-02 4.739218e+03 
5.627600e-02 4.575173e+03 
5.735300e-02 4.422419e+03 
5.870100e-02 4.235799e+03 
5.988700e-02 4.077890e+03 
6.113500e-02 3.919085e+03 
6.225900e-02 3.783529e+03 
6.340100e-02 3.653745e+03 
6.480200e-02 3.505386e+03 
6.601100e-02 3.387846e+03 
6.725500e-02 3.276657e+03 
6.829100e-02 3.192140e+03 
6.958600e-02 3.095031e+03 
7.071100e-02 3.018931e+03 
7.192300e-02 2.944547e+03 
7.307400e-02 2.880664e+03 
7.412300e-02 2.827608e+03 
7.550400e-02 2.764982e+03 
7.663100e-02 2.718406e+03 
7.791200e-02 2.670553e+03 
7.912700e-02 2.628682e+03 
8.027600e-02 2.591177e+03 
8.138400e-02 2.556334e+03 
8.272200e-02 2.515286e+03 
8.406100e-02 2.474493e+03 
8.534100e-02 2.434580e+03 
8.653800e-02 2.395837e+03 
8.759800e-02 2.360613e+03 
8.900300e-02 2.312131e+03 
9.009000e-02 2.272854e+03 
9.113300e-02 2.233399e+03 
9.239600e-02 2.184625e+03 
9.358000e-02 2.137404e+03 
9.496100e-02 2.080310e+03 
9.608400e-02 2.033530e+03 
9.727500e-02 1.984034e+03 
9.852600e-02 1.931072e+03 
9.973800e-02 1.880810e+03 
1.009000e-01 1.833641e+03 
1.020900e-01 1.786436e+03 
1.034000e-01 1.736485e+03 
1.046000e-01 1.692572e+03 
1.057200e-01 1.654044e+03 
1.069100e-01 1.614909e+03 
1.082500e-01 1.574088e+03 
1.093900e-01 1.541895e+03 
1.105400e-01 1.511168e+03 
1.116900e-01 1.483521e+03 
1.129600e-01 1.454645e+03 
1.142000e-01 1.429371e+03 
1.153300e-01 1.407778e+03 
1.166400e-01 1.384700e+03 
1.177800e-01 1.366201e+03 
1.190000e-01 1.347384e+03 
1.201200e-01 1.331305e+03 
1.213400e-01 1.314344e+03 
1.227100e-01 1.296186e+03 
1.238900e-01 1.280893e+03 
1.250700e-01 1.265745e+03 
1.263200e-01 1.249835e+03 
1.275500e-01 1.234015e+03 
1.287500e-01 1.218491e+03 
1.299900e-01 1.202110e+03 
1.311300e-01 1.186829e+03 
1.323500e-01 1.169997e+03 
1.335900e-01 1.152655e+03 
1.347100e-01 1.136509e+03 
1.359800e-01 1.118114e+03 
1.372100e-01 1.099719e+03 
1.384300e-01 1.081557e+03 
1.395700e-01 1.064149e+03 
1.407700e-01 1.046162e+03 
1.420300e-01 1.026929e+03 
1.432800e-01 1.008316e+03 
1.444500e-01 9.909482e+02 
1.456300e-01 9.738323e+02 
1.468900e-01 9.561339e+02 
1.480500e-01 9.402602e+02 
1.491700e-01 9.255112e+02 
1.503800e-01 9.102366e+02 
1.516400e-01 8.948610e+02 
1.528200e-01 8.815209e+02 
1.540200e-01 8.682384e+02 
1.551900e-01 8.563457e+02 
1.564300e-01 8.441891e+02 
1.576600e-01 8.327893e+02 
1.588700e-01 8.222917e+02 
1.600900e-01 8.119474e+02 
1.612700e-01 8.027726e+02 
1.625400e-01 7.930849e+02 
1.637600e-01 7.841588e+02 
1.649500e-01 7.757296e+02 
1.662200e-01 7.668975e+02 
1.674000e-01 7.588294e+02 
1.685000e-01 7.514351e+02 
1.697500e-01 7.430264e+02 
1.710300e-01 7.344249e+02 
1.722200e-01 7.265722e+02 
1.734400e-01 7.182115e+02 
1.746400e-01 7.101144e+02 
1.758700e-01 7.018019e+02 
1.770900e-01 6.933792e+02 
1.782700e-01 6.853752e+02 
1.794600e-01 6.771991e+02 
1.807000e-01 6.686670e+02 
1.819100e-01 6.604899e+02 
1.830100e-01 6.529793e+02 
1.842200e-01 6.448222e+02 
1.855000e-01 6.363453e+02 
1.867000e-01 6.284596e+02 
1.879200e-01 6.205819e+02 
1.890900e-01 6.131651e+02 
1.902800e-01 6.057935e+02 
1.915200e-01 5.982438e+02 
1.926900e-01 5.912780e+02 
1.939000e-01 5.843147e+02 
1.951700e-01 5.771306e+02 
1.963100e-01 5.708408e+02 
1.975100e-01 5.644656e+02 
1.987800e-01 5.578296e+02 
2.000100e-01 5.515666e+02 
2.012500e-01 5.454885e+02 
2.023400e-01 5.402265e+02 
2.036100e-01 5.342198e+02 
2.048900e-01 5.283849e+02 
2.060400e-01 5.232231e+02 
2.072200e-01 5.180110e+02 
2.084200e-01 5.128731e+02 
2.096900e-01 5.075184e+02 
2.109200e-01 5.024120e+02 
2.121100e-01 4.975749e+02 
2.132700e-01 4.929285e+02 
2.145200e-01 4.879944e+02 
2.157200e-01 4.833198e+02 
2.168800e-01 4.788612e+02 
2.180700e-01 4.743512e+02 
2.193400e-01 4.695953e+02 
2.206000e-01 4.649234e+02 
2.217500e-01 4.607197e+02 
2.229500e-01 4.563933e+02 
2.241400e-01 4.521154e+02 
2.253500e-01 4.478250e+02 
2.264900e-01 4.438375e+02 
2.277100e-01 4.396087e+02 
2.289900e-01 4.352137e+02 
2.301500e-01 4.312862e+02 
2.313600e-01 4.272443e+02 
2.325600e-01 4.232610e+02 
2.337700e-01 4.192990e+02 
2.350000e-01 4.153266e+02 
2.362000e-01 4.114975e+02 
2.374100e-01 4.076808e+02 
2.386500e-01 4.038225e+02 
2.399100e-01 3.999560e+02 
2.410400e-01 3.965390e+02 
2.422500e-01 3.929273e+02 
2.435000e-01 3.892462e+02 
2.447300e-01 3.856754e+02 
2.458700e-01 3.824200e+02 
2.470600e-01 3.790642e+02 
2.483300e-01 3.755297e+02 
2.495600e-01 3.721619e+02 
2.507600e-01 3.689321e+02 
2.519600e-01 3.657429e+02 
2.532200e-01 3.624372e+02 
2.543700e-01 3.594739e+02 
2.555500e-01 3.564807e+02 
2.568000e-01 3.533494e+02 
2.580100e-01 3.503565e+02 
2.592400e-01 3.473691e+02 
2.604100e-01 3.445695e+02 
2.616100e-01 3.417323e+02 
2.628400e-01 3.388595e+02 
2.640600e-01 3.360625e+02 
2.652200e-01 3.334414e+02 
2.664300e-01 3.307392e+02 
2.676500e-01 3.280471e+02 
2.688400e-01 3.254621e+02 
2.700700e-01 3.228278e+02 
2.712400e-01 3.203511e+02 
2.724800e-01 3.177567e+02 
2.736700e-01 3.153025e+02 
2.748800e-01 3.128424e+02 
2.761000e-01 3.103906e+02 
2.773200e-01 3.079670e+02 
2.785400e-01 3.055734e+02 
2.797000e-01 3.033276e+02 
2.808900e-01 3.010489e+02 
2.821400e-01 2.986824e+02 
2.833900e-01 2.963433e+02 
2.845500e-01 2.941975e+02 
2.857800e-01 2.919471e+02 
2.870300e-01 2.896860e+02 
2.882100e-01 2.875751e+02 
2.893900e-01 2.854871e+02 
2.906300e-01 2.833171e+02 
2.918900e-01 2.811368e+02 
2.930500e-01 2.791513e+02 
2.942500e-01 2.771184e+02 
2.954200e-01 2.751555e+02 
2.966500e-01 2.731139e+02 
2.978900e-01 2.710780e+02 
2.990400e-01 2.692097e+02 
3.002700e-01 2.672310e+02 
3.015100e-01 2.652571e+02 
3.026800e-01 2.634141e+02 
3.038500e-01 2.615897e+02 
3.050300e-01 2.597684e+02 
3.062600e-01 2.578868e+02 
3.075000e-01 2.560099e+02 
3.087000e-01 2.542125e+02 
3.099100e-01 2.524187e+02 
3.111200e-01 2.506435e+02 
3.123100e-01 2.489154e+02 
3.135300e-01 2.471618e+02 
3.147300e-01 2.454544e+02 
3.159900e-01 2.436801e+02 
3.171800e-01 2.420226e+02 
3.183700e-01 2.403822e+02 
3.196300e-01 2.386628e+02 
3.208400e-01 2.370285e+02 
3.220300e-01 2.354370e+02 
3.232000e-01 2.338899e+02 
3.244300e-01 2.322803e+02 
3.256700e-01 2.306739e+02 
3.269200e-01 2.290708e+02 
3.280800e-01 2.275976e+02 
3.292500e-01 2.261300e+02 
3.304800e-01 2.246034e+02 
3.317100e-01 2.230917e+02 
3.328900e-01 2.216553e+02 
3.340700e-01 2.202323e+02 
3.353600e-01 2.186973e+02 
3.365300e-01 2.173207e+02 
3.377100e-01 2.159450e+02 
3.389200e-01 2.145474e+02 
3.401600e-01 2.131288e+02 
3.413700e-01 2.117634e+02 
3.425300e-01 2.104703e+02 
3.437700e-01 2.091008e+02 
3.449800e-01 2.077769e+02 
3.461800e-01 2.064760e+02 
3.473600e-01 2.052110e+02 
3.485800e-01 2.039218e+02 
3.498100e-01 2.026340e+02 
3.510200e-01 2.013788e+02 
3.522000e-01 2.001655e+02 
3.533900e-01 1.989528e+02 
3.546400e-01 1.977007e+02 
3.558400e-01 1.965101e+02 
3.570600e-01 1.953105e+02 
3.582700e-01 1.941312e+02 
3.595000e-01 1.929432e+02 
3.607100e-01 1.917906e+02 
3.618900e-01 1.906808e+02 
3.631200e-01 1.895340e+02 
3.643200e-01 1.884250e+02 
3.655500e-01 1.872981e+02 
3.667300e-01 1.862264e+02 
3.679500e-01 1.851387e+02 
3.691900e-01 1.840429e+02 
3.703600e-01 1.830177e+02 
3.715700e-01 1.819663e+02 
3.727700e-01 1.809324e+02 
3.739900e-01 1.798935e+02 
3.752000e-01 1.788780e+02 
3.763900e-01 1.778876e+02 
3.775800e-01 1.769054e+02 
3.788200e-01 1.758904e+02 
3.800300e-01 1.749083e+02 
3.812100e-01 1.739638e+02 
3.824200e-01 1.730069e+02 
3.836100e-01 1.720734e+02 
3.848600e-01 1.711009e+02 
3.860400e-01 1.701904e+02 
3.872400e-01 1.692719e+02 
3.884600e-01 1.683521e+02 
3.896500e-01 1.674645e+02 
3.908700e-01 1.665618e+02 
3.920600e-01 1.656883e+02 
3.933100e-01 1.647781e+02 
3.945300e-01 1.638971e+02 
3.957200e-01 1.630509e+02 
3.969300e-01 1.621992e+02 
3.981700e-01 1.613332e+02 
3.993500e-01 1.605156e+02 
4.094840e-01 1.537773e+02 
4.272360e-01 1.431272e+02 
4.454600e-01 1.334539e+02 
4.630560e-01 1.251263e+02 
4.804610e-01 1.177195e+02 
4.980690e-01 1.109462e+02 
5.159230e-01 1.047181e+02 
5.317440e-01 9.967106e+01 
5.489640e-01 9.462628e+01 
5.671990e-01 8.973734e+01 
5.838690e-01 8.562848e+01 
6.018840e-01 8.153597e+01 
6.202330e-01 7.770420e+01 
6.379250e-01 7.429120e+01 
6.545410e-01 7.132128e+01 
6.714560e-01 6.850281e+01 
6.892080e-01 6.575040e+01 
7.066010e-01 6.324047e+01 
7.240540e-01 6.088724e+01 
7.420450e-01 5.862397e+01 
7.593780e-01 5.658467e+01 
7.764720e-01 5.469507e+01 
7.942840e-01 5.284564e+01 
8.116170e-01 5.115450e+01 
8.288310e-01 4.957246e+01 
8.462240e-01 4.806336e+01 
8.631980e-01 4.667123e+01 
8.810700e-01 4.528468e+01 
8.989410e-01 4.397317e+01 
9.166330e-01 4.274346e+01 
9.345640e-01 4.156184e+01 
9.515980e-01 4.049482e+01 
9.688720e-01 3.946454e+01 
9.865640e-01 3.846020e+01 
1.031870e+00 3.609346e+01 
1.063490e+00 3.459867e+01 
1.097920e+00 3.309951e+01 
1.134370e+00 3.163909e+01 
1.167730e+00 3.040482e+01 
1.203830e+00 2.916737e+01 
1.240470e+00 2.800339e+01 
1.275790e+00 2.696027e+01 
1.309140e+00 2.603931e+01 
1.342970e+00 2.516241e+01 
1.378420e+00 2.429975e+01 
1.413200e+00 2.350464e+01 
1.448110e+00 2.275231e+01 
1.484090e+00 2.202122e+01 
1.518820e+00 2.135469e+01 
1.552880e+00 2.073527e+01 
1.588630e+00 2.011839e+01 
1.623230e+00 1.955182e+01 
1.657720e+00 1.901453e+01 
1.692450e+00 1.849932e+01 
1.726400e+00 1.801862e+01 
1.762200e+00 1.753444e+01 
1.797880e+00 1.707420e+01 
1.833270e+00 1.663798e+01 
1.869070e+00 1.621569e+01 
1.903200e+00 1.583012e+01 
1.937740e+00 1.545553e+01 
1.973190e+00 1.508630e+01 
2.007440e+00 1.474359e+01 
2.042160e+00 1.440942e+01 
2.077900e+00 1.407846e+01 
2.112390e+00 1.377101e+01 
2.146220e+00 1.347999e+01 
2.181600e+00 1.318654e+01 
2.216930e+00 1.290380e+01 
2.250760e+00 1.264230e+01 
2.286500e+00 1.237541e+01 
2.321770e+00 1.212100e+01 
2.355950e+00 1.188244e+01 
2.391280e+00 1.164360e+01 
2.426240e+00 1.141477e+01 
2.460670e+00 1.119649e+01 
2.495640e+00 1.098172e+01 
2.531080e+00 1.077043e+01 
2.566220e+00 1.056723e+01 
2.600830e+00 1.037307e+01 
2.635080e+00 1.018655e+01 
2.670340e+00 9.999615e+00 
2.705970e+00 9.816223e+00 
2.740040e+00 9.645851e+00 
2.774520e+00 9.477928e+00 
2.809730e+00 9.310978e+00 
2.844390e+00 9.151152e+00 
2.879960e+00 8.991435e+00 
2.914860e+00 8.838714e+00 
2.949410e+00 8.691534e+00 
2.984440e+00 8.545963e+00 
3.019760e+00 8.402916e+00 
3.054730e+00 8.264994e+00 
3.089030e+00 8.132621e+00 
3.124060e+00 8.000836e+00 
3.159560e+00 7.870522e+00 
3.194710e+00 7.744514e+00 
3.229010e+00 7.624620e+00 
3.263320e+00 7.506986e+00 
3.297930e+00 7.391209e+00 
3.332830e+00 7.277085e+00 
3.368040e+00 7.164508e+00 
3.403300e+00 7.054371e+00 
3.438450e+00 6.946879e+00 
3.473060e+00 6.843571e+00 
3.508440e+00 6.739889e+00 
3.543110e+00 6.640692e+00 
3.577470e+00 6.544208e+00 
3.613040e+00 6.446597e+00 
3.648120e+00 6.352245e+00 
3.682910e+00 6.260681e+00 
3.718050e+00 6.169962e+00 
3.753320e+00 6.080839e+00 
3.787980e+00 5.994979e+00 
3.822290e+00 5.911707e+00 
3.857020e+00 5.828997e+00 
3.891920e+00 5.747567e+00 
3.926650e+00 5.668007e+00 
3.961970e+00 5.588748e+00 
3.997360e+00 5.510735e+00 
4.031670e+00 5.436680e+00 
4.066330e+00 5.363147e+00 
4.101420e+00 5.290283e+00 
4.136200e+00 5.219104e+00 
4.170810e+00 5.149766e+00 
4.206250e+00 5.079942e+00 
4.241580e+00 5.011748e+00 
4.276300e+00 4.945868e+00 
4.310970e+00 4.881285e+00 
4.346120e+00 4.817006e+00 
4.380600e+00 4.754995e+00 
4.414730e+00 4.694821e+00 
4.450350e+00 4.632934e+00 
4.485320e+00 4.573399e+00 
4.519810e+00 4.515583e+00 
4.555430e+00 4.456937e+00 
4.590870e+00 4.399650e+00 
4.625480e+00 4.344600e+00 
4.659910e+00 4.290878e+00 
4.695230e+00 4.236558e+00 
4.729960e+00 4.184122e+00 
4.764450e+00 4.132918e+00 
4.799530e+00 4.081634e+00 
4.834910e+00 4.030883e+00 
4.869700e+00 3.981695e+00 
4.904370e+00 3.933538e+00 
4.939450e+00 3.885642e+00 
4.973940e+00 3.839249e+00 
5.008430e+00 3.793684e+00 
5.043810e+00 3.747643e+00 
5.078840e+00 3.702797e+00 
5.113500e+00 3.659210e+00 
5.148890e+00 3.615274e+00 
5.184210e+00 3.572194e+00 
5.219060e+00 3.530395e+00 
5.253660e+00 3.489509e+00 
5.288570e+00 3.448965e+00 
5.323420e+00 3.409104e+00 
5.358440e+00 3.369644e+00 
5.393590e+00 3.330712e+00 
5.428310e+00 3.292806e+00 
5.462800e+00 3.255724e+00 
5.497640e+00 3.218885e+00 
5.532670e+00 3.182363e+00 
5.567280e+00 3.146841e+00 
5.602000e+00 3.111785e+00 
5.637270e+00 3.076669e+00 
5.672410e+00 3.042234e+00 
5.707020e+00 3.008864e+00 
5.742040e+00 2.975567e+00 
5.777430e+00 2.942443e+00 
5.812210e+00 2.910410e+00 
5.846820e+00 2.878963e+00 
5.881610e+00 2.847828e+00 
5.916510e+00 2.817081e+00 
5.951600e+00 2.786599e+00 
5.986560e+00 2.756677e+00 
6.021830e+00 2.726958e+00 
6.056490e+00 2.698168e+00 
6.091160e+00 2.669780e+00 
6.125830e+00 2.641818e+00 
6.161090e+00 2.613798e+00 
6.195760e+00 2.586636e+00 
6.230420e+00 2.559885e+00 
6.265690e+00 2.533066e+00 
6.300950e+00 2.506614e+00 
6.335620e+00 2.480988e+00 
6.370880e+00 2.455308e+00 
6.405550e+00 2.430411e+00 
6.440220e+00 2.405866e+00 
6.475480e+00 2.381264e+00 
6.510150e+00 2.357417e+00 
6.544810e+00 2.333908e+00 
6.580080e+00 2.310325e+00 
6.614750e+00 2.287472e+00 
6.649410e+00 2.264940e+00 
6.684080e+00 2.242715e+00 
6.719340e+00 2.220427e+00 
6.754010e+00 2.198816e+00 
6.788680e+00 2.177503e+00 
6.823940e+00 2.156125e+00 
6.859800e+00 2.134686e+00 
6.894470e+00 2.114251e+00 
6.929140e+00 2.094095e+00 
6.963800e+00 2.074213e+00 
6.999070e+00 2.054256e+00 
7.033730e+00 2.034927e+00 
7.068400e+00 2.015847e+00 
7.103660e+00 1.996701e+00 
7.138330e+00 1.978129e+00 
7.173600e+00 1.959497e+00 
7.208260e+00 1.941426e+00 
7.243530e+00 1.923278e+00 
7.277600e+00 1.905985e+00 
7.312860e+00 1.888330e+00 
7.348120e+00 1.870903e+00 
7.382790e+00 1.853987e+00 
7.417460e+00 1.837305e+00 
7.452720e+00 1.820563e+00 
7.487390e+00 1.804309e+00 
7.522650e+00 1.787987e+00 
7.557320e+00 1.772172e+00 
7.591990e+00 1.756565e+00 
7.627250e+00 1.740889e+00 
7.662510e+00 1.725408e+00 
7.697180e+00 1.710402e+00 
7.731850e+00 1.695589e+00 
7.766510e+00 1.680960e+00 
7.801180e+00 1.666502e+00 
7.836440e+00 1.652000e+00 
7.871110e+00 1.637928e+00 
7.906380e+00 1.623784e+00 
7.941040e+00 1.610050e+00 
7.976310e+00 1.596259e+00 
8.011570e+00 1.582658e+00 
8.046240e+00 1.569442e+00 
8.080900e+00 1.556384e+00 
8.115570e+00 1.543485e+00 
8.150830e+00 1.530564e+00 
8.185500e+00 1.518006e+00 
8.220770e+00 1.505378e+00 
8.255430e+00 1.493111e+00 
8.290100e+00 1.481018e+00 
8.324770e+00 1.469066e+00 
8.359430e+00 1.457252e+00 
8.394700e+00 1.445365e+00 
8.429960e+00 1.433643e+00 
8.464630e+00 1.422272e+00 
8.499890e+00 1.410836e+00 
8.534560e+00 1.399717e+00 
8.569200e+00 1.388729e+00 
