# Parameters:
# omega_b = 0.022697, omega_m = 0.134331, n_s = 0.977559, h = 57.362205, w = -1.000000, sigma_8 = 0.714173
# z = 1.700000
#
# k[1/Mpc] # P(k):
8.694000e-04 3.283822e+03 
2.077466e-03 7.064504e+03 
3.285532e-03 1.001286e+04 
4.493598e-03 1.226700e+04 
5.701664e-03 1.393071e+04 
6.909730e-03 1.509756e+04 
8.117797e-03 1.587374e+04 
9.325863e-03 1.631513e+04 
1.053393e-02 1.647923e+04 
1.174199e-02 1.642010e+04 
1.295006e-02 1.617114e+04 
1.415813e-02 1.577703e+04 
1.536619e-02 1.527774e+04 
1.657426e-02 1.470029e+04 
1.778233e-02 1.406788e+04 
1.899039e-02 1.341487e+04 
2.019846e-02 1.276017e+04 
2.140652e-02 1.212023e+04 
2.261459e-02 1.150404e+04 
2.382266e-02 1.092242e+04 
2.503072e-02 1.038272e+04 
2.623879e-02 9.887528e+03 
2.744685e-02 9.437981e+03 
2.865492e-02 9.034136e+03 
2.986299e-02 8.673416e+03 
3.100100e-02 8.372150e+03 
3.220400e-02 8.090364e+03 
3.288100e-02 7.947907e+03 
3.424300e-02 7.690724e+03 
3.555100e-02 7.474937e+03 
3.686000e-02 7.284624e+03 
3.795000e-02 7.141219e+03 
3.929100e-02 6.979511e+03 
4.039800e-02 6.853478e+03 
4.164000e-02 6.716862e+03 
4.294400e-02 6.572373e+03 
4.415000e-02 6.438077e+03 
4.542900e-02 6.288054e+03 
4.660900e-02 6.145834e+03 
4.782300e-02 5.987839e+03 
4.892900e-02 5.839176e+03 
5.031200e-02 5.644818e+03 
5.155900e-02 5.461668e+03 
5.238100e-02 5.338520e+03 
5.378200e-02 5.126689e+03 
5.513400e-02 4.922435e+03 
5.627600e-02 4.753648e+03 
5.735300e-02 4.600803e+03 
5.870100e-02 4.421478e+03 
5.988700e-02 4.276895e+03 
6.113500e-02 4.138087e+03 
6.225900e-02 4.024092e+03 
6.340100e-02 3.916898e+03 
6.480200e-02 3.793847e+03 
6.601100e-02 3.693592e+03 
6.725500e-02 3.594744e+03 
6.829100e-02 3.516033e+03 
6.958600e-02 3.422203e+03 
7.071100e-02 3.345803e+03 
7.192300e-02 3.269045e+03 
7.307400e-02 3.201612e+03 
7.412300e-02 3.144681e+03 
7.550400e-02 3.076381e+03 
7.663100e-02 3.025035e+03 
7.791200e-02 2.971690e+03 
7.912700e-02 2.924698e+03 
8.027600e-02 2.882501e+03 
8.138400e-02 2.843291e+03 
8.272200e-02 2.797193e+03 
8.406100e-02 2.751593e+03 
8.534100e-02 2.707325e+03 
8.653800e-02 2.664700e+03 
8.759800e-02 2.626165e+03 
8.900300e-02 2.573462e+03 
9.009000e-02 2.531039e+03 
9.113300e-02 2.488653e+03 
9.239600e-02 2.436436e+03 
9.358000e-02 2.386090e+03 
9.496100e-02 2.325495e+03 
9.608400e-02 2.275981e+03 
9.727500e-02 2.223681e+03 
9.852600e-02 2.167972e+03 
9.973800e-02 2.115161e+03 
1.009000e-01 2.065638e+03 
1.020900e-01 2.016214e+03 
1.034000e-01 1.963909e+03 
1.046000e-01 1.917928e+03 
1.057200e-01 1.877569e+03 
1.069100e-01 1.836520e+03 
1.082500e-01 1.793599e+03 
1.093900e-01 1.759615e+03 
1.105400e-01 1.727093e+03 
1.116900e-01 1.697576e+03 
1.129600e-01 1.666620e+03 
1.142000e-01 1.639183e+03 
1.153300e-01 1.615555e+03 
1.166400e-01 1.590010e+03 
1.177800e-01 1.569211e+03 
1.190000e-01 1.547897e+03 
1.201200e-01 1.529308e+03 
1.213400e-01 1.509628e+03 
1.227100e-01 1.488146e+03 
1.238900e-01 1.470005e+03 
1.250700e-01 1.451898e+03 
1.263200e-01 1.432891e+03 
1.275500e-01 1.414018e+03 
1.287500e-01 1.395600e+03 
1.299900e-01 1.376324e+03 
1.311300e-01 1.358518e+03 
1.323500e-01 1.339159e+03 
1.335900e-01 1.319439e+03 
1.347100e-01 1.301365e+03 
1.359800e-01 1.280961e+03 
1.372100e-01 1.260923e+03 
1.384300e-01 1.241267e+03 
1.395700e-01 1.222737e+03 
1.407700e-01 1.203610e+03 
1.420300e-01 1.183474e+03 
1.432800e-01 1.163967e+03 
1.444500e-01 1.145927e+03 
1.456300e-01 1.128129e+03 
1.468900e-01 1.109691e+03 
1.480500e-01 1.093132e+03 
1.491700e-01 1.077659e+03 
1.503800e-01 1.061525e+03 
1.516400e-01 1.045211e+03 
1.528200e-01 1.030792e+03 
1.540200e-01 1.016426e+03 
1.551900e-01 1.003249e+03 
1.564300e-01 9.896948e+02 
1.576600e-01 9.768058e+02 
1.588700e-01 9.647169e+02 
1.600900e-01 9.527869e+02 
1.612700e-01 9.418988e+02 
1.625400e-01 9.304027e+02 
1.637600e-01 9.197043e+02 
1.649500e-01 9.095385e+02 
1.662200e-01 8.988875e+02 
1.674000e-01 8.891560e+02 
1.685000e-01 8.802382e+02 
1.697500e-01 8.701725e+02 
1.710300e-01 8.599496e+02 
1.722200e-01 8.506175e+02 
1.734400e-01 8.409055e+02 
1.746400e-01 8.315082e+02 
1.758700e-01 8.219360e+02 
1.770900e-01 8.123869e+02 
1.782700e-01 8.033108e+02 
1.794600e-01 7.941479e+02 
1.807000e-01 7.846550e+02 
1.819100e-01 7.755539e+02 
1.830100e-01 7.672841e+02 
1.842200e-01 7.583139e+02 
1.855000e-01 7.489898e+02 
1.867000e-01 7.403588e+02 
1.879200e-01 7.317325e+02 
1.890900e-01 7.236057e+02 
1.902800e-01 7.155192e+02 
1.915200e-01 7.072333e+02 
1.926900e-01 6.995749e+02 
1.939000e-01 6.918843e+02 
1.951700e-01 6.839462e+02 
1.963100e-01 6.769781e+02 
1.975100e-01 6.698722e+02 
1.987800e-01 6.624729e+02 
2.000100e-01 6.554705e+02 
2.012500e-01 6.486336e+02 
2.023400e-01 6.427129e+02 
2.036100e-01 6.359431e+02 
2.048900e-01 6.293280e+02 
2.060400e-01 6.234747e+02 
2.072200e-01 6.175608e+02 
2.084200e-01 6.117032e+02 
2.096900e-01 6.055972e+02 
2.109200e-01 5.997730e+02 
2.121100e-01 5.942379e+02 
2.132700e-01 5.889192e+02 
2.145200e-01 5.832701e+02 
2.157200e-01 5.779085e+02 
2.168800e-01 5.727899e+02 
2.180700e-01 5.676113e+02 
2.193400e-01 5.621430e+02 
2.206000e-01 5.567585e+02 
2.217500e-01 5.519127e+02 
2.229500e-01 5.469246e+02 
2.241400e-01 5.419676e+02 
2.253500e-01 5.369946e+02 
2.264900e-01 5.323721e+02 
2.277100e-01 5.274514e+02 
2.289900e-01 5.223171e+02 
2.301500e-01 5.177283e+02 
2.313600e-01 5.130049e+02 
2.325600e-01 5.083067e+02 
2.337700e-01 5.036333e+02 
2.350000e-01 4.989472e+02 
2.362000e-01 4.944097e+02 
2.374100e-01 4.898629e+02 
2.386500e-01 4.852665e+02 
2.399100e-01 4.806600e+02 
2.410400e-01 4.765571e+02 
2.422500e-01 4.722166e+02 
2.435000e-01 4.677925e+02 
2.447300e-01 4.634965e+02 
2.458700e-01 4.595617e+02 
2.470600e-01 4.555056e+02 
2.483300e-01 4.512336e+02 
2.495600e-01 4.471603e+02 
2.507600e-01 4.432498e+02 
2.519600e-01 4.393886e+02 
2.532200e-01 4.353866e+02 
2.543700e-01 4.318044e+02 
2.555500e-01 4.281898e+02 
2.568000e-01 4.244085e+02 
2.580100e-01 4.207944e+02 
2.592400e-01 4.172018e+02 
2.604100e-01 4.138416e+02 
2.616100e-01 4.104363e+02 
2.628400e-01 4.069882e+02 
2.640600e-01 4.036507e+02 
2.652200e-01 4.005307e+02 
2.664300e-01 3.973141e+02 
2.676500e-01 3.941094e+02 
2.688400e-01 3.910489e+02 
2.700700e-01 3.879406e+02 
2.712400e-01 3.850179e+02 
2.724800e-01 3.819560e+02 
2.736700e-01 3.790712e+02 
2.748800e-01 3.761913e+02 
2.761000e-01 3.733208e+02 
2.773200e-01 3.704830e+02 
2.785400e-01 3.676858e+02 
2.797000e-01 3.650728e+02 
2.808900e-01 3.624213e+02 
2.821400e-01 3.596672e+02 
2.833900e-01 3.569452e+02 
2.845500e-01 3.544598e+02 
2.857800e-01 3.518529e+02 
2.870300e-01 3.492332e+02 
2.882100e-01 3.467872e+02 
2.893900e-01 3.443725e+02 
2.906300e-01 3.418653e+02 
2.918900e-01 3.393459e+02 
2.930500e-01 3.370511e+02 
2.942500e-01 3.347022e+02 
2.954200e-01 3.324368e+02 
2.966500e-01 3.300802e+02 
2.978900e-01 3.277298e+02 
2.990400e-01 3.255726e+02 
3.002700e-01 3.232884e+02 
3.015100e-01 3.210098e+02 
3.026800e-01 3.188820e+02 
3.038500e-01 3.167753e+02 
3.050300e-01 3.146718e+02 
3.062600e-01 3.124984e+02 
3.075000e-01 3.103300e+02 
3.087000e-01 3.082531e+02 
3.099100e-01 3.061800e+02 
3.111200e-01 3.041275e+02 
3.123100e-01 3.021285e+02 
3.135300e-01 3.000996e+02 
3.147300e-01 2.981238e+02 
3.159900e-01 2.960701e+02 
3.171800e-01 2.941502e+02 
3.183700e-01 2.922491e+02 
3.196300e-01 2.902562e+02 
3.208400e-01 2.883615e+02 
3.220300e-01 2.865161e+02 
3.232000e-01 2.847206e+02 
3.244300e-01 2.828518e+02 
3.256700e-01 2.809864e+02 
3.269200e-01 2.791245e+02 
3.280800e-01 2.774132e+02 
3.292500e-01 2.757068e+02 
3.304800e-01 2.739310e+02 
3.317100e-01 2.721723e+02 
3.328900e-01 2.705010e+02 
3.340700e-01 2.688450e+02 
3.353600e-01 2.670571e+02 
3.365300e-01 2.654528e+02 
3.377100e-01 2.638494e+02 
3.389200e-01 2.622204e+02 
3.401600e-01 2.605665e+02 
3.413700e-01 2.589736e+02 
3.425300e-01 2.574643e+02 
3.437700e-01 2.558656e+02 
3.449800e-01 2.543198e+02 
3.461800e-01 2.528007e+02 
3.473600e-01 2.513231e+02 
3.485800e-01 2.498164e+02 
3.498100e-01 2.483110e+02 
3.510200e-01 2.468435e+02 
3.522000e-01 2.454249e+02 
3.533900e-01 2.440067e+02 
3.546400e-01 2.425416e+02 
3.558400e-01 2.411483e+02 
3.570600e-01 2.397442e+02 
3.582700e-01 2.383637e+02 
3.595000e-01 2.369728e+02 
3.607100e-01 2.356231e+02 
3.618900e-01 2.343234e+02 
3.631200e-01 2.329801e+02 
3.643200e-01 2.316809e+02 
3.655500e-01 2.303606e+02 
3.667300e-01 2.291048e+02 
3.679500e-01 2.278300e+02 
3.691900e-01 2.265454e+02 
3.703600e-01 2.253435e+02 
3.715700e-01 2.241107e+02 
3.727700e-01 2.228983e+02 
3.739900e-01 2.216800e+02 
3.752000e-01 2.204894e+02 
3.763900e-01 2.193279e+02 
3.775800e-01 2.181759e+02 
3.788200e-01 2.169854e+02 
3.800300e-01 2.158332e+02 
3.812100e-01 2.147253e+02 
3.824200e-01 2.136027e+02 
3.836100e-01 2.125076e+02 
3.848600e-01 2.113665e+02 
3.860400e-01 2.102980e+02 
3.872400e-01 2.092200e+02 
3.884600e-01 2.081407e+02 
3.896500e-01 2.070992e+02 
3.908700e-01 2.060398e+02 
3.920600e-01 2.050146e+02 
3.933100e-01 2.039463e+02 
3.945300e-01 2.029119e+02 
3.957200e-01 2.019190e+02 
3.969300e-01 2.009196e+02 
3.981700e-01 1.999033e+02 
3.993500e-01 1.989438e+02 
4.094840e-01 1.910310e+02 
4.272360e-01 1.785198e+02 
4.454600e-01 1.671363e+02 
4.630560e-01 1.573135e+02 
4.804610e-01 1.485501e+02 
4.980690e-01 1.405082e+02 
5.159230e-01 1.330840e+02 
5.317440e-01 1.270458e+02 
5.489640e-01 1.209860e+02 
5.671990e-01 1.150906e+02 
5.838690e-01 1.101192e+02 
6.018840e-01 1.051530e+02 
6.202330e-01 1.004886e+02 
6.379250e-01 9.632370e+01 
6.545410e-01 9.269094e+01 
6.714560e-01 8.923784e+01 
6.892080e-01 8.585908e+01 
7.066010e-01 8.277382e+01 
7.240540e-01 7.987609e+01 
7.420450e-01 7.708608e+01 
7.593780e-01 7.456886e+01 
7.764720e-01 7.223364e+01 
7.942840e-01 6.994533e+01 
8.116170e-01 6.785062e+01 
8.288310e-01 6.588840e+01 
8.462240e-01 6.401474e+01 
8.631980e-01 6.228387e+01 
8.810700e-01 6.055762e+01 
8.989410e-01 5.892238e+01 
9.166330e-01 5.738681e+01 
9.345640e-01 5.590950e+01 
9.515980e-01 5.457329e+01 
9.688720e-01 5.328064e+01 
9.865640e-01 5.201860e+01 
1.031870e+00 4.903470e+01 
1.063490e+00 4.714218e+01 
1.097920e+00 4.523770e+01 
1.134370e+00 4.337448e+01 
1.167730e+00 4.179372e+01 
1.203830e+00 4.020137e+01 
1.240470e+00 3.869760e+01 
1.275790e+00 3.734396e+01 
1.309140e+00 3.614463e+01 
1.342970e+00 3.499658e+01 
1.378420e+00 3.386357e+01 
1.413200e+00 3.281487e+01 
1.448110e+00 3.181876e+01 
1.484090e+00 3.084711e+01 
1.518820e+00 2.995788e+01 
1.552880e+00 2.912830e+01 
1.588630e+00 2.829935e+01 
1.623230e+00 2.753537e+01 
1.657720e+00 2.680859e+01 
1.692450e+00 2.610950e+01 
1.726400e+00 2.545515e+01 
1.762200e+00 2.479399e+01 
1.797880e+00 2.416359e+01 
1.833270e+00 2.356457e+01 
1.869070e+00 2.298305e+01 
1.903200e+00 2.245052e+01 
1.937740e+00 2.193206e+01 
1.973190e+00 2.141988e+01 
2.007440e+00 2.094342e+01 
2.042160e+00 2.047764e+01 
2.077900e+00 2.001530e+01 
2.112390e+00 1.958515e+01 
2.146220e+00 1.917696e+01 
2.181600e+00 1.876462e+01 
2.216930e+00 1.836651e+01 
2.250760e+00 1.799775e+01 
2.286500e+00 1.762084e+01 
2.321770e+00 1.726095e+01 
2.355950e+00 1.692296e+01 
2.391280e+00 1.658385e+01 
2.426240e+00 1.625852e+01 
2.460670e+00 1.594787e+01 
2.495640e+00 1.564197e+01 
2.531080e+00 1.534045e+01 
2.566220e+00 1.505006e+01 
2.600830e+00 1.477229e+01 
2.635080e+00 1.450523e+01 
2.670340e+00 1.423732e+01 
2.705970e+00 1.397420e+01 
2.740040e+00 1.372953e+01 
2.774520e+00 1.348814e+01 
2.809730e+00 1.324789e+01 
2.844390e+00 1.301777e+01 
2.879960e+00 1.278771e+01 
2.914860e+00 1.256749e+01 
2.949410e+00 1.235514e+01 
2.984440e+00 1.214491e+01 
3.019760e+00 1.193820e+01 
3.054730e+00 1.173883e+01 
3.089030e+00 1.154735e+01 
3.124060e+00 1.135669e+01 
3.159560e+00 1.116812e+01 
3.194710e+00 1.098565e+01 
3.229010e+00 1.081198e+01 
3.263320e+00 1.064150e+01 
3.297930e+00 1.047368e+01 
3.332830e+00 1.030819e+01 
3.368040e+00 1.014495e+01 
3.403300e+00 9.985240e+00 
3.438450e+00 9.829297e+00 
3.473060e+00 9.679424e+00 
3.508440e+00 9.528949e+00 
3.543110e+00 9.385007e+00 
3.577470e+00 9.245047e+00 
3.613040e+00 9.103439e+00 
3.648120e+00 8.966484e+00 
3.682910e+00 8.833619e+00 
3.718050e+00 8.702049e+00 
3.753320e+00 8.572776e+00 
3.787980e+00 8.448198e+00 
3.822290e+00 8.327410e+00 
3.857020e+00 8.207477e+00 
3.891920e+00 8.089417e+00 
3.926650e+00 7.974077e+00 
3.961970e+00 7.859208e+00 
3.997360e+00 7.746199e+00 
4.031670e+00 7.638939e+00 
4.066330e+00 7.532445e+00 
4.101420e+00 7.426941e+00 
4.136200e+00 7.323940e+00 
4.170810e+00 7.223622e+00 
4.206250e+00 7.122645e+00 
4.241580e+00 7.024050e+00 
4.276300e+00 6.928844e+00 
4.310970e+00 6.835545e+00 
4.346120e+00 6.742715e+00 
4.380600e+00 6.653195e+00 
4.414730e+00 6.566344e+00 
4.450350e+00 6.477087e+00 
4.485320e+00 6.391236e+00 
4.519810e+00 6.307938e+00 
4.555430e+00 6.223484e+00 
4.590870e+00 6.141006e+00 
4.625480e+00 6.061765e+00 
4.659910e+00 5.984450e+00 
4.695230e+00 5.906370e+00 
4.729960e+00 5.831026e+00 
4.764450e+00 5.757488e+00 
4.799530e+00 5.683890e+00 
4.834910e+00 5.611072e+00 
4.869700e+00 5.540542e+00 
4.904370e+00 5.471510e+00 
4.939450e+00 5.402881e+00 
4.973940e+00 5.336464e+00 
5.008430e+00 5.271244e+00 
5.043810e+00 5.205384e+00 
5.078840e+00 5.141263e+00 
5.113500e+00 5.078953e+00 
5.148890e+00 5.016231e+00 
5.184210e+00 4.954745e+00 
5.219060e+00 4.895111e+00 
5.253660e+00 4.836820e+00 
5.288570e+00 4.779025e+00 
5.323420e+00 4.722234e+00 
5.358440e+00 4.666045e+00 
5.393590e+00 4.610616e+00 
5.428310e+00 4.556709e+00 
5.462800e+00 4.504010e+00 
5.497640e+00 4.451666e+00 
5.532670e+00 4.399817e+00 
5.567280e+00 4.349408e+00 
5.602000e+00 4.299670e+00 
5.637270e+00 4.249887e+00 
5.672410e+00 4.201086e+00 
5.707020e+00 4.153803e+00 
5.742040e+00 4.106674e+00 
5.777430e+00 4.059810e+00 
5.812210e+00 4.014494e+00 
5.846820e+00 3.970043e+00 
5.881610e+00 3.926047e+00 
5.916510e+00 3.882606e+00 
5.951600e+00 3.839579e+00 
5.986560e+00 3.797367e+00 
6.021830e+00 3.755444e+00 
6.056490e+00 3.714862e+00 
6.091160e+00 3.674868e+00 
6.125830e+00 3.635482e+00 
6.161090e+00 3.596029e+00 
6.195760e+00 3.557811e+00 
6.230420e+00 3.520176e+00 
6.265690e+00 3.482452e+00 
6.300950e+00 3.445291e+00 
6.335620e+00 3.409295e+00 
6.370880e+00 3.373228e+00 
6.405550e+00 3.338282e+00 
6.440220e+00 3.303842e+00 
6.475480e+00 3.269325e+00 
6.510150e+00 3.235884e+00 
6.544810e+00 3.202942e+00 
6.580080e+00 3.169901e+00 
6.614750e+00 3.137886e+00 
6.649410e+00 3.106342e+00 
6.684080e+00 3.075234e+00 
6.719340e+00 3.044041e+00 
6.754010e+00 3.013811e+00 
6.788680e+00 2.984023e+00 
6.823940e+00 2.954148e+00 
6.859800e+00 2.924192e+00 
6.894470e+00 2.895657e+00 
6.929140e+00 2.867517e+00 
6.963800e+00 2.839766e+00 
6.999070e+00 2.811912e+00 
7.033730e+00 2.784951e+00 
7.068400e+00 2.758342e+00 
7.103660e+00 2.731642e+00 
7.138330e+00 2.705752e+00 
7.173600e+00 2.679790e+00 
7.208260e+00 2.654613e+00 
7.243530e+00 2.629330e+00 
7.277600e+00 2.605249e+00 
7.312860e+00 2.580672e+00 
7.348120e+00 2.556417e+00 
7.382790e+00 2.532875e+00 
7.417460e+00 2.509670e+00 
7.452720e+00 2.486393e+00 
7.487390e+00 2.463796e+00 
7.522650e+00 2.441105e+00 
7.557320e+00 2.419124e+00 
7.591990e+00 2.397434e+00 
7.627250e+00 2.375651e+00 
7.662510e+00 2.354142e+00 
7.697180e+00 2.333303e+00 
7.731850e+00 2.312737e+00 
7.766510e+00 2.292428e+00 
7.801180e+00 2.272359e+00 
7.836440e+00 2.252234e+00 
7.871110e+00 2.232708e+00 
7.906380e+00 2.213085e+00 
7.941040e+00 2.194032e+00 
7.976310e+00 2.174905e+00 
8.011570e+00 2.156046e+00 
8.046240e+00 2.137723e+00 
8.080900e+00 2.119621e+00 
8.115570e+00 2.101740e+00 
8.150830e+00 2.083831e+00 
8.185500e+00 2.066427e+00 
8.220770e+00 2.048928e+00 
8.255430e+00 2.031930e+00 
8.290100e+00 2.015181e+00 
8.324770e+00 1.998629e+00 
8.359430e+00 1.982269e+00 
8.394700e+00 1.965812e+00 
8.429960e+00 1.949582e+00 
8.464630e+00 1.933840e+00 
8.499890e+00 1.918010e+00 
8.534560e+00 1.902619e+00 
8.569200e+00 1.887411e+00 
