# Parameters:
# omega_b = 0.021547, omega_m = 0.130472, n_s = 1.032677, h = 80.748031, w = -1.000000, sigma_8 = 0.792913
# z = 1.700000
#
# k[1/Mpc] # P(k):
8.694000e-04 2.718517e+03 
2.077466e-03 6.091080e+03 
3.285532e-03 8.819858e+03 
4.493598e-03 1.095686e+04 
5.701664e-03 1.256636e+04 
6.909730e-03 1.372262e+04 
8.117797e-03 1.451792e+04 
9.325863e-03 1.500049e+04 
1.053393e-02 1.522050e+04 
1.174199e-02 1.522547e+04 
1.295006e-02 1.504626e+04 
1.415813e-02 1.472535e+04 
1.536619e-02 1.429871e+04 
1.657426e-02 1.379091e+04 
1.778233e-02 1.322545e+04 
1.899039e-02 1.263619e+04 
2.019846e-02 1.204196e+04 
2.140652e-02 1.145871e+04 
2.261459e-02 1.089569e+04 
2.382266e-02 1.036369e+04 
2.503072e-02 9.870094e+03 
2.623879e-02 9.417555e+03 
2.744685e-02 9.007365e+03 
2.865492e-02 8.639537e+03 
2.986299e-02 8.311622e+03 
3.100100e-02 8.038459e+03 
3.220400e-02 7.783602e+03 
3.288100e-02 7.655149e+03 
3.424300e-02 7.423720e+03 
3.555100e-02 7.229964e+03 
3.686000e-02 7.059236e+03 
3.795000e-02 6.930532e+03 
3.929100e-02 6.784931e+03 
4.039800e-02 6.670732e+03 
4.164000e-02 6.545977e+03 
4.294400e-02 6.412195e+03 
4.415000e-02 6.286636e+03 
4.542900e-02 6.144455e+03 
4.660900e-02 6.008548e+03 
4.782300e-02 5.856213e+03 
4.892900e-02 5.712062e+03 
5.031200e-02 5.522683e+03 
5.155900e-02 5.343706e+03 
5.238100e-02 5.222979e+03 
5.378200e-02 5.014076e+03 
5.513400e-02 4.809556e+03 
5.627600e-02 4.636383e+03 
5.735300e-02 4.474035e+03 
5.870100e-02 4.273286e+03 
5.988700e-02 4.100808e+03 
6.113500e-02 3.925030e+03 
6.225900e-02 3.774092e+03 
6.340100e-02 3.630181e+03 
6.480200e-02 3.468131e+03 
6.601100e-02 3.344360e+03 
6.725500e-02 3.232459e+03 
6.829100e-02 3.152147e+03 
6.958600e-02 3.064235e+03 
7.071100e-02 2.999539e+03 
7.192300e-02 2.939595e+03 
7.307400e-02 2.890687e+03 
7.412300e-02 2.851743e+03 
7.550400e-02 2.807719e+03 
7.663100e-02 2.775788e+03 
7.791200e-02 2.743359e+03 
7.912700e-02 2.714365e+03 
8.027600e-02 2.687371e+03 
8.138400e-02 2.661087e+03 
8.272200e-02 2.628045e+03 
8.406100e-02 2.592695e+03 
8.534100e-02 2.555104e+03 
8.653800e-02 2.516241e+03 
8.759800e-02 2.479588e+03 
8.900300e-02 2.427294e+03 
9.009000e-02 2.383660e+03 
9.113300e-02 2.339037e+03 
9.239600e-02 2.283381e+03 
9.358000e-02 2.229107e+03 
9.496100e-02 2.163406e+03 
9.608400e-02 2.109761e+03 
9.727500e-02 2.053215e+03 
9.852600e-02 1.993565e+03 
9.973800e-02 1.937559e+03 
1.009000e-01 1.885499e+03 
1.020900e-01 1.834876e+03 
1.034000e-01 1.782142e+03 
1.046000e-01 1.736650e+03 
1.057200e-01 1.698360e+03 
1.069100e-01 1.660075e+03 
1.082500e-01 1.621992e+03 
1.093900e-01 1.593134e+03 
1.105400e-01 1.566287e+03 
1.116900e-01 1.543731e+03 
1.129600e-01 1.520682e+03 
1.142000e-01 1.501788e+03 
1.153300e-01 1.485971e+03 
1.166400e-01 1.469611e+03 
1.177800e-01 1.456556e+03 
1.190000e-01 1.443320e+03 
1.201200e-01 1.431321e+03 
1.213400e-01 1.418547e+03 
1.227100e-01 1.403075e+03 
1.238900e-01 1.389596e+03 
1.250700e-01 1.374746e+03 
1.263200e-01 1.358564e+03 
1.275500e-01 1.341188e+03 
1.287500e-01 1.323601e+03 
1.299900e-01 1.304226e+03 
1.311300e-01 1.285901e+03 
1.323500e-01 1.265355e+03 
1.335900e-01 1.244223e+03 
1.347100e-01 1.224591e+03 
1.359800e-01 1.202441e+03 
1.372100e-01 1.180691e+03 
1.384300e-01 1.159485e+03 
1.395700e-01 1.139752e+03 
1.407700e-01 1.119467e+03 
1.420300e-01 1.098709e+03 
1.432800e-01 1.078621e+03 
1.444500e-01 1.060795e+03 
1.456300e-01 1.043219e+03 
1.468900e-01 1.025632e+03 
1.480500e-01 1.010024e+03 
1.491700e-01 9.957658e+02 
1.503800e-01 9.813164e+02 
1.516400e-01 9.668297e+02 
1.528200e-01 9.545825e+02 
1.540200e-01 9.423732e+02 
1.551900e-01 9.316081e+02 
1.564300e-01 9.206388e+02 
1.576600e-01 9.103579e+02 
1.588700e-01 9.009028e+02 
1.600900e-01 8.915709e+02 
1.612700e-01 8.831417e+02 
1.625400e-01 8.742371e+02 
1.637600e-01 8.658308e+02 
1.649500e-01 8.577712e+02 
1.662200e-01 8.492633e+02 
1.674000e-01 8.411528e+02 
1.685000e-01 8.337178e+02 
1.697500e-01 8.250580e+02 
1.710300e-01 8.159988e+02 
1.722200e-01 8.077266e+02 
1.734400e-01 7.986141e+02 
1.746400e-01 7.897762e+02 
1.758700e-01 7.806464e+02 
1.770900e-01 7.712839e+02 
1.782700e-01 7.623868e+02 
1.794600e-01 7.532771e+02 
1.807000e-01 7.437570e+02 
1.819100e-01 7.346333e+02 
1.830100e-01 7.263142e+02 
1.842200e-01 7.172888e+02 
1.855000e-01 7.079157e+02 
1.867000e-01 6.993428e+02 
1.879200e-01 6.907773e+02 
1.890900e-01 6.827407e+02 
1.902800e-01 6.749038e+02 
1.915200e-01 6.668750e+02 
1.926900e-01 6.595057e+02 
1.939000e-01 6.522705e+02 
1.951700e-01 6.448023e+02 
1.963100e-01 6.382965e+02 
1.975100e-01 6.317953e+02 
1.987800e-01 6.250247e+02 
2.000100e-01 6.186539e+02 
2.012500e-01 6.125210e+02 
2.023400e-01 6.072087e+02 
2.036100e-01 6.011430e+02 
2.048900e-01 5.952526e+02 
2.060400e-01 5.900392e+02 
2.072200e-01 5.847690e+02 
2.084200e-01 5.795271e+02 
2.096900e-01 5.740617e+02 
2.109200e-01 5.688475e+02 
2.121100e-01 5.638293e+02 
2.132700e-01 5.590032e+02 
2.145200e-01 5.538765e+02 
2.157200e-01 5.489615e+02 
2.168800e-01 5.442463e+02 
2.180700e-01 5.394753e+02 
2.193400e-01 5.344174e+02 
2.206000e-01 5.294006e+02 
2.217500e-01 5.248853e+02 
2.229500e-01 5.202372e+02 
2.241400e-01 5.156010e+02 
2.253500e-01 5.109491e+02 
2.264900e-01 5.066247e+02 
2.277100e-01 5.020327e+02 
2.289900e-01 4.972540e+02 
2.301500e-01 4.929826e+02 
2.313600e-01 4.885858e+02 
2.325600e-01 4.842670e+02 
2.337700e-01 4.799703e+02 
2.350000e-01 4.756612e+02 
2.362000e-01 4.715205e+02 
2.374100e-01 4.674087e+02 
2.386500e-01 4.632509e+02 
2.399100e-01 4.590830e+02 
2.410400e-01 4.554276e+02 
2.422500e-01 4.515666e+02 
2.435000e-01 4.476299e+02 
2.447300e-01 4.438160e+02 
2.458700e-01 4.403614e+02 
2.470600e-01 4.367991e+02 
2.483300e-01 4.330456e+02 
2.495600e-01 4.294765e+02 
2.507600e-01 4.260640e+02 
2.519600e-01 4.226931e+02 
2.532200e-01 4.191978e+02 
2.543700e-01 4.160673e+02 
2.555500e-01 4.129070e+02 
2.568000e-01 4.095997e+02 
2.580100e-01 4.064372e+02 
2.592400e-01 4.032767e+02 
2.604100e-01 4.003125e+02 
2.616100e-01 3.973074e+02 
2.628400e-01 3.942635e+02 
2.640600e-01 3.912902e+02 
2.652200e-01 3.884994e+02 
2.664300e-01 3.856213e+02 
2.676500e-01 3.827529e+02 
2.688400e-01 3.799882e+02 
2.700700e-01 3.771639e+02 
2.712400e-01 3.745076e+02 
2.724800e-01 3.717241e+02 
2.736700e-01 3.690826e+02 
2.748800e-01 3.664259e+02 
2.761000e-01 3.637774e+02 
2.773200e-01 3.611585e+02 
2.785400e-01 3.585671e+02 
2.797000e-01 3.561259e+02 
2.808900e-01 3.536483e+02 
2.821400e-01 3.510745e+02 
2.833900e-01 3.485294e+02 
2.845500e-01 3.461862e+02 
2.857800e-01 3.437280e+02 
2.870300e-01 3.412575e+02 
2.882100e-01 3.389505e+02 
2.893900e-01 3.366651e+02 
2.906300e-01 3.342877e+02 
2.918900e-01 3.318985e+02 
2.930500e-01 3.297221e+02 
2.942500e-01 3.274930e+02 
2.954200e-01 3.253392e+02 
2.966500e-01 3.230985e+02 
2.978900e-01 3.208635e+02 
2.990400e-01 3.188120e+02 
3.002700e-01 3.166399e+02 
3.015100e-01 3.144730e+02 
3.026800e-01 3.124494e+02 
3.038500e-01 3.104457e+02 
3.050300e-01 3.084448e+02 
3.062600e-01 3.063814e+02 
3.075000e-01 3.043226e+02 
3.087000e-01 3.023505e+02 
3.099100e-01 3.003817e+02 
3.111200e-01 2.984344e+02 
3.123100e-01 2.965414e+02 
3.135300e-01 2.946197e+02 
3.147300e-01 2.927483e+02 
3.159900e-01 2.908028e+02 
3.171800e-01 2.889875e+02 
3.183700e-01 2.871920e+02 
3.196300e-01 2.853096e+02 
3.208400e-01 2.835198e+02 
3.220300e-01 2.817763e+02 
3.232000e-01 2.800838e+02 
3.244300e-01 2.783236e+02 
3.256700e-01 2.765663e+02 
3.269200e-01 2.748120e+02 
3.280800e-01 2.731995e+02 
3.292500e-01 2.715945e+02 
3.304800e-01 2.699250e+02 
3.317100e-01 2.682713e+02 
3.328900e-01 2.666996e+02 
3.340700e-01 2.651421e+02 
3.353600e-01 2.634619e+02 
3.365300e-01 2.619547e+02 
3.377100e-01 2.604482e+02 
3.389200e-01 2.589173e+02 
3.401600e-01 2.573628e+02 
3.413700e-01 2.558657e+02 
3.425300e-01 2.544471e+02 
3.437700e-01 2.529442e+02 
3.449800e-01 2.514910e+02 
3.461800e-01 2.500625e+02 
3.473600e-01 2.486725e+02 
3.485800e-01 2.472537e+02 
3.498100e-01 2.458360e+02 
3.510200e-01 2.444538e+02 
3.522000e-01 2.431174e+02 
3.533900e-01 2.417813e+02 
3.546400e-01 2.403975e+02 
3.558400e-01 2.390811e+02 
3.570600e-01 2.377543e+02 
3.582700e-01 2.364497e+02 
3.595000e-01 2.351351e+02 
3.607100e-01 2.338567e+02 
3.618900e-01 2.326234e+02 
3.631200e-01 2.313487e+02 
3.643200e-01 2.301156e+02 
3.655500e-01 2.288624e+02 
3.667300e-01 2.276702e+02 
3.679500e-01 2.264538e+02 
3.691900e-01 2.252280e+02 
3.703600e-01 2.240810e+02 
3.715700e-01 2.229044e+02 
3.727700e-01 2.217471e+02 
3.739900e-01 2.205819e+02 
3.752000e-01 2.194389e+02 
3.763900e-01 2.183239e+02 
3.775800e-01 2.172179e+02 
3.788200e-01 2.160747e+02 
3.800300e-01 2.149684e+02 
3.812100e-01 2.139003e+02 
3.824200e-01 2.128154e+02 
3.836100e-01 2.117568e+02 
3.848600e-01 2.106538e+02 
3.860400e-01 2.096209e+02 
3.872400e-01 2.085787e+02 
3.884600e-01 2.075304e+02 
3.896500e-01 2.065170e+02 
3.908700e-01 2.054861e+02 
3.920600e-01 2.044884e+02 
3.933100e-01 2.034487e+02 
3.945300e-01 2.024419e+02 
3.957200e-01 2.014699e+02 
3.969300e-01 2.004898e+02 
3.981700e-01 1.994932e+02 
3.993500e-01 1.985521e+02 
4.094840e-01 1.907684e+02 
4.272360e-01 1.783173e+02 
4.454600e-01 1.669006e+02 
4.630560e-01 1.570111e+02 
4.804610e-01 1.481863e+02 
4.980690e-01 1.401081e+02 
5.159230e-01 1.326809e+02 
5.317440e-01 1.266656e+02 
5.489640e-01 1.206583e+02 
5.671990e-01 1.148425e+02 
5.838690e-01 1.099549e+02 
6.018840e-01 1.050873e+02 
6.202330e-01 1.005292e+02 
6.379250e-01 9.646453e+01 
6.545410e-01 9.292534e+01 
6.714560e-01 8.956220e+01 
6.892080e-01 8.627315e+01 
7.066010e-01 8.326979e+01 
7.240540e-01 8.044826e+01 
7.420450e-01 7.773086e+01 
7.593780e-01 7.527811e+01 
7.764720e-01 7.300129e+01 
7.942840e-01 7.076916e+01 
8.116170e-01 6.872478e+01 
8.288310e-01 6.680882e+01 
8.462240e-01 6.497845e+01 
8.631980e-01 6.328687e+01 
8.810700e-01 6.159924e+01 
8.989410e-01 6.000008e+01 
9.166330e-01 5.849809e+01 
9.345640e-01 5.705247e+01 
9.515980e-01 5.574481e+01 
9.688720e-01 5.447978e+01 
9.865640e-01 5.324466e+01 
1.031870e+00 5.032372e+01 
1.063490e+00 4.847079e+01 
1.097920e+00 4.660665e+01 
1.134370e+00 4.478233e+01 
1.167730e+00 4.323465e+01 
1.203830e+00 4.167550e+01 
1.240470e+00 4.020265e+01 
1.275790e+00 3.887644e+01 
1.309140e+00 3.770108e+01 
1.342970e+00 3.657553e+01 
1.378420e+00 3.546412e+01 
1.413200e+00 3.443478e+01 
1.448110e+00 3.345624e+01 
1.484090e+00 3.250120e+01 
1.518820e+00 3.162625e+01 
1.552880e+00 3.080918e+01 
1.588630e+00 2.999187e+01 
1.623230e+00 2.923785e+01 
1.657720e+00 2.851987e+01 
1.692450e+00 2.782843e+01 
1.726400e+00 2.718023e+01 
1.762200e+00 2.652445e+01 
1.797880e+00 2.589847e+01 
1.833270e+00 2.530288e+01 
1.869070e+00 2.472370e+01 
1.903200e+00 2.419269e+01 
1.937740e+00 2.367501e+01 
1.973190e+00 2.316274e+01 
2.007440e+00 2.268547e+01 
2.042160e+00 2.221825e+01 
2.077900e+00 2.175379e+01 
2.112390e+00 2.132098e+01 
2.146220e+00 2.090959e+01 
2.181600e+00 2.049341e+01 
2.216930e+00 2.009094e+01 
2.250760e+00 1.971756e+01 
2.286500e+00 1.933534e+01 
2.321770e+00 1.896983e+01 
2.355950e+00 1.862603e+01 
2.391280e+00 1.828045e+01 
2.426240e+00 1.794839e+01 
2.460670e+00 1.763086e+01 
2.495640e+00 1.731772e+01 
2.531080e+00 1.700842e+01 
2.566220e+00 1.671012e+01 
2.600830e+00 1.642440e+01 
2.635080e+00 1.614928e+01 
2.670340e+00 1.587266e+01 
2.705970e+00 1.560061e+01 
2.740040e+00 1.534733e+01 
2.774520e+00 1.509697e+01 
2.809730e+00 1.484740e+01 
2.844390e+00 1.460804e+01 
2.879960e+00 1.436830e+01 
2.914860e+00 1.413840e+01 
2.949410e+00 1.391645e+01 
2.984440e+00 1.369635e+01 
3.019760e+00 1.347960e+01 
3.054730e+00 1.327031e+01 
3.089030e+00 1.306881e+01 
3.124060e+00 1.286796e+01 
3.159560e+00 1.266900e+01 
3.194710e+00 1.247612e+01 
3.229010e+00 1.229241e+01 
3.263320e+00 1.211164e+01 
3.297930e+00 1.193353e+01 
3.332830e+00 1.175760e+01 
3.368040e+00 1.158378e+01 
3.403300e+00 1.141351e+01 
3.438450e+00 1.124694e+01 
3.473060e+00 1.108675e+01 
3.508440e+00 1.092553e+01 
3.543110e+00 1.077120e+01 
3.577470e+00 1.062079e+01 
3.613040e+00 1.046848e+01 
3.648120e+00 1.032095e+01 
3.682910e+00 1.017767e+01 
3.718050e+00 1.003551e+01 
3.753320e+00 9.895685e+00 
3.787980e+00 9.760753e+00 
3.822290e+00 9.629769e+00 
3.857020e+00 9.499496e+00 
3.891920e+00 9.371125e+00 
3.926650e+00 9.245508e+00 
3.961970e+00 9.120284e+00 
3.997360e+00 8.996859e+00 
4.031670e+00 8.879630e+00 
4.066330e+00 8.763018e+00 
4.101420e+00 8.647443e+00 
4.136200e+00 8.534353e+00 
4.170810e+00 8.424172e+00 
4.206250e+00 8.313040e+00 
4.241580e+00 8.204459e+00 
4.276300e+00 8.099447e+00 
4.310970e+00 7.996433e+00 
4.346120e+00 7.893827e+00 
4.380600e+00 7.794723e+00 
4.414730e+00 7.698537e+00 
4.450350e+00 7.599476e+00 
4.485320e+00 7.504164e+00 
4.519810e+00 7.411521e+00 
4.555430e+00 7.317500e+00 
4.590870e+00 7.225601e+00 
4.625480e+00 7.137179e+00 
4.659910e+00 7.050879e+00 
4.695230e+00 6.963547e+00 
4.729960e+00 6.879225e+00 
4.764450e+00 6.796836e+00 
4.799530e+00 6.714252e+00 
4.834910e+00 6.632517e+00 
4.869700e+00 6.553215e+00 
4.904370e+00 6.475555e+00 
4.939450e+00 6.398285e+00 
4.973940e+00 6.323380e+00 
5.008430e+00 6.249803e+00 
5.043810e+00 6.175401e+00 
5.078840e+00 6.102894e+00 
5.113500e+00 6.032415e+00 
5.148890e+00 5.961316e+00 
5.184210e+00 5.891592e+00 
5.219060e+00 5.823919e+00 
5.253660e+00 5.757675e+00 
5.288570e+00 5.691976e+00 
5.323420e+00 5.627346e+00 
5.358440e+00 5.563323e+00 
5.393590e+00 5.500149e+00 
5.428310e+00 5.438617e+00 
5.462800e+00 5.378407e+00 
5.497640e+00 5.318587e+00 
5.532670e+00 5.259251e+00 
5.567280e+00 5.201527e+00 
5.602000e+00 5.144556e+00 
5.637270e+00 5.087432e+00 
5.672410e+00 5.031400e+00 
5.707020e+00 4.977096e+00 
5.742040e+00 4.922878e+00 
5.777430e+00 4.868933e+00 
5.812210e+00 4.816758e+00 
5.846820e+00 4.765510e+00 
5.881610e+00 4.714759e+00 
5.916510e+00 4.664637e+00 
5.951600e+00 4.614914e+00 
5.986560e+00 4.566089e+00 
6.021830e+00 4.517589e+00 
6.056490e+00 4.470591e+00 
6.091160e+00 4.424232e+00 
6.125830e+00 4.378566e+00 
6.161090e+00 4.332789e+00 
6.195760e+00 4.288383e+00 
6.230420e+00 4.244644e+00 
6.265690e+00 4.200790e+00 
6.300950e+00 4.157512e+00 
6.335620e+00 4.115581e+00 
6.370880e+00 4.073558e+00 
6.405550e+00 4.032789e+00 
6.440220e+00 3.992585e+00 
6.475480e+00 3.952284e+00 
6.510150e+00 3.913209e+00 
6.544810e+00 3.874660e+00 
6.580080e+00 3.835988e+00 
6.614750e+00 3.798510e+00 
6.649410e+00 3.761528e+00 
6.684080e+00 3.725041e+00 
6.719340e+00 3.688448e+00 
6.754010e+00 3.652960e+00 
6.788680e+00 3.617944e+00 
6.823940e+00 3.582821e+00 
6.859800e+00 3.547595e+00 
6.894470e+00 3.513992e+00 
6.929140e+00 3.480835e+00 
6.963800e+00 3.448130e+00 
6.999070e+00 3.415295e+00 
7.033730e+00 3.383460e+00 
7.068400e+00 3.352035e+00 
7.103660e+00 3.320497e+00 
7.138330e+00 3.289896e+00 
7.173600e+00 3.259176e+00 
7.208260e+00 3.229380e+00 
7.243530e+00 3.199453e+00 
7.277600e+00 3.170919e+00 
7.312860e+00 3.141768e+00 
7.348120e+00 3.112994e+00 
7.382790e+00 3.085062e+00 
7.417460e+00 3.057496e+00 
7.452720e+00 3.029821e+00 
7.487390e+00 3.002953e+00 
7.522650e+00 2.975970e+00 
7.557320e+00 2.949797e+00 
7.591990e+00 2.923958e+00 
7.627250e+00 2.898003e+00 
7.662510e+00 2.872372e+00 
7.697180e+00 2.847506e+00 
7.731850e+00 2.822953e+00 
7.766510e+00 2.798703e+00 
7.801180e+00 2.774737e+00 
7.836440e+00 2.750674e+00 
7.871110e+00 2.727309e+00 
7.906380e+00 2.703824e+00 
7.941040e+00 2.681020e+00 
7.976310e+00 2.658107e+00 
8.011570e+00 2.635495e+00 
8.046240e+00 2.613523e+00 
8.080900e+00 2.591812e+00 
8.115570e+00 2.570359e+00 
8.150830e+00 2.548842e+00 
8.185500e+00 2.527930e+00 
8.220770e+00 2.506901e+00 
8.255430e+00 2.486473e+00 
8.290100e+00 2.466311e+00 
8.324770e+00 2.446380e+00 
8.359430e+00 2.426680e+00 
8.394700e+00 2.406860e+00 
8.429960e+00 2.387295e+00 
8.464630e+00 2.368300e+00 
8.499890e+00 2.349197e+00 
8.534560e+00 2.330623e+00 
8.569200e+00 2.312268e+00 
