# Parameters:
# omega_b = 0.023311, omega_m = 0.127165, n_s = 0.853150, h = 67.047244, w = -1.000000, sigma_8 = 0.718898
# z = 1.700000
#
# k[1/Mpc] # P(k):
8.694000e-04 6.648506e+03 
2.077466e-03 1.275220e+04 
3.285532e-03 1.696027e+04 
4.493598e-03 1.985702e+04 
5.701664e-03 2.174339e+04 
6.909730e-03 2.285529e+04 
8.117797e-03 2.340720e+04 
9.325863e-03 2.350750e+04 
1.053393e-02 2.325329e+04 
1.174199e-02 2.272685e+04 
1.295006e-02 2.198104e+04 
1.415813e-02 2.108158e+04 
1.536619e-02 2.008310e+04 
1.657426e-02 1.902225e+04 
1.778233e-02 1.793035e+04 
1.899039e-02 1.685187e+04 
2.019846e-02 1.580870e+04 
2.140652e-02 1.481852e+04 
2.261459e-02 1.389015e+04 
2.382266e-02 1.303338e+04 
2.503072e-02 1.225301e+04 
2.623879e-02 1.154828e+04 
2.744685e-02 1.091778e+04 
2.865492e-02 1.035798e+04 
2.986299e-02 9.862838e+03 
3.100100e-02 9.452673e+03 
3.220400e-02 9.071606e+03 
3.288100e-02 8.879970e+03 
3.424300e-02 8.535672e+03 
3.555100e-02 8.248682e+03 
3.686000e-02 7.997353e+03 
3.795000e-02 7.809288e+03 
3.929100e-02 7.599203e+03 
4.039800e-02 7.436916e+03 
4.164000e-02 7.262576e+03 
4.294400e-02 7.080352e+03 
4.415000e-02 6.912202e+03 
4.542900e-02 6.725980e+03 
4.660900e-02 6.550420e+03 
4.782300e-02 6.356759e+03 
4.892900e-02 6.175418e+03 
5.031200e-02 5.939515e+03 
5.155900e-02 5.718618e+03 
5.238100e-02 5.570706e+03 
5.378200e-02 5.317199e+03 
5.513400e-02 5.073202e+03 
5.627600e-02 4.870973e+03 
5.735300e-02 4.686513e+03 
5.870100e-02 4.467162e+03 
5.988700e-02 4.287202e+03 
6.113500e-02 4.111827e+03 
6.225900e-02 3.966731e+03 
6.340100e-02 3.831323e+03 
6.480200e-02 3.679481e+03 
6.601100e-02 3.561266e+03 
6.725500e-02 3.450349e+03 
6.829100e-02 3.366555e+03 
6.958600e-02 3.270394e+03 
7.071100e-02 3.195246e+03 
7.192300e-02 3.121903e+03 
7.307400e-02 3.058931e+03 
7.412300e-02 3.006550e+03 
7.550400e-02 2.944349e+03 
7.663100e-02 2.897642e+03 
7.791200e-02 2.848610e+03 
7.912700e-02 2.804374e+03 
8.027600e-02 2.763560e+03 
8.138400e-02 2.724567e+03 
8.272200e-02 2.677124e+03 
8.406100e-02 2.628512e+03 
8.534100e-02 2.579568e+03 
8.653800e-02 2.531325e+03 
8.759800e-02 2.487223e+03 
8.900300e-02 2.426389e+03 
9.009000e-02 2.377253e+03 
9.113300e-02 2.328302e+03 
9.239600e-02 2.268287e+03 
9.358000e-02 2.210907e+03 
9.496100e-02 2.142806e+03 
9.608400e-02 2.087848e+03 
9.727500e-02 2.030390e+03 
9.852600e-02 1.970585e+03 
9.973800e-02 1.914663e+03 
1.009000e-01 1.862861e+03 
1.020900e-01 1.812638e+03 
1.034000e-01 1.760266e+03 
1.046000e-01 1.715015e+03 
1.057200e-01 1.676579e+03 
1.069100e-01 1.637973e+03 
1.082500e-01 1.598940e+03 
1.093900e-01 1.568832e+03 
1.105400e-01 1.540492e+03 
1.116900e-01 1.515743e+03 
1.129600e-01 1.490080e+03 
1.142000e-01 1.467992e+03 
1.153300e-01 1.449070e+03 
1.166400e-01 1.428779e+03 
1.177800e-01 1.412066e+03 
1.190000e-01 1.394846e+03 
1.201200e-01 1.379131e+03 
1.213400e-01 1.362366e+03 
1.227100e-01 1.342632e+03 
1.238900e-01 1.325648e+03 
1.250700e-01 1.307657e+03 
1.263200e-01 1.288408e+03 
1.275500e-01 1.268493e+03 
1.287500e-01 1.248770e+03 
1.299900e-01 1.227683e+03 
1.311300e-01 1.208129e+03 
1.323500e-01 1.186757e+03 
1.335900e-01 1.165114e+03 
1.347100e-01 1.145429e+03 
1.359800e-01 1.123437e+03 
1.372100e-01 1.102251e+03 
1.384300e-01 1.081721e+03 
1.395700e-01 1.062898e+03 
1.407700e-01 1.043574e+03 
1.420300e-01 1.024008e+03 
1.432800e-01 1.005078e+03 
1.444500e-01 9.882919e+02 
1.456300e-01 9.717426e+02 
1.468900e-01 9.550436e+02 
1.480500e-01 9.401820e+02 
1.491700e-01 9.264596e+02 
1.503800e-01 9.123615e+02 
1.516400e-01 8.981459e+02 
1.528200e-01 8.857476e+02 
1.540200e-01 8.733949e+02 
1.551900e-01 8.620975e+02 
1.564300e-01 8.504851e+02 
1.576600e-01 8.394033e+02 
1.588700e-01 8.289617e+02 
1.600900e-01 8.186483e+02 
1.612700e-01 8.090621e+02 
1.625400e-01 7.989417e+02 
1.637600e-01 7.893850e+02 
1.649500e-01 7.802230e+02 
1.662200e-01 7.705910e+02 
1.674000e-01 7.615981e+02 
1.685000e-01 7.533600e+02 
1.697500e-01 7.439743e+02 
1.710300e-01 7.343572e+02 
1.722200e-01 7.255826e+02 
1.734400e-01 7.163437e+02 
1.746400e-01 7.074055e+02 
1.758700e-01 6.982982e+02 
1.770900e-01 6.892019e+02 
1.782700e-01 6.805626e+02 
1.794600e-01 6.718677e+02 
1.807000e-01 6.628805e+02 
1.819100e-01 6.542711e+02 
1.830100e-01 6.465237e+02 
1.842200e-01 6.381379e+02 
1.855000e-01 6.294327e+02 
1.867000e-01 6.214876e+02 
1.879200e-01 6.135519e+02 
1.890900e-01 6.060985e+02 
1.902800e-01 5.987805e+02 
1.915200e-01 5.912858e+02 
1.926900e-01 5.843849e+02 
1.939000e-01 5.775317e+02 
1.951700e-01 5.704610e+02 
1.963100e-01 5.642742e+02 
1.975100e-01 5.580137e+02 
1.987800e-01 5.514969e+02 
2.000100e-01 5.453398e+02 
2.012500e-01 5.393493e+02 
2.023400e-01 5.341629e+02 
2.036100e-01 5.282331e+02 
2.048900e-01 5.224355e+02 
2.060400e-01 5.173070e+02 
2.072200e-01 5.121245e+02 
2.084200e-01 5.069656e+02 
2.096900e-01 5.015896e+02 
2.109200e-01 4.964633e+02 
2.121100e-01 4.915586e+02 
2.132700e-01 4.868454e+02 
2.145200e-01 4.818410e+02 
2.157200e-01 4.770722e+02 
2.168800e-01 4.725116e+02 
2.180700e-01 4.678992e+02 
2.193400e-01 4.630261e+02 
2.206000e-01 4.582215e+02 
2.217500e-01 4.538993e+02 
2.229500e-01 4.494519e+02 
2.241400e-01 4.450408e+02 
2.253500e-01 4.406173e+02 
2.264900e-01 4.365072e+02 
2.277100e-01 4.321473e+02 
2.289900e-01 4.276152e+02 
2.301500e-01 4.235661e+02 
2.313600e-01 4.194002e+02 
2.325600e-01 4.152981e+02 
2.337700e-01 4.112191e+02 
2.350000e-01 4.071305e+02 
2.362000e-01 4.031929e+02 
2.374100e-01 3.992722e+02 
2.386500e-01 3.953098e+02 
2.399100e-01 3.913400e+02 
2.410400e-01 3.878398e+02 
2.422500e-01 3.841420e+02 
2.435000e-01 3.803740e+02 
2.447300e-01 3.767219e+02 
2.458700e-01 3.734005e+02 
2.470600e-01 3.699774e+02 
2.483300e-01 3.663728e+02 
2.495600e-01 3.629437e+02 
2.507600e-01 3.596621e+02 
2.519600e-01 3.564224e+02 
2.532200e-01 3.530651e+02 
2.543700e-01 3.500627e+02 
2.555500e-01 3.470351e+02 
2.568000e-01 3.438685e+02 
2.580100e-01 3.408422e+02 
2.592400e-01 3.378296e+02 
2.604100e-01 3.350101e+02 
2.616100e-01 3.321532e+02 
2.628400e-01 3.292609e+02 
2.640600e-01 3.264516e+02 
2.652200e-01 3.238218e+02 
2.664300e-01 3.211109e+02 
2.676500e-01 3.184107e+02 
2.688400e-01 3.158219e+02 
2.700700e-01 3.131865e+02 
2.712400e-01 3.107090e+02 
2.724800e-01 3.081141e+02 
2.736700e-01 3.056616e+02 
2.748800e-01 3.032052e+02 
2.761000e-01 3.007574e+02 
2.773200e-01 2.983382e+02 
2.785400e-01 2.959498e+02 
2.797000e-01 2.937104e+02 
2.808900e-01 2.914385e+02 
2.821400e-01 2.890794e+02 
2.833900e-01 2.867479e+02 
2.845500e-01 2.846095e+02 
2.857800e-01 2.823672e+02 
2.870300e-01 2.801146e+02 
2.882100e-01 2.780118e+02 
2.893900e-01 2.759322e+02 
2.906300e-01 2.737713e+02 
2.918900e-01 2.716004e+02 
2.930500e-01 2.696236e+02 
2.942500e-01 2.676001e+02 
2.954200e-01 2.656469e+02 
2.966500e-01 2.636157e+02 
2.978900e-01 2.615904e+02 
2.990400e-01 2.597321e+02 
3.002700e-01 2.577649e+02 
3.015100e-01 2.558030e+02 
3.026800e-01 2.539714e+02 
3.038500e-01 2.521586e+02 
3.050300e-01 2.503491e+02 
3.062600e-01 2.484812e+02 
3.075000e-01 2.466182e+02 
3.087000e-01 2.448344e+02 
3.099100e-01 2.430543e+02 
3.111200e-01 2.412933e+02 
3.123100e-01 2.395805e+02 
3.135300e-01 2.378424e+02 
3.147300e-01 2.361504e+02 
3.159900e-01 2.343922e+02 
3.171800e-01 2.327510e+02 
3.183700e-01 2.311277e+02 
3.196300e-01 2.294265e+02 
3.208400e-01 2.278096e+02 
3.220300e-01 2.262352e+02 
3.232000e-01 2.247059e+02 
3.244300e-01 2.231153e+02 
3.256700e-01 2.215281e+02 
3.269200e-01 2.199443e+02 
3.280800e-01 2.184890e+02 
3.292500e-01 2.170403e+02 
3.304800e-01 2.155339e+02 
3.317100e-01 2.140423e+02 
3.328900e-01 2.126252e+02 
3.340700e-01 2.112215e+02 
3.353600e-01 2.097081e+02 
3.365300e-01 2.083512e+02 
3.377100e-01 2.069954e+02 
3.389200e-01 2.056183e+02 
3.401600e-01 2.042205e+02 
3.413700e-01 2.028755e+02 
3.425300e-01 2.016021e+02 
3.437700e-01 2.002535e+02 
3.449800e-01 1.989500e+02 
3.461800e-01 1.976693e+02 
3.473600e-01 1.964241e+02 
3.485800e-01 1.951553e+02 
3.498100e-01 1.938879e+02 
3.510200e-01 1.926527e+02 
3.522000e-01 1.914590e+02 
3.533900e-01 1.902659e+02 
3.546400e-01 1.890339e+02 
3.558400e-01 1.878625e+02 
3.570600e-01 1.866823e+02 
3.582700e-01 1.855224e+02 
3.595000e-01 1.843538e+02 
3.607100e-01 1.832200e+02 
3.618900e-01 1.821281e+02 
3.631200e-01 1.810000e+02 
3.643200e-01 1.799090e+02 
3.655500e-01 1.788007e+02 
3.667300e-01 1.777467e+02 
3.679500e-01 1.766765e+02 
3.691900e-01 1.755983e+02 
3.703600e-01 1.745898e+02 
3.715700e-01 1.735556e+02 
3.727700e-01 1.725387e+02 
3.739900e-01 1.715167e+02 
3.752000e-01 1.705171e+02 
3.763900e-01 1.695424e+02 
3.775800e-01 1.685757e+02 
3.788200e-01 1.675769e+02 
3.800300e-01 1.666106e+02 
3.812100e-01 1.656810e+02 
3.824200e-01 1.647389e+02 
3.836100e-01 1.638200e+02 
3.848600e-01 1.628628e+02 
3.860400e-01 1.619666e+02 
3.872400e-01 1.610627e+02 
3.884600e-01 1.601570e+02 
3.896500e-01 1.592828e+02 
3.908700e-01 1.583939e+02 
3.920600e-01 1.575338e+02 
3.933100e-01 1.566378e+02 
3.945300e-01 1.557704e+02 
3.957200e-01 1.549368e+02 
3.969300e-01 1.540976e+02 
3.981700e-01 1.532445e+02 
3.993500e-01 1.524392e+02 
4.094840e-01 1.458026e+02 
4.272360e-01 1.353132e+02 
4.454600e-01 1.257993e+02 
4.630560e-01 1.176273e+02 
4.804610e-01 1.103810e+02 
4.980690e-01 1.037780e+02 
5.159230e-01 9.772933e+01 
5.317440e-01 9.284484e+01 
5.489640e-01 8.797973e+01 
5.671990e-01 8.328153e+01 
5.838690e-01 7.934440e+01 
6.018840e-01 7.543350e+01 
6.202330e-01 7.178120e+01 
6.379250e-01 6.853398e+01 
6.545410e-01 6.571365e+01 
6.714560e-01 6.304045e+01 
6.892080e-01 6.043312e+01 
7.066010e-01 5.805789e+01 
7.240540e-01 5.583296e+01 
7.420450e-01 5.369454e+01 
7.593780e-01 5.176879e+01 
7.764720e-01 4.998555e+01 
7.942840e-01 4.824098e+01 
8.116170e-01 4.664637e+01 
8.288310e-01 4.515523e+01 
8.462240e-01 4.373333e+01 
8.631980e-01 4.242223e+01 
8.810700e-01 4.111686e+01 
8.989410e-01 3.988264e+01 
9.166330e-01 3.872583e+01 
9.345640e-01 3.761489e+01 
9.515980e-01 3.661211e+01 
9.688720e-01 3.564428e+01 
9.865640e-01 3.470128e+01 
1.031870e+00 3.248146e+01 
1.063490e+00 3.108152e+01 
1.097920e+00 2.967898e+01 
1.134370e+00 2.831479e+01 
1.167730e+00 2.716345e+01 
1.203830e+00 2.601111e+01 
1.240470e+00 2.492885e+01 
1.275790e+00 2.396081e+01 
1.309140e+00 2.310733e+01 
1.342970e+00 2.229625e+01 
1.378420e+00 2.149952e+01 
1.413200e+00 2.076653e+01 
1.448110e+00 2.007426e+01 
1.484090e+00 1.940249e+01 
1.518820e+00 1.879120e+01 
1.552880e+00 1.822415e+01 
1.588630e+00 1.766036e+01 
1.623230e+00 1.714335e+01 
1.657720e+00 1.665378e+01 
1.692450e+00 1.618510e+01 
1.726400e+00 1.574862e+01 
1.762200e+00 1.530966e+01 
1.797880e+00 1.489299e+01 
1.833270e+00 1.449865e+01 
1.869070e+00 1.411754e+01 
1.903200e+00 1.377001e+01 
1.937740e+00 1.343286e+01 
1.973190e+00 1.310101e+01 
2.007440e+00 1.279343e+01 
2.042160e+00 1.249389e+01 
2.077900e+00 1.219761e+01 
2.112390e+00 1.192275e+01 
2.146220e+00 1.166293e+01 
2.181600e+00 1.140124e+01 
2.216930e+00 1.114941e+01 
2.250760e+00 1.091677e+01 
2.286500e+00 1.067959e+01 
2.321770e+00 1.045376e+01 
2.355950e+00 1.024223e+01 
2.391280e+00 1.003074e+01 
2.426240e+00 9.828300e+00 
2.460670e+00 9.635373e+00 
2.495640e+00 9.445723e+00 
2.531080e+00 9.259410e+00 
2.566220e+00 9.080366e+00 
2.600830e+00 8.909434e+00 
2.635080e+00 8.745373e+00 
2.670340e+00 8.581162e+00 
2.705970e+00 8.420174e+00 
2.740040e+00 8.270717e+00 
2.774520e+00 8.123571e+00 
2.809730e+00 7.977401e+00 
2.844390e+00 7.837560e+00 
2.879960e+00 7.697943e+00 
2.914860e+00 7.564564e+00 
2.949410e+00 7.436097e+00 
2.984440e+00 7.309142e+00 
3.019760e+00 7.184480e+00 
3.054730e+00 7.064344e+00 
3.089030e+00 6.949173e+00 
3.124060e+00 6.834567e+00 
3.159560e+00 6.721315e+00 
3.194710e+00 6.611888e+00 
3.229010e+00 6.507809e+00 
3.263320e+00 6.405787e+00 
3.297930e+00 6.305413e+00 
3.332830e+00 6.206542e+00 
3.368040e+00 6.109070e+00 
3.403300e+00 6.013752e+00 
3.438450e+00 5.920797e+00 
3.473060e+00 5.831482e+00 
3.508440e+00 5.741917e+00 
3.543110e+00 5.656244e+00 
3.577470e+00 5.572988e+00 
3.613040e+00 5.488777e+00 
3.648120e+00 5.407424e+00 
3.682910e+00 5.328501e+00 
3.718050e+00 5.250356e+00 
3.753320e+00 5.173611e+00 
3.787980e+00 5.099708e+00 
3.822290e+00 5.028057e+00 
3.857020e+00 4.956921e+00 
3.891920e+00 4.886909e+00 
3.926650e+00 4.818541e+00 
3.961970e+00 4.750447e+00 
3.997360e+00 4.683460e+00 
4.031670e+00 4.619881e+00 
4.066330e+00 4.556784e+00 
4.101420e+00 4.494267e+00 
4.136200e+00 4.433228e+00 
4.170810e+00 4.373772e+00 
4.206250e+00 4.313931e+00 
4.241580e+00 4.255496e+00 
4.276300e+00 4.199063e+00 
4.310970e+00 4.143755e+00 
4.346120e+00 4.088721e+00 
4.380600e+00 4.035650e+00 
4.414730e+00 3.984153e+00 
4.450350e+00 3.931211e+00 
4.485320e+00 3.880282e+00 
4.519810e+00 3.830845e+00 
4.555430e+00 3.780708e+00 
4.590870e+00 3.731742e+00 
4.625480e+00 3.684703e+00 
4.659910e+00 3.638800e+00 
4.695230e+00 3.592401e+00 
4.729960e+00 3.547617e+00 
4.764450e+00 3.503893e+00 
4.799530e+00 3.460118e+00 
4.834910e+00 3.416800e+00 
4.869700e+00 3.374824e+00 
4.904370e+00 3.333732e+00 
4.939450e+00 3.292867e+00 
4.973940e+00 3.253296e+00 
5.008430e+00 3.214433e+00 
5.043810e+00 3.175174e+00 
5.078840e+00 3.136939e+00 
5.113500e+00 3.099779e+00 
5.148890e+00 3.062336e+00 
5.184210e+00 3.025625e+00 
5.219060e+00 2.990009e+00 
5.253660e+00 2.955176e+00 
5.288570e+00 2.920635e+00 
5.323420e+00 2.886682e+00 
5.358440e+00 2.853077e+00 
5.393590e+00 2.819922e+00 
5.428310e+00 2.787648e+00 
5.462800e+00 2.756080e+00 
5.497640e+00 2.724721e+00 
5.532670e+00 2.693637e+00 
5.567280e+00 2.663407e+00 
5.602000e+00 2.633576e+00 
5.637270e+00 2.603700e+00 
5.672410e+00 2.574406e+00 
5.707020e+00 2.546019e+00 
5.742040e+00 2.517699e+00 
5.777430e+00 2.489530e+00 
5.812210e+00 2.462288e+00 
5.846820e+00 2.435551e+00 
5.881610e+00 2.409080e+00 
5.916510e+00 2.382941e+00 
5.951600e+00 2.357031e+00 
5.986560e+00 2.331601e+00 
6.021830e+00 2.306342e+00 
6.056490e+00 2.281880e+00 
6.091160e+00 2.257762e+00 
6.125830e+00 2.234007e+00 
6.161090e+00 2.210205e+00 
6.195760e+00 2.187134e+00 
6.230420e+00 2.164411e+00 
6.265690e+00 2.141632e+00 
6.300950e+00 2.119176e+00 
6.335620e+00 2.097421e+00 
6.370880e+00 2.075621e+00 
6.405550e+00 2.054488e+00 
6.440220e+00 2.033656e+00 
6.475480e+00 2.012776e+00 
6.510150e+00 1.992540e+00 
6.544810e+00 1.972593e+00 
6.580080e+00 1.952585e+00 
6.614750e+00 1.933197e+00 
6.649410e+00 1.914086e+00 
6.684080e+00 1.895235e+00 
6.719340e+00 1.876332e+00 
6.754010e+00 1.858006e+00 
6.788680e+00 1.839936e+00 
6.823940e+00 1.821811e+00 
6.859800e+00 1.803635e+00 
6.894470e+00 1.786317e+00 
6.929140e+00 1.769237e+00 
6.963800e+00 1.752391e+00 
6.999070e+00 1.735480e+00 
7.033730e+00 1.719106e+00 
7.068400e+00 1.702944e+00 
7.103660e+00 1.686725e+00 
7.138330e+00 1.670995e+00 
7.173600e+00 1.655217e+00 
7.208260e+00 1.639914e+00 
7.243530e+00 1.624545e+00 
7.277600e+00 1.609906e+00 
7.312860e+00 1.594963e+00 
7.348120e+00 1.580214e+00 
7.382790e+00 1.565898e+00 
7.417460e+00 1.551783e+00 
7.452720e+00 1.537620e+00 
7.487390e+00 1.523870e+00 
7.522650e+00 1.510062e+00 
7.557320e+00 1.496687e+00 
7.591990e+00 1.483489e+00 
7.627250e+00 1.470233e+00 
7.662510e+00 1.457143e+00 
7.697180e+00 1.444458e+00 
7.731850e+00 1.431938e+00 
7.766510e+00 1.419573e+00 
7.801180e+00 1.407353e+00 
7.836440e+00 1.395100e+00 
7.871110e+00 1.383213e+00 
7.906380e+00 1.371264e+00 
7.941040e+00 1.359663e+00 
7.976310e+00 1.348015e+00 
8.011570e+00 1.336531e+00 
8.046240e+00 1.325372e+00 
8.080900e+00 1.314347e+00 
8.115570e+00 1.303456e+00 
8.150830e+00 1.292551e+00 
8.185500e+00 1.281953e+00 
8.220770e+00 1.271296e+00 
8.255430e+00 1.260943e+00 
8.290100e+00 1.250743e+00 
8.324770e+00 1.240663e+00 
8.359430e+00 1.230698e+00 
8.394700e+00 1.220673e+00 
8.429960e+00 1.210789e+00 
8.464630e+00 1.201204e+00 
8.499890e+00 1.191564e+00 
8.534560e+00 1.182191e+00 
8.569200e+00 1.172928e+00 
