# Parameters:
# omega_b = 0.021642, omega_m = 0.127992, n_s = 1.018504, h = 68.937008, w = -1.000000, sigma_8 = 0.750394
# z = 1.700000
#
# k[1/Mpc] # P(k):
8.694000e-04 3.043608e+03 
2.077466e-03 6.737725e+03 
3.285532e-03 9.670892e+03 
4.493598e-03 1.193146e+04 
5.701664e-03 1.360809e+04 
6.909730e-03 1.478908e+04 
8.117797e-03 1.557864e+04 
9.325863e-03 1.603175e+04 
1.053393e-02 1.620523e+04 
1.174199e-02 1.615261e+04 
1.295006e-02 1.590782e+04 
1.415813e-02 1.551658e+04 
1.536619e-02 1.501867e+04 
1.657426e-02 1.444115e+04 
1.778233e-02 1.380853e+04 
1.899039e-02 1.315625e+04 
2.019846e-02 1.250396e+04 
2.140652e-02 1.186829e+04 
2.261459e-02 1.125872e+04 
2.382266e-02 1.068610e+04 
2.503072e-02 1.015758e+04 
2.623879e-02 9.675447e+03 
2.744685e-02 9.240860e+03 
2.865492e-02 8.853015e+03 
2.986299e-02 8.508872e+03 
3.100100e-02 8.223592e+03 
3.220400e-02 7.958560e+03 
3.288100e-02 7.825409e+03 
3.424300e-02 7.586102e+03 
3.555100e-02 7.386110e+03 
3.686000e-02 7.209927e+03 
3.795000e-02 7.076880e+03 
3.929100e-02 6.925694e+03 
4.039800e-02 6.806473e+03 
4.164000e-02 6.675608e+03 
4.294400e-02 6.534349e+03 
4.415000e-02 6.401333e+03 
4.542900e-02 6.250331e+03 
4.660900e-02 6.105937e+03 
4.782300e-02 5.944161e+03 
4.892900e-02 5.791393e+03 
5.031200e-02 5.591264e+03 
5.155900e-02 5.402797e+03 
5.238100e-02 5.276183e+03 
5.378200e-02 5.058394e+03 
5.513400e-02 4.847813e+03 
5.627600e-02 4.672516e+03 
5.735300e-02 4.511662e+03 
5.870100e-02 4.318657e+03 
5.988700e-02 4.158424e+03 
6.113500e-02 4.000133e+03 
6.225900e-02 3.867408e+03 
6.340100e-02 3.742116e+03 
6.480200e-02 3.600416e+03 
6.601100e-02 3.489814e+03 
6.725500e-02 3.386465e+03 
6.829100e-02 3.309129e+03 
6.958600e-02 3.221303e+03 
7.071100e-02 3.153672e+03 
7.192300e-02 3.088559e+03 
7.307400e-02 3.033435e+03 
7.412300e-02 2.988156e+03 
7.550400e-02 2.935188e+03 
7.663100e-02 2.895858e+03 
7.791200e-02 2.855074e+03 
7.912700e-02 2.818505e+03 
8.027600e-02 2.784785e+03 
8.138400e-02 2.752471e+03 
8.272200e-02 2.712857e+03 
8.406100e-02 2.671770e+03 
8.534100e-02 2.629667e+03 
8.653800e-02 2.587422e+03 
8.759800e-02 2.548304e+03 
8.900300e-02 2.493537e+03 
9.009000e-02 2.448613e+03 
9.113300e-02 2.403247e+03 
9.239600e-02 2.347093e+03 
9.358000e-02 2.292784e+03 
9.496100e-02 2.227531e+03 
9.608400e-02 2.174446e+03 
9.727500e-02 2.118612e+03 
9.852600e-02 2.059916e+03 
9.973800e-02 2.004795e+03 
1.009000e-01 1.953540e+03 
1.020900e-01 1.903589e+03 
1.034000e-01 1.851408e+03 
1.046000e-01 1.806242e+03 
1.057200e-01 1.767883e+03 
1.069100e-01 1.729361e+03 
1.082500e-01 1.690533e+03 
1.093900e-01 1.660708e+03 
1.105400e-01 1.632710e+03 
1.116900e-01 1.608518e+03 
1.129600e-01 1.583533e+03 
1.142000e-01 1.562327e+03 
1.153300e-01 1.544284e+03 
1.166400e-01 1.525137e+03 
1.177800e-01 1.509526e+03 
1.190000e-01 1.493521e+03 
1.201200e-01 1.478964e+03 
1.213400e-01 1.463446e+03 
1.227100e-01 1.445077e+03 
1.238900e-01 1.429217e+03 
1.250700e-01 1.412244e+03 
1.263200e-01 1.393986e+03 
1.275500e-01 1.374891e+03 
1.287500e-01 1.355849e+03 
1.299900e-01 1.335292e+03 
1.311300e-01 1.316097e+03 
1.323500e-01 1.294926e+03 
1.335900e-01 1.273358e+03 
1.347100e-01 1.253581e+03 
1.359800e-01 1.231391e+03 
1.372100e-01 1.209846e+03 
1.384300e-01 1.188900e+03 
1.395700e-01 1.169565e+03 
1.407700e-01 1.149689e+03 
1.420300e-01 1.129443e+03 
1.432800e-01 1.109840e+03 
1.444500e-01 1.092408e+03 
1.456300e-01 1.075210e+03 
1.468900e-01 1.057865e+03 
1.480500e-01 1.042425e+03 
1.491700e-01 1.028198e+03 
1.503800e-01 1.013622e+03 
1.516400e-01 9.989390e+02 
1.528200e-01 9.862272e+02 
1.540200e-01 9.735551e+02 
1.551900e-01 9.620707e+02 
1.564300e-01 9.502881e+02 
1.576600e-01 9.390915e+02 
1.588700e-01 9.286023e+02 
1.600900e-01 9.182404e+02 
1.612700e-01 9.086710e+02 
1.625400e-01 8.985637e+02 
1.637600e-01 8.890096e+02 
1.649500e-01 8.798429e+02 
1.662200e-01 8.701917e+02 
1.674000e-01 8.611224e+02 
1.685000e-01 8.528104e+02 
1.697500e-01 8.432749e+02 
1.710300e-01 8.334394e+02 
1.722200e-01 8.244606e+02 
1.734400e-01 8.148755e+02 
1.746400e-01 8.055921e+02 
1.758700e-01 7.960890e+02 
1.770900e-01 7.865140e+02 
1.782700e-01 7.774152e+02 
1.794600e-01 7.682040e+02 
1.807000e-01 7.586454e+02 
1.819100e-01 7.494838e+02 
1.830100e-01 7.411978e+02 
1.842200e-01 7.322183e+02 
1.855000e-01 7.228915e+02 
1.867000e-01 7.143662e+02 
1.879200e-01 7.058468e+02 
1.890900e-01 6.978441e+02 
1.902800e-01 6.899979e+02 
1.915200e-01 6.819583e+02 
1.926900e-01 6.745597e+02 
1.939000e-01 6.672336e+02 
1.951700e-01 6.596712e+02 
1.963100e-01 6.530605e+02 
1.975100e-01 6.463933e+02 
1.987800e-01 6.394499e+02 
2.000100e-01 6.328957e+02 
2.012500e-01 6.265371e+02 
2.023400e-01 6.210297e+02 
2.036100e-01 6.147330e+02 
2.048900e-01 6.085856e+02 
2.060400e-01 6.031451e+02 
2.072200e-01 5.976450e+02 
2.084200e-01 5.921662e+02 
2.096900e-01 5.864542e+02 
2.109200e-01 5.810052e+02 
2.121100e-01 5.757733e+02 
2.132700e-01 5.707426e+02 
2.145200e-01 5.653989e+02 
2.157200e-01 5.602888e+02 
2.168800e-01 5.553924e+02 
2.180700e-01 5.504384e+02 
2.193400e-01 5.451913e+02 
2.206000e-01 5.399959e+02 
2.217500e-01 5.353202e+02 
2.229500e-01 5.305072e+02 
2.241400e-01 5.257052e+02 
2.253500e-01 5.208872e+02 
2.264900e-01 5.164088e+02 
2.277100e-01 5.116443e+02 
2.289900e-01 5.066765e+02 
2.301500e-01 5.022363e+02 
2.313600e-01 4.976661e+02 
2.325600e-01 4.931452e+02 
2.337700e-01 4.886480e+02 
2.350000e-01 4.841384e+02 
2.362000e-01 4.797878e+02 
2.374100e-01 4.754472e+02 
2.386500e-01 4.710589e+02 
2.399100e-01 4.666605e+02 
2.410400e-01 4.627732e+02 
2.422500e-01 4.586642e+02 
2.435000e-01 4.544754e+02 
2.447300e-01 4.504131e+02 
2.458700e-01 4.467142e+02 
2.470600e-01 4.429007e+02 
2.483300e-01 4.388835e+02 
2.495600e-01 4.350599e+02 
2.507600e-01 4.313987e+02 
2.519600e-01 4.277830e+02 
2.532200e-01 4.240346e+02 
2.543700e-01 4.206815e+02 
2.555500e-01 4.172991e+02 
2.568000e-01 4.137602e+02 
2.580100e-01 4.103770e+02 
2.592400e-01 4.070088e+02 
2.604100e-01 4.038560e+02 
2.616100e-01 4.006603e+02 
2.628400e-01 3.974239e+02 
2.640600e-01 3.942807e+02 
2.652200e-01 3.913379e+02 
2.664300e-01 3.883035e+02 
2.676500e-01 3.852799e+02 
2.688400e-01 3.823816e+02 
2.700700e-01 3.794308e+02 
2.712400e-01 3.766560e+02 
2.724800e-01 3.737487e+02 
2.736700e-01 3.710010e+02 
2.748800e-01 3.682491e+02 
2.761000e-01 3.655058e+02 
2.773200e-01 3.627937e+02 
2.785400e-01 3.601156e+02 
2.797000e-01 3.576044e+02 
2.808900e-01 3.550559e+02 
2.821400e-01 3.524087e+02 
2.833900e-01 3.497917e+02 
2.845500e-01 3.473929e+02 
2.857800e-01 3.448767e+02 
2.870300e-01 3.423480e+02 
2.882100e-01 3.399868e+02 
2.893900e-01 3.376520e+02 
2.906300e-01 3.352257e+02 
2.918900e-01 3.327874e+02 
2.930500e-01 3.305664e+02 
2.942500e-01 3.282925e+02 
2.954200e-01 3.260976e+02 
2.966500e-01 3.238142e+02 
2.978900e-01 3.215369e+02 
2.990400e-01 3.194465e+02 
3.002700e-01 3.172336e+02 
3.015100e-01 3.150261e+02 
3.026800e-01 3.129647e+02 
3.038500e-01 3.109237e+02 
3.050300e-01 3.088856e+02 
3.062600e-01 3.067824e+02 
3.075000e-01 3.046840e+02 
3.087000e-01 3.026740e+02 
3.099100e-01 3.006676e+02 
3.111200e-01 2.986823e+02 
3.123100e-01 2.967509e+02 
3.135300e-01 2.947905e+02 
3.147300e-01 2.928814e+02 
3.159900e-01 2.908969e+02 
3.171800e-01 2.890437e+02 
3.183700e-01 2.872101e+02 
3.196300e-01 2.852877e+02 
3.208400e-01 2.834600e+02 
3.220300e-01 2.816798e+02 
3.232000e-01 2.799500e+02 
3.244300e-01 2.781504e+02 
3.256700e-01 2.763540e+02 
3.269200e-01 2.745608e+02 
3.280800e-01 2.729126e+02 
3.292500e-01 2.712709e+02 
3.304800e-01 2.695629e+02 
3.317100e-01 2.678713e+02 
3.328900e-01 2.662635e+02 
3.340700e-01 2.646704e+02 
3.353600e-01 2.629514e+02 
3.365300e-01 2.614092e+02 
3.377100e-01 2.598678e+02 
3.389200e-01 2.583015e+02 
3.401600e-01 2.567113e+02 
3.413700e-01 2.551797e+02 
3.425300e-01 2.537286e+02 
3.437700e-01 2.521913e+02 
3.449800e-01 2.507049e+02 
3.461800e-01 2.492440e+02 
3.473600e-01 2.478227e+02 
3.485800e-01 2.463726e+02 
3.498100e-01 2.449237e+02 
3.510200e-01 2.435112e+02 
3.522000e-01 2.421456e+02 
3.533900e-01 2.407804e+02 
3.546400e-01 2.393680e+02 
3.558400e-01 2.380246e+02 
3.570600e-01 2.366707e+02 
3.582700e-01 2.353395e+02 
3.595000e-01 2.339982e+02 
3.607100e-01 2.326950e+02 
3.618900e-01 2.314388e+02 
3.631200e-01 2.301405e+02 
3.643200e-01 2.288847e+02 
3.655500e-01 2.276084e+02 
3.667300e-01 2.263944e+02 
3.679500e-01 2.251585e+02 
3.691900e-01 2.239130e+02 
3.703600e-01 2.227476e+02 
3.715700e-01 2.215523e+02 
3.727700e-01 2.203766e+02 
3.739900e-01 2.191939e+02 
3.752000e-01 2.180356e+02 
3.763900e-01 2.169057e+02 
3.775800e-01 2.157849e+02 
3.788200e-01 2.146265e+02 
3.800300e-01 2.135055e+02 
3.812100e-01 2.124251e+02 
3.824200e-01 2.113289e+02 
3.836100e-01 2.102593e+02 
3.848600e-01 2.091450e+02 
3.860400e-01 2.081014e+02 
3.872400e-01 2.070485e+02 
3.884600e-01 2.059915e+02 
3.896500e-01 2.049705e+02 
3.908700e-01 2.039320e+02 
3.920600e-01 2.029269e+02 
3.933100e-01 2.018795e+02 
3.945300e-01 2.008653e+02 
3.957200e-01 1.998886e+02 
3.969300e-01 1.989045e+02 
3.981700e-01 1.979038e+02 
3.993500e-01 1.969589e+02 
4.094840e-01 1.891540e+02 
4.272360e-01 1.767318e+02 
4.454600e-01 1.653811e+02 
4.630560e-01 1.555674e+02 
4.804610e-01 1.468139e+02 
4.980690e-01 1.387954e+02 
5.159230e-01 1.314131e+02 
5.317440e-01 1.254256e+02 
5.489640e-01 1.194357e+02 
5.671990e-01 1.136268e+02 
5.838690e-01 1.087392e+02 
6.018840e-01 1.038666e+02 
6.202330e-01 9.929906e+01 
6.379250e-01 9.522448e+01 
6.545410e-01 9.167469e+01 
6.714560e-01 8.830145e+01 
6.892080e-01 8.500222e+01 
7.066010e-01 8.198986e+01 
7.240540e-01 7.916047e+01 
7.420450e-01 7.643598e+01 
7.593780e-01 7.397743e+01 
7.764720e-01 7.169598e+01 
7.942840e-01 6.945986e+01 
8.116170e-01 6.741236e+01 
8.288310e-01 6.549396e+01 
8.462240e-01 6.366169e+01 
8.631980e-01 6.196875e+01 
8.810700e-01 6.028006e+01 
8.989410e-01 5.868019e+01 
9.166330e-01 5.717773e+01 
9.345640e-01 5.573200e+01 
9.515980e-01 5.442435e+01 
9.688720e-01 5.315941e+01 
9.865640e-01 5.192445e+01 
1.031870e+00 4.900458e+01 
1.063490e+00 4.715281e+01 
1.097920e+00 4.528985e+01 
1.134370e+00 4.346727e+01 
1.167730e+00 4.192130e+01 
1.203830e+00 4.036427e+01 
1.240470e+00 3.889388e+01 
1.275790e+00 3.757038e+01 
1.309140e+00 3.639776e+01 
1.342970e+00 3.527532e+01 
1.378420e+00 3.416744e+01 
1.413200e+00 3.314189e+01 
1.448110e+00 3.216752e+01 
1.484090e+00 3.121695e+01 
1.518820e+00 3.034671e+01 
1.552880e+00 2.953458e+01 
1.588630e+00 2.872274e+01 
1.623230e+00 2.797425e+01 
1.657720e+00 2.726196e+01 
1.692450e+00 2.657648e+01 
1.726400e+00 2.593446e+01 
1.762200e+00 2.528541e+01 
1.797880e+00 2.466628e+01 
1.833270e+00 2.407763e+01 
1.869070e+00 2.350575e+01 
1.903200e+00 2.298178e+01 
1.937740e+00 2.247136e+01 
1.973190e+00 2.196672e+01 
2.007440e+00 2.149696e+01 
2.042160e+00 2.103743e+01 
2.077900e+00 2.058099e+01 
2.112390e+00 2.015601e+01 
2.146220e+00 1.975242e+01 
2.181600e+00 1.934445e+01 
2.216930e+00 1.895025e+01 
2.250760e+00 1.858484e+01 
2.286500e+00 1.821108e+01 
2.321770e+00 1.785394e+01 
2.355950e+00 1.751828e+01 
2.391280e+00 1.718121e+01 
2.426240e+00 1.685759e+01 
2.460670e+00 1.654835e+01 
2.495640e+00 1.624360e+01 
2.531080e+00 1.594293e+01 
2.566220e+00 1.565315e+01 
2.600830e+00 1.537578e+01 
2.635080e+00 1.510890e+01 
2.670340e+00 1.484087e+01 
2.705970e+00 1.457744e+01 
2.740040e+00 1.433234e+01 
2.774520e+00 1.409030e+01 
2.809730e+00 1.384920e+01 
2.844390e+00 1.361812e+01 
2.879960e+00 1.338687e+01 
2.914860e+00 1.316531e+01 
2.949410e+00 1.295155e+01 
2.984440e+00 1.273973e+01 
3.019760e+00 1.253130e+01 
3.054730e+00 1.233014e+01 
3.089030e+00 1.213671e+01 
3.124060e+00 1.194400e+01 
3.159560e+00 1.175324e+01 
3.194710e+00 1.156848e+01 
3.229010e+00 1.139256e+01 
3.263320e+00 1.121965e+01 
3.297930e+00 1.104937e+01 
3.332830e+00 1.088130e+01 
3.368040e+00 1.071536e+01 
3.403300e+00 1.055292e+01 
3.438450e+00 1.039415e+01 
3.473060e+00 1.024150e+01 
3.508440e+00 1.008805e+01 
3.543110e+00 9.941203e+00 
3.577470e+00 9.798237e+00 
3.613040e+00 9.653528e+00 
3.648120e+00 9.513459e+00 
3.682910e+00 9.377488e+00 
3.718050e+00 9.242704e+00 
3.753320e+00 9.110201e+00 
3.787980e+00 8.982415e+00 
3.822290e+00 8.858435e+00 
3.857020e+00 8.735222e+00 
3.891920e+00 8.613864e+00 
3.926650e+00 8.495201e+00 
3.961970e+00 8.376959e+00 
3.997360e+00 8.260514e+00 
4.031670e+00 8.149950e+00 
4.066330e+00 8.040063e+00 
4.101420e+00 7.931173e+00 
4.136200e+00 7.824734e+00 
4.170810e+00 7.721047e+00 
4.206250e+00 7.616563e+00 
4.241580e+00 7.514507e+00 
4.276300e+00 7.415874e+00 
4.310970e+00 7.319163e+00 
4.346120e+00 7.222880e+00 
4.380600e+00 7.129951e+00 
4.414730e+00 7.039772e+00 
4.450350e+00 6.946985e+00 
4.485320e+00 6.857723e+00 
4.519810e+00 6.771029e+00 
4.555430e+00 6.683085e+00 
4.590870e+00 6.597157e+00 
4.625480e+00 6.514536e+00 
4.659910e+00 6.433907e+00 
4.695230e+00 6.352388e+00 
4.729960e+00 6.273698e+00 
4.764450e+00 6.196849e+00 
4.799530e+00 6.119872e+00 
4.834910e+00 6.043696e+00 
4.869700e+00 5.969843e+00 
4.904370e+00 5.897536e+00 
4.939450e+00 5.825618e+00 
4.973940e+00 5.755953e+00 
5.008430e+00 5.687531e+00 
5.043810e+00 5.618386e+00 
5.078840e+00 5.551029e+00 
5.113500e+00 5.485564e+00 
5.148890e+00 5.419586e+00 
5.184210e+00 5.354894e+00 
5.219060e+00 5.292125e+00 
5.253660e+00 5.230719e+00 
5.288570e+00 5.169827e+00 
5.323420e+00 5.109954e+00 
5.358440e+00 5.050676e+00 
5.393590e+00 4.992191e+00 
5.428310e+00 4.935262e+00 
5.462800e+00 4.879580e+00 
5.497640e+00 4.824264e+00 
5.532670e+00 4.769429e+00 
5.567280e+00 4.716098e+00 
5.602000e+00 4.663468e+00 
5.637270e+00 4.610739e+00 
5.672410e+00 4.559031e+00 
5.707020e+00 4.508924e+00 
5.742040e+00 4.458932e+00 
5.777430e+00 4.409205e+00 
5.812210e+00 4.361114e+00 
5.846820e+00 4.313906e+00 
5.881610e+00 4.267166e+00 
5.916510e+00 4.221010e+00 
5.951600e+00 4.175252e+00 
5.986560e+00 4.130339e+00 
6.021830e+00 4.085728e+00 
6.056490e+00 4.042518e+00 
6.091160e+00 3.999913e+00 
6.125830e+00 3.957949e+00 
6.161090e+00 3.915897e+00 
6.195760e+00 3.875129e+00 
6.230420e+00 3.834977e+00 
6.265690e+00 3.794724e+00 
6.300950e+00 3.755031e+00 
6.335620e+00 3.716578e+00 
6.370880e+00 3.678044e+00 
6.405550e+00 3.640681e+00 
6.440220e+00 3.603846e+00 
6.475480e+00 3.566925e+00 
6.510150e+00 3.531138e+00 
6.544810e+00 3.495856e+00 
6.580080e+00 3.460465e+00 
6.614750e+00 3.426169e+00 
6.649410e+00 3.392349e+00 
6.684080e+00 3.358988e+00 
6.719340e+00 3.325533e+00 
6.754010e+00 3.293098e+00 
6.788680e+00 3.261113e+00 
6.823940e+00 3.229032e+00 
6.859800e+00 3.196860e+00 
6.894470e+00 3.166189e+00 
6.929140e+00 3.135934e+00 
6.963800e+00 3.106094e+00 
6.999070e+00 3.076138e+00 
7.033730e+00 3.047116e+00 
7.068400e+00 3.018470e+00 
7.103660e+00 2.989724e+00 
7.138330e+00 2.961838e+00 
7.173600e+00 2.933858e+00 
7.208260e+00 2.906722e+00 
7.243530e+00 2.879468e+00 
7.277600e+00 2.853495e+00 
7.312860e+00 2.826973e+00 
7.348120e+00 2.800795e+00 
7.382790e+00 2.775385e+00 
7.417460e+00 2.750322e+00 
7.452720e+00 2.725169e+00 
7.487390e+00 2.700749e+00 
7.522650e+00 2.676227e+00 
7.557320e+00 2.652455e+00 
7.591990e+00 2.628991e+00 
7.627250e+00 2.605424e+00 
7.662510e+00 2.582152e+00 
7.697180e+00 2.559588e+00 
7.731850e+00 2.537314e+00 
7.766510e+00 2.515315e+00 
7.801180e+00 2.493575e+00 
7.836440e+00 2.471760e+00 
7.871110e+00 2.450585e+00 
7.906380e+00 2.429302e+00 
7.941040e+00 2.408638e+00 
7.976310e+00 2.387883e+00 
8.011570e+00 2.367408e+00 
8.046240e+00 2.347514e+00 
8.080900e+00 2.327858e+00 
8.115570e+00 2.308439e+00 
8.150830e+00 2.288974e+00 
8.185500e+00 2.270057e+00 
8.220770e+00 2.251034e+00 
8.255430e+00 2.232557e+00 
8.290100e+00 2.214333e+00 
8.324770e+00 2.196321e+00 
8.359430e+00 2.178518e+00 
8.394700e+00 2.160607e+00 
8.429960e+00 2.142935e+00 
8.464630e+00 2.125784e+00 
8.499890e+00 2.108537e+00 
8.534560e+00 2.091768e+00 
8.569200e+00 2.075197e+00 
