# Parameters:
# omega_b = 0.022366, omega_m = 0.146457, n_s = 0.979134, h = 67.283465, w = -1.000000, sigma_8 = 0.860630
# z = 1.700000
#
# k[1/Mpc] # P(k):
8.694000e-04 3.157854e+03 
2.077466e-03 6.859656e+03 
3.285532e-03 9.810139e+03 
4.493598e-03 1.213285e+04 
5.701664e-03 1.390248e+04 
6.909730e-03 1.519976e+04 
8.117797e-03 1.612142e+04 
9.325863e-03 1.671715e+04 
1.053393e-02 1.703761e+04 
1.174199e-02 1.713043e+04 
1.295006e-02 1.702592e+04 
1.415813e-02 1.676612e+04 
1.536619e-02 1.638731e+04 
1.657426e-02 1.591410e+04 
1.778233e-02 1.536944e+04 
1.899039e-02 1.478797e+04 
2.019846e-02 1.418874e+04 
2.140652e-02 1.358892e+04 
2.261459e-02 1.299802e+04 
2.382266e-02 1.242830e+04 
2.503072e-02 1.188913e+04 
2.623879e-02 1.138472e+04 
2.744685e-02 1.091662e+04 
2.865492e-02 1.048786e+04 
2.986299e-02 1.009746e+04 
3.100100e-02 9.764550e+03 
3.220400e-02 9.447208e+03 
3.288100e-02 9.284097e+03 
3.424300e-02 8.985541e+03 
3.555100e-02 8.731403e+03 
3.686000e-02 8.504952e+03 
3.795000e-02 8.333741e+03 
3.929100e-02 8.141537e+03 
4.039800e-02 7.993571e+03 
4.164000e-02 7.835576e+03 
4.294400e-02 7.673170e+03 
4.415000e-02 7.525228e+03 
4.542900e-02 7.364187e+03 
4.660900e-02 7.213792e+03 
4.782300e-02 7.049569e+03 
4.892900e-02 6.895999e+03 
5.031200e-02 6.695998e+03 
5.155900e-02 6.507457e+03 
5.238100e-02 6.380097e+03 
5.378200e-02 6.159029e+03 
5.513400e-02 5.941285e+03 
5.627600e-02 5.755882e+03 
5.735300e-02 5.581594e+03 
5.870100e-02 5.365938e+03 
5.988700e-02 5.180797e+03 
6.113500e-02 4.991925e+03 
6.225900e-02 4.828685e+03 
6.340100e-02 4.670949e+03 
6.480200e-02 4.489608e+03 
6.601100e-02 4.345640e+03 
6.725500e-02 4.209748e+03 
6.829100e-02 4.106838e+03 
6.958600e-02 3.989080e+03 
7.071100e-02 3.897215e+03 
7.192300e-02 3.807722e+03 
7.307400e-02 3.731086e+03 
7.412300e-02 3.667589e+03 
7.550400e-02 3.592856e+03 
7.663100e-02 3.537419e+03 
7.791200e-02 3.480693e+03 
7.912700e-02 3.431269e+03 
8.027600e-02 3.387152e+03 
8.138400e-02 3.346276e+03 
8.272200e-02 3.298224e+03 
8.406100e-02 3.250494e+03 
8.534100e-02 3.203712e+03 
8.653800e-02 3.158118e+03 
8.759800e-02 3.116504e+03 
8.900300e-02 3.058925e+03 
9.009000e-02 3.011987e+03 
9.113300e-02 2.964549e+03 
9.239600e-02 2.905643e+03 
9.358000e-02 2.848292e+03 
9.496100e-02 2.778532e+03 
9.608400e-02 2.721139e+03 
9.727500e-02 2.660220e+03 
9.852600e-02 2.594718e+03 
9.973800e-02 2.532384e+03 
1.009000e-01 2.473738e+03 
1.020900e-01 2.414836e+03 
1.034000e-01 2.352363e+03 
1.046000e-01 2.297310e+03 
1.057200e-01 2.248846e+03 
1.069100e-01 2.199521e+03 
1.082500e-01 2.147895e+03 
1.093900e-01 2.107054e+03 
1.105400e-01 2.067988e+03 
1.116900e-01 2.032676e+03 
1.129600e-01 1.995719e+03 
1.142000e-01 1.963224e+03 
1.153300e-01 1.935401e+03 
1.166400e-01 1.905575e+03 
1.177800e-01 1.881611e+03 
1.190000e-01 1.857210e+03 
1.201200e-01 1.836325e+03 
1.213400e-01 1.814287e+03 
1.227100e-01 1.790729e+03 
1.238900e-01 1.770907e+03 
1.250700e-01 1.751333e+03 
1.263200e-01 1.730810e+03 
1.275500e-01 1.710483e+03 
1.287500e-01 1.690585e+03 
1.299900e-01 1.669663e+03 
1.311300e-01 1.650187e+03 
1.323500e-01 1.628794e+03 
1.335900e-01 1.606782e+03 
1.347100e-01 1.586326e+03 
1.359800e-01 1.563028e+03 
1.372100e-01 1.539757e+03 
1.384300e-01 1.516766e+03 
1.395700e-01 1.494723e+03 
1.407700e-01 1.471924e+03 
1.420300e-01 1.447502e+03 
1.432800e-01 1.423841e+03 
1.444500e-01 1.401692e+03 
1.456300e-01 1.379840e+03 
1.468900e-01 1.357146e+03 
1.480500e-01 1.336747e+03 
1.491700e-01 1.317728e+03 
1.503800e-01 1.297952e+03 
1.516400e-01 1.278000e+03 
1.528200e-01 1.260561e+03 
1.540200e-01 1.243184e+03 
1.551900e-01 1.227505e+03 
1.564300e-01 1.211440e+03 
1.576600e-01 1.196311e+03 
1.588700e-01 1.182304e+03 
1.600900e-01 1.168491e+03 
1.612700e-01 1.156149e+03 
1.625400e-01 1.143114e+03 
1.637600e-01 1.131073e+03 
1.649500e-01 1.119685e+03 
1.662200e-01 1.107754e+03 
1.674000e-01 1.096867e+03 
1.685000e-01 1.086889e+03 
1.697500e-01 1.075565e+03 
1.710300e-01 1.064006e+03 
1.722200e-01 1.053450e+03 
1.734400e-01 1.042283e+03 
1.746400e-01 1.031468e+03 
1.758700e-01 1.020381e+03 
1.770900e-01 1.009185e+03 
1.782700e-01 9.985398e+02 
1.794600e-01 9.876893e+02 
1.807000e-01 9.763785e+02 
1.819100e-01 9.655319e+02 
1.830100e-01 9.555791e+02 
1.842200e-01 9.447654e+02 
1.855000e-01 9.335202e+02 
1.867000e-01 9.230523e+02 
1.879200e-01 9.125881e+02 
1.890900e-01 9.027267e+02 
1.902800e-01 8.929045e+02 
1.915200e-01 8.828383e+02 
1.926900e-01 8.735385e+02 
1.939000e-01 8.642159e+02 
1.951700e-01 8.545917e+02 
1.963100e-01 8.461528e+02 
1.975100e-01 8.375735e+02 
1.987800e-01 8.286384e+02 
2.000100e-01 8.201940e+02 
2.012500e-01 8.119780e+02 
2.023400e-01 8.048618e+02 
2.036100e-01 7.967306e+02 
2.048900e-01 7.888111e+02 
2.060400e-01 7.818022e+02 
2.072200e-01 7.747211e+02 
2.084200e-01 7.677261e+02 
2.096900e-01 7.604330e+02 
2.109200e-01 7.534752e+02 
2.121100e-01 7.468707e+02 
2.132700e-01 7.405235e+02 
2.145200e-01 7.337808e+02 
2.157200e-01 7.273849e+02 
2.168800e-01 7.212799e+02 
2.180700e-01 7.151022e+02 
2.193400e-01 7.085790e+02 
2.206000e-01 7.021578e+02 
2.217500e-01 6.963777e+02 
2.229500e-01 6.904267e+02 
2.241400e-01 6.845237e+02 
2.253500e-01 6.786005e+02 
2.264900e-01 6.730935e+02 
2.277100e-01 6.672384e+02 
2.289900e-01 6.611371e+02 
2.301500e-01 6.556825e+02 
2.313600e-01 6.500666e+02 
2.325600e-01 6.445033e+02 
2.337700e-01 6.389677e+02 
2.350000e-01 6.334155e+02 
2.362000e-01 6.280491e+02 
2.374100e-01 6.226836e+02 
2.386500e-01 6.172576e+02 
2.399100e-01 6.118180e+02 
2.410400e-01 6.069881e+02 
2.422500e-01 6.018789e+02 
2.435000e-01 5.966694e+02 
2.447300e-01 5.916114e+02 
2.458700e-01 5.869869e+02 
2.470600e-01 5.822181e+02 
2.483300e-01 5.771936e+02 
2.495600e-01 5.724015e+02 
2.507600e-01 5.678004e+02 
2.519600e-01 5.632556e+02 
2.532200e-01 5.585431e+02 
2.543700e-01 5.543182e+02 
2.555500e-01 5.500500e+02 
2.568000e-01 5.455834e+02 
2.580100e-01 5.413127e+02 
2.592400e-01 5.370548e+02 
2.604100e-01 5.330660e+02 
2.616100e-01 5.290223e+02 
2.628400e-01 5.249266e+02 
2.640600e-01 5.209469e+02 
2.652200e-01 5.172200e+02 
2.664300e-01 5.133764e+02 
2.676500e-01 5.095460e+02 
2.688400e-01 5.058757e+02 
2.700700e-01 5.021397e+02 
2.712400e-01 4.986260e+02 
2.724800e-01 4.949440e+02 
2.736700e-01 4.914666e+02 
2.748800e-01 4.879866e+02 
2.761000e-01 4.845171e+02 
2.773200e-01 4.810863e+02 
2.785400e-01 4.777003e+02 
2.797000e-01 4.745294e+02 
2.808900e-01 4.713111e+02 
2.821400e-01 4.679675e+02 
2.833900e-01 4.646618e+02 
2.845500e-01 4.616378e+02 
2.857800e-01 4.584653e+02 
2.870300e-01 4.552766e+02 
2.882100e-01 4.522985e+02 
2.893900e-01 4.493567e+02 
2.906300e-01 4.463009e+02 
2.918900e-01 4.432295e+02 
2.930500e-01 4.404314e+02 
2.942500e-01 4.375666e+02 
2.954200e-01 4.348030e+02 
2.966500e-01 4.319275e+02 
2.978900e-01 4.290590e+02 
2.990400e-01 4.264256e+02 
3.002700e-01 4.236374e+02 
3.015100e-01 4.208557e+02 
3.026800e-01 4.182575e+02 
3.038500e-01 4.156847e+02 
3.050300e-01 4.131152e+02 
3.062600e-01 4.104618e+02 
3.075000e-01 4.078141e+02 
3.087000e-01 4.052775e+02 
3.099100e-01 4.027449e+02 
3.111200e-01 4.002375e+02 
3.123100e-01 3.977957e+02 
3.135300e-01 3.953169e+02 
3.147300e-01 3.929024e+02 
3.159900e-01 3.903922e+02 
3.171800e-01 3.880455e+02 
3.183700e-01 3.857214e+02 
3.196300e-01 3.832846e+02 
3.208400e-01 3.809673e+02 
3.220300e-01 3.787099e+02 
3.232000e-01 3.765133e+02 
3.244300e-01 3.742267e+02 
3.256700e-01 3.719436e+02 
3.269200e-01 3.696644e+02 
3.280800e-01 3.675690e+02 
3.292500e-01 3.654789e+02 
3.304800e-01 3.633032e+02 
3.317100e-01 3.611479e+02 
3.328900e-01 3.590993e+02 
3.340700e-01 3.570690e+02 
3.353600e-01 3.548753e+02 
3.365300e-01 3.529061e+02 
3.377100e-01 3.509376e+02 
3.389200e-01 3.489371e+02 
3.401600e-01 3.469056e+02 
3.413700e-01 3.449474e+02 
3.425300e-01 3.430906e+02 
3.437700e-01 3.411233e+02 
3.449800e-01 3.392209e+02 
3.461800e-01 3.373508e+02 
3.473600e-01 3.355308e+02 
3.485800e-01 3.336725e+02 
3.498100e-01 3.318156e+02 
3.510200e-01 3.300049e+02 
3.522000e-01 3.282543e+02 
3.533900e-01 3.265038e+02 
3.546400e-01 3.246918e+02 
3.558400e-01 3.229680e+02 
3.570600e-01 3.212305e+02 
3.582700e-01 3.195220e+02 
3.595000e-01 3.178001e+02 
3.607100e-01 3.161273e+02 
3.618900e-01 3.145146e+02 
3.631200e-01 3.128477e+02 
3.643200e-01 3.112351e+02 
3.655500e-01 3.095961e+02 
3.667300e-01 3.080367e+02 
3.679500e-01 3.064496e+02 
3.691900e-01 3.048501e+02 
3.703600e-01 3.033531e+02 
3.715700e-01 3.018175e+02 
3.727700e-01 3.003070e+02 
3.739900e-01 2.987878e+02 
3.752000e-01 2.973006e+02 
3.763900e-01 2.958498e+02 
3.775800e-01 2.944104e+02 
3.788200e-01 2.929226e+02 
3.800300e-01 2.914826e+02 
3.812100e-01 2.900955e+02 
3.824200e-01 2.886885e+02 
3.836100e-01 2.873156e+02 
3.848600e-01 2.858850e+02 
3.860400e-01 2.845452e+02 
3.872400e-01 2.831931e+02 
3.884600e-01 2.818369e+02 
3.896500e-01 2.805272e+02 
3.908700e-01 2.791948e+02 
3.920600e-01 2.779052e+02 
3.933100e-01 2.765611e+02 
3.945300e-01 2.752595e+02 
3.957200e-01 2.740076e+02 
3.969300e-01 2.727466e+02 
3.981700e-01 2.714643e+02 
3.993500e-01 2.702532e+02 
4.094840e-01 2.602481e+02 
4.272360e-01 2.443461e+02 
4.454600e-01 2.298075e+02 
4.630560e-01 2.172160e+02 
4.804610e-01 2.059500e+02 
4.980690e-01 1.955896e+02 
5.159230e-01 1.860040e+02 
5.317440e-01 1.781943e+02 
5.489640e-01 1.703402e+02 
5.671990e-01 1.626851e+02 
5.838690e-01 1.562164e+02 
6.018840e-01 1.497442e+02 
6.202330e-01 1.436530e+02 
6.379250e-01 1.382026e+02 
6.545410e-01 1.334404e+02 
6.714560e-01 1.289071e+02 
6.892080e-01 1.244626e+02 
7.066010e-01 1.203991e+02 
7.240540e-01 1.165742e+02 
7.420450e-01 1.128872e+02 
7.593780e-01 1.095551e+02 
7.764720e-01 1.064592e+02 
7.942840e-01 1.034205e+02 
8.116170e-01 1.006350e+02 
8.288310e-01 9.802050e+01 
8.462240e-01 9.552064e+01 
8.631980e-01 9.320665e+01 
8.810700e-01 9.089440e+01 
8.989410e-01 8.869940e+01 
9.166330e-01 8.663370e+01 
9.345640e-01 8.464323e+01 
9.515980e-01 8.283865e+01 
9.688720e-01 8.108796e+01 
9.865640e-01 7.937515e+01 
1.031870e+00 7.530583e+01 
1.063490e+00 7.270941e+01 
1.097920e+00 7.008409e+01 
1.134370e+00 6.749942e+01 
1.167730e+00 6.529452e+01 
1.203830e+00 6.305792e+01 
1.240470e+00 6.093343e+01 
1.275790e+00 5.900869e+01 
1.309140e+00 5.729466e+01 
1.342970e+00 5.564050e+01 
1.378420e+00 5.400056e+01 
1.413200e+00 5.247318e+01 
1.448110e+00 5.101411e+01 
1.484090e+00 4.958270e+01 
1.518820e+00 4.826533e+01 
1.552880e+00 4.702927e+01 
1.588630e+00 4.578791e+01 
1.623230e+00 4.463785e+01 
1.657720e+00 4.353865e+01 
1.692450e+00 4.247636e+01 
1.726400e+00 4.147736e+01 
1.762200e+00 4.046309e+01 
1.797880e+00 3.949154e+01 
1.833270e+00 3.856481e+01 
1.869070e+00 3.766133e+01 
1.903200e+00 3.683021e+01 
1.937740e+00 3.601851e+01 
1.973190e+00 3.521393e+01 
2.007440e+00 3.446295e+01 
2.042160e+00 3.372580e+01 
2.077900e+00 3.299168e+01 
2.112390e+00 3.230716e+01 
2.146220e+00 3.165495e+01 
2.181600e+00 3.099442e+01 
2.216930e+00 3.035456e+01 
2.250760e+00 2.976052e+01 
2.286500e+00 2.915203e+01 
2.321770e+00 2.856949e+01 
2.355950e+00 2.802105e+01 
2.391280e+00 2.746905e+01 
2.426240e+00 2.693832e+01 
2.460670e+00 2.643074e+01 
2.495640e+00 2.593022e+01 
2.531080e+00 2.543550e+01 
2.566220e+00 2.495787e+01 
2.600830e+00 2.450028e+01 
2.635080e+00 2.405974e+01 
2.670340e+00 2.361712e+01 
2.705970e+00 2.318160e+01 
2.740040e+00 2.277604e+01 
2.774520e+00 2.237526e+01 
2.809730e+00 2.197571e+01 
2.844390e+00 2.159264e+01 
2.879960e+00 2.120933e+01 
2.914860e+00 2.084182e+01 
2.949410e+00 2.048710e+01 
2.984440e+00 2.013536e+01 
3.019760e+00 1.978913e+01 
3.054730e+00 1.945497e+01 
3.089030e+00 1.913367e+01 
3.124060e+00 1.881364e+01 
3.159560e+00 1.849695e+01 
3.194710e+00 1.819007e+01 
3.229010e+00 1.789790e+01 
3.263320e+00 1.761075e+01 
3.297930e+00 1.732800e+01 
3.332830e+00 1.704895e+01 
3.368040e+00 1.677361e+01 
3.403300e+00 1.650421e+01 
3.438450e+00 1.624092e+01 
3.473060e+00 1.598785e+01 
3.508440e+00 1.573353e+01 
3.543110e+00 1.549028e+01 
3.577470e+00 1.525379e+01 
3.613040e+00 1.501446e+01 
3.648120e+00 1.478274e+01 
3.682910e+00 1.455802e+01 
3.718050e+00 1.433559e+01 
3.753320e+00 1.411697e+01 
3.787980e+00 1.390614e+01 
3.822290e+00 1.370177e+01 
3.857020e+00 1.349889e+01 
3.891920e+00 1.329917e+01 
3.926650e+00 1.310404e+01 
3.961970e+00 1.290975e+01 
3.997360e+00 1.271868e+01 
4.031670e+00 1.253735e+01 
4.066330e+00 1.235727e+01 
4.101420e+00 1.217890e+01 
4.136200e+00 1.200485e+01 
4.170810e+00 1.183536e+01 
4.206250e+00 1.166480e+01 
4.241580e+00 1.149831e+01 
4.276300e+00 1.133759e+01 
4.310970e+00 1.118015e+01 
4.346120e+00 1.102353e+01 
4.380600e+00 1.087254e+01 
4.414730e+00 1.072608e+01 
4.450350e+00 1.057565e+01 
4.485320e+00 1.043099e+01 
4.519810e+00 1.029075e+01 
4.555430e+00 1.014865e+01 
4.590870e+00 1.000988e+01 
4.625480e+00 9.876567e+00 
4.659910e+00 9.746518e+00 
4.695230e+00 9.615350e+00 
4.729960e+00 9.488827e+00 
4.764450e+00 9.365404e+00 
4.799530e+00 9.241975e+00 
4.834910e+00 9.119879e+00 
4.869700e+00 9.001680e+00 
4.904370e+00 8.886021e+00 
4.939450e+00 8.771091e+00 
4.973940e+00 8.659962e+00 
5.008430e+00 8.550858e+00 
5.043810e+00 8.440750e+00 
5.078840e+00 8.333594e+00 
5.113500e+00 8.229487e+00 
5.148890e+00 8.124851e+00 
5.184210e+00 8.022304e+00 
5.219060e+00 7.922879e+00 
5.253660e+00 7.825757e+00 
5.288570e+00 7.729482e+00 
5.323420e+00 7.634921e+00 
5.358440e+00 7.541406e+00 
5.393590e+00 7.449177e+00 
5.428310e+00 7.359594e+00 
5.462800e+00 7.272087e+00 
5.497640e+00 7.185185e+00 
5.532670e+00 7.099188e+00 
5.567280e+00 7.015616e+00 
5.602000e+00 6.933171e+00 
5.637270e+00 6.850716e+00 
5.672410e+00 6.769912e+00 
5.707020e+00 6.691635e+00 
5.742040e+00 6.613710e+00 
5.777430e+00 6.536251e+00 
5.812210e+00 6.461365e+00 
5.846820e+00 6.387968e+00 
5.881610e+00 6.315347e+00 
5.916510e+00 6.243654e+00 
5.951600e+00 6.172711e+00 
5.986560e+00 6.103148e+00 
6.021830e+00 6.034074e+00 
6.056490e+00 5.967261e+00 
6.091160e+00 5.901463e+00 
6.125830e+00 5.836674e+00 
6.161090e+00 5.771799e+00 
6.195760e+00 5.708990e+00 
6.230420e+00 5.647149e+00 
6.265690e+00 5.585175e+00 
6.300950e+00 5.524218e+00 
6.335620e+00 5.465180e+00 
6.370880e+00 5.406034e+00 
6.405550e+00 5.348758e+00 
6.440220e+00 5.292328e+00 
6.475480e+00 5.235783e+00 
6.510150e+00 5.181021e+00 
6.544810e+00 5.127122e+00 
6.580080e+00 5.073069e+00 
6.614750e+00 5.020702e+00 
6.649410e+00 4.969134e+00 
6.684080e+00 4.918289e+00 
6.719340e+00 4.867315e+00 
6.754010e+00 4.817937e+00 
6.788680e+00 4.769331e+00 
6.823940e+00 4.720590e+00 
6.859800e+00 4.671722e+00 
6.894470e+00 4.625201e+00 
6.929140e+00 4.579339e+00 
6.963800e+00 4.534115e+00 
6.999070e+00 4.488731e+00 
7.033730e+00 4.444825e+00 
7.068400e+00 4.401495e+00 
7.103660e+00 4.358023e+00 
7.138330e+00 4.315880e+00 
7.173600e+00 4.273639e+00 
7.208260e+00 4.232681e+00 
7.243530e+00 4.191553e+00 
7.277600e+00 4.152398e+00 
7.312860e+00 4.112452e+00 
7.348120e+00 4.073031e+00 
7.382790e+00 4.034775e+00 
7.417460e+00 3.997090e+00 
7.452720e+00 3.959299e+00 
7.487390e+00 3.922617e+00 
7.522650e+00 3.885788e+00 
7.557320e+00 3.850109e+00 
7.591990e+00 3.814906e+00 
7.627250e+00 3.779554e+00 
7.662510e+00 3.744650e+00 
7.697180e+00 3.710852e+00 
7.731850e+00 3.677505e+00 
7.766510e+00 3.644578e+00 
7.801180e+00 3.612044e+00 
7.836440e+00 3.579422e+00 
7.871110e+00 3.547774e+00 
7.906380e+00 3.515971e+00 
7.941040e+00 3.485098e+00 
7.976310e+00 3.454109e+00 
8.011570e+00 3.423562e+00 
8.046240e+00 3.393885e+00 
8.080900e+00 3.364569e+00 
8.115570e+00 3.335613e+00 
8.150830e+00 3.306607e+00 
8.185500e+00 3.278423e+00 
8.220770e+00 3.250086e+00 
8.255430e+00 3.222565e+00 
8.290100e+00 3.195459e+00 
8.324770e+00 3.168676e+00 
8.359430e+00 3.142207e+00 
8.394700e+00 3.115582e+00 
8.429960e+00 3.089323e+00 
8.464630e+00 3.063850e+00 
8.499890e+00 3.038238e+00 
8.534560e+00 3.013339e+00 
8.569200e+00 2.988739e+00 
