# Parameters:
# omega_b = 0.022193, omega_m = 0.124409, n_s = 0.924016, h = 79.094488, w = -1.000000, sigma_8 = 0.794488
# z = 1.700000
#
# k[1/Mpc] # P(k):
8.694000e-04 5.659513e+03 
2.077466e-03 1.149522e+04 
3.285532e-03 1.575581e+04 
4.493598e-03 1.881043e+04 
5.701664e-03 2.089974e+04 
6.909730e-03 2.222240e+04 
8.117797e-03 2.297280e+04 
9.325863e-03 2.325188e+04 
1.053393e-02 2.315416e+04 
1.174199e-02 2.276257e+04 
1.295006e-02 2.213063e+04 
1.415813e-02 2.132638e+04 
1.536619e-02 2.040584e+04 
1.657426e-02 1.940666e+04 
1.778233e-02 1.836272e+04 
1.899039e-02 1.732156e+04 
2.019846e-02 1.630776e+04 
2.140652e-02 1.534091e+04 
2.261459e-02 1.443153e+04 
2.382266e-02 1.359099e+04 
2.503072e-02 1.282551e+04 
2.623879e-02 1.213513e+04 
2.744685e-02 1.151931e+04 
2.865492e-02 1.097418e+04 
2.986299e-02 1.049364e+04 
3.100100e-02 1.009736e+04 
3.220400e-02 9.730580e+03 
3.288100e-02 9.546770e+03 
3.424300e-02 9.216892e+03 
3.555100e-02 8.941617e+03 
3.686000e-02 8.699310e+03 
3.795000e-02 8.516462e+03 
3.929100e-02 8.308957e+03 
4.039800e-02 8.145619e+03 
4.164000e-02 7.966893e+03 
4.294400e-02 7.775005e+03 
4.415000e-02 7.595144e+03 
4.542900e-02 7.392388e+03 
4.660900e-02 7.199567e+03 
4.782300e-02 6.985319e+03 
4.892900e-02 6.784209e+03 
5.031200e-02 6.522601e+03 
5.155900e-02 6.278268e+03 
5.238100e-02 6.115046e+03 
5.378200e-02 5.835691e+03 
5.513400e-02 5.566744e+03 
5.627600e-02 5.342949e+03 
5.735300e-02 5.136880e+03 
5.870100e-02 4.887705e+03 
5.988700e-02 4.678716e+03 
6.113500e-02 4.470500e+03 
6.225900e-02 4.295262e+03 
6.340100e-02 4.130589e+03 
6.480200e-02 3.946837e+03 
6.601100e-02 3.807192e+03 
6.725500e-02 3.680754e+03 
6.829100e-02 3.589554e+03 
6.958600e-02 3.489026e+03 
7.071100e-02 3.414317e+03 
7.192300e-02 3.344377e+03 
7.307400e-02 3.286593e+03 
7.412300e-02 3.239951e+03 
7.550400e-02 3.186141e+03 
7.663100e-02 3.146334e+03 
7.791200e-02 3.104683e+03 
7.912700e-02 3.066414e+03 
8.027600e-02 3.030146e+03 
8.138400e-02 2.994439e+03 
8.272200e-02 2.949276e+03 
8.406100e-02 2.901024e+03 
8.534100e-02 2.850194e+03 
8.653800e-02 2.798389e+03 
8.759800e-02 2.750107e+03 
8.900300e-02 2.682226e+03 
9.009000e-02 2.626523e+03 
9.113300e-02 2.570477e+03 
9.239600e-02 2.501408e+03 
9.358000e-02 2.435069e+03 
9.496100e-02 2.356203e+03 
9.608400e-02 2.292627e+03 
9.727500e-02 2.226258e+03 
9.852600e-02 2.157606e+03 
9.973800e-02 2.093750e+03 
1.009000e-01 2.034880e+03 
1.020900e-01 1.978650e+03 
1.034000e-01 1.920515e+03 
1.046000e-01 1.870811e+03 
1.057200e-01 1.829602e+03 
1.069100e-01 1.788605e+03 
1.082500e-01 1.748367e+03 
1.093900e-01 1.718129e+03 
1.105400e-01 1.690156e+03 
1.116900e-01 1.666853e+03 
1.129600e-01 1.643067e+03 
1.142000e-01 1.623521e+03 
1.153300e-01 1.607006e+03 
1.166400e-01 1.589670e+03 
1.177800e-01 1.575363e+03 
1.190000e-01 1.560619e+03 
1.201200e-01 1.546514e+03 
1.213400e-01 1.531359e+03 
1.227100e-01 1.512046e+03 
1.238900e-01 1.495087e+03 
1.250700e-01 1.476044e+03 
1.263200e-01 1.455272e+03 
1.275500e-01 1.432933e+03 
1.287500e-01 1.410461e+03 
1.299900e-01 1.385911e+03 
1.311300e-01 1.362968e+03 
1.323500e-01 1.337634e+03 
1.335900e-01 1.311960e+03 
1.347100e-01 1.288578e+03 
1.359800e-01 1.262542e+03 
1.372100e-01 1.237617e+03 
1.384300e-01 1.213593e+03 
1.395700e-01 1.191852e+03 
1.407700e-01 1.169587e+03 
1.420300e-01 1.147540e+03 
1.432800e-01 1.126210e+03 
1.444500e-01 1.107828e+03 
1.456300e-01 1.089702e+03 
1.468900e-01 1.071785e+03 
1.480500e-01 1.055947e+03 
1.491700e-01 1.041488e+03 
1.503800e-01 1.026850e+03 
1.516400e-01 1.012133e+03 
1.528200e-01 9.995209e+02 
1.540200e-01 9.869471e+02 
1.551900e-01 9.755632e+02 
1.564300e-01 9.638858e+02 
1.576600e-01 9.527431e+02 
1.588700e-01 9.422482e+02 
1.600900e-01 9.318707e+02 
1.612700e-01 9.221117e+02 
1.625400e-01 9.118044e+02 
1.637600e-01 9.019308e+02 
1.649500e-01 8.923822e+02 
1.662200e-01 8.822996e+02 
1.674000e-01 8.726598e+02 
1.685000e-01 8.638264e+02 
1.697500e-01 8.536248e+02 
1.710300e-01 8.430376e+02 
1.722200e-01 8.333755e+02 
1.734400e-01 8.229916e+02 
1.746400e-01 8.129360e+02 
1.758700e-01 8.026461e+02 
1.770900e-01 7.922819e+02 
1.782700e-01 7.824378e+02 
1.794600e-01 7.725027e+02 
1.807000e-01 7.622149e+02 
1.819100e-01 7.523593e+02 
1.830100e-01 7.435126e+02 
1.842200e-01 7.339404e+02 
1.855000e-01 7.240064e+02 
1.867000e-01 7.150193e+02 
1.879200e-01 7.060416e+02 
1.890900e-01 6.976261e+02 
1.902800e-01 6.894528e+02 
1.915200e-01 6.810805e+02 
1.926900e-01 6.733954e+02 
1.939000e-01 6.658451e+02 
1.951700e-01 6.580529e+02 
1.963100e-01 6.512556e+02 
1.975100e-01 6.444366e+02 
1.987800e-01 6.373361e+02 
2.000100e-01 6.306402e+02 
2.012500e-01 6.241584e+02 
2.023400e-01 6.185448e+02 
2.036100e-01 6.121255e+02 
2.048900e-01 6.058525e+02 
2.060400e-01 6.003013e+02 
2.072200e-01 5.946880e+02 
2.084200e-01 5.890739e+02 
2.096900e-01 5.832216e+02 
2.109200e-01 5.776394e+02 
2.121100e-01 5.722538e+02 
2.132700e-01 5.670748e+02 
2.145200e-01 5.615743e+02 
2.157200e-01 5.563025e+02 
2.168800e-01 5.512463e+02 
2.180700e-01 5.461314e+02 
2.193400e-01 5.407148e+02 
2.206000e-01 5.353524e+02 
2.217500e-01 5.305272e+02 
2.229500e-01 5.255612e+02 
2.241400e-01 5.206270e+02 
2.253500e-01 5.156777e+02 
2.264900e-01 5.110779e+02 
2.277100e-01 5.062045e+02 
2.289900e-01 5.011450e+02 
2.301500e-01 4.966236e+02 
2.313600e-01 4.919708e+02 
2.325600e-01 4.874201e+02 
2.337700e-01 4.828936e+02 
2.350000e-01 4.783551e+02 
2.362000e-01 4.740015e+02 
2.374100e-01 4.696873e+02 
2.386500e-01 4.653256e+02 
2.399100e-01 4.609541e+02 
2.410400e-01 4.571313e+02 
2.422500e-01 4.530954e+02 
2.435000e-01 4.489811e+02 
2.447300e-01 4.449975e+02 
2.458700e-01 4.413968e+02 
2.470600e-01 4.376842e+02 
2.483300e-01 4.337731e+02 
2.495600e-01 4.300573e+02 
2.507600e-01 4.265089e+02 
2.519600e-01 4.230043e+02 
2.532200e-01 4.193709e+02 
2.543700e-01 4.161197e+02 
2.555500e-01 4.128395e+02 
2.568000e-01 4.094073e+02 
2.580100e-01 4.061258e+02 
2.592400e-01 4.028483e+02 
2.604100e-01 3.997754e+02 
2.616100e-01 3.966606e+02 
2.628400e-01 3.935060e+02 
2.640600e-01 3.904247e+02 
2.652200e-01 3.875330e+02 
2.664300e-01 3.845512e+02 
2.676500e-01 3.815799e+02 
2.688400e-01 3.787154e+02 
2.700700e-01 3.757889e+02 
2.712400e-01 3.730370e+02 
2.724800e-01 3.701536e+02 
2.736700e-01 3.674165e+02 
2.748800e-01 3.646631e+02 
2.761000e-01 3.619184e+02 
2.773200e-01 3.592049e+02 
2.785400e-01 3.565197e+02 
2.797000e-01 3.539895e+02 
2.808900e-01 3.514219e+02 
2.821400e-01 3.487551e+02 
2.833900e-01 3.461182e+02 
2.845500e-01 3.436887e+02 
2.857800e-01 3.411405e+02 
2.870300e-01 3.385799e+02 
2.882100e-01 3.361891e+02 
2.893900e-01 3.338201e+02 
2.906300e-01 3.313557e+02 
2.918900e-01 3.288794e+02 
2.930500e-01 3.266241e+02 
2.942500e-01 3.243143e+02 
2.954200e-01 3.220826e+02 
2.966500e-01 3.197612e+02 
2.978900e-01 3.174461e+02 
2.990400e-01 3.153214e+02 
3.002700e-01 3.130721e+02 
3.015100e-01 3.108285e+02 
3.026800e-01 3.087335e+02 
3.038500e-01 3.066595e+02 
3.050300e-01 3.045887e+02 
3.062600e-01 3.024534e+02 
3.075000e-01 3.003233e+02 
3.087000e-01 2.982831e+02 
3.099100e-01 2.962467e+02 
3.111200e-01 2.942329e+02 
3.123100e-01 2.922755e+02 
3.135300e-01 2.902888e+02 
3.147300e-01 2.883542e+02 
3.159900e-01 2.863435e+02 
3.171800e-01 2.844679e+02 
3.183700e-01 2.826133e+02 
3.196300e-01 2.806693e+02 
3.208400e-01 2.788210e+02 
3.220300e-01 2.770210e+02 
3.232000e-01 2.752738e+02 
3.244300e-01 2.734569e+02 
3.256700e-01 2.716433e+02 
3.269200e-01 2.698332e+02 
3.280800e-01 2.681695e+02 
3.292500e-01 2.665142e+02 
3.304800e-01 2.647927e+02 
3.317100e-01 2.630878e+02 
3.328900e-01 2.614675e+02 
3.340700e-01 2.598622e+02 
3.353600e-01 2.581311e+02 
3.365300e-01 2.565787e+02 
3.377100e-01 2.550272e+02 
3.389200e-01 2.534507e+02 
3.401600e-01 2.518503e+02 
3.413700e-01 2.503094e+02 
3.425300e-01 2.488497e+02 
3.437700e-01 2.473035e+02 
3.449800e-01 2.458086e+02 
3.461800e-01 2.443394e+02 
3.473600e-01 2.429101e+02 
3.485800e-01 2.414519e+02 
3.498100e-01 2.399951e+02 
3.510200e-01 2.385749e+02 
3.522000e-01 2.372020e+02 
3.533900e-01 2.358295e+02 
3.546400e-01 2.344090e+02 
3.558400e-01 2.330579e+02 
3.570600e-01 2.316963e+02 
3.582700e-01 2.303577e+02 
3.595000e-01 2.290090e+02 
3.607100e-01 2.276980e+02 
3.618900e-01 2.264338e+02 
3.631200e-01 2.251273e+02 
3.643200e-01 2.238637e+02 
3.655500e-01 2.225796e+02 
3.667300e-01 2.213582e+02 
3.679500e-01 2.201134e+02 
3.691900e-01 2.188591e+02 
3.703600e-01 2.176855e+02 
3.715700e-01 2.164818e+02 
3.727700e-01 2.152980e+02 
3.739900e-01 2.141066e+02 
3.752000e-01 2.129384e+02 
3.763900e-01 2.117990e+02 
3.775800e-01 2.106688e+02 
3.788200e-01 2.095009e+02 
3.800300e-01 2.083708e+02 
3.812100e-01 2.072806e+02 
3.824200e-01 2.061739e+02 
3.836100e-01 2.050942e+02 
3.848600e-01 2.039694e+02 
3.860400e-01 2.029162e+02 
3.872400e-01 2.018535e+02 
3.884600e-01 2.007856e+02 
3.896500e-01 1.997535e+02 
3.908700e-01 1.987038e+02 
3.920600e-01 1.976881e+02 
3.933100e-01 1.966296e+02 
3.945300e-01 1.956049e+02 
3.957200e-01 1.946166e+02 
3.969300e-01 1.936205e+02 
3.981700e-01 1.926077e+02 
3.993500e-01 1.916515e+02 
4.094840e-01 1.837514e+02 
4.272360e-01 1.711618e+02 
4.454600e-01 1.596671e+02 
4.630560e-01 1.497506e+02 
4.804610e-01 1.409357e+02 
4.980690e-01 1.328957e+02 
5.159230e-01 1.255282e+02 
5.317440e-01 1.195788e+02 
5.489640e-01 1.136535e+02 
5.671990e-01 1.079330e+02 
5.838690e-01 1.031369e+02 
6.018840e-01 9.837162e+01 
6.202330e-01 9.391876e+01 
6.379250e-01 8.995465e+01 
6.545410e-01 8.650880e+01 
6.714560e-01 8.323866e+01 
6.892080e-01 8.004430e+01 
7.066010e-01 7.713064e+01 
7.240540e-01 7.439606e+01 
7.420450e-01 7.176435e+01 
7.593780e-01 6.939027e+01 
7.764720e-01 6.718825e+01 
7.942840e-01 6.503033e+01 
8.116170e-01 6.305475e+01 
8.288310e-01 6.120390e+01 
8.462240e-01 5.943630e+01 
8.631980e-01 5.780339e+01 
8.810700e-01 5.617467e+01 
8.989410e-01 5.463178e+01 
9.166330e-01 5.318290e+01 
9.345640e-01 5.178926e+01 
9.515980e-01 5.052886e+01 
9.688720e-01 4.930975e+01 
9.865640e-01 4.811985e+01 
1.031870e+00 4.530824e+01 
1.063490e+00 4.352693e+01 
1.097920e+00 4.173598e+01 
1.134370e+00 3.998589e+01 
1.167730e+00 3.850295e+01 
1.203830e+00 3.701148e+01 
1.240470e+00 3.560471e+01 
1.275790e+00 3.434062e+01 
1.309140e+00 3.322194e+01 
1.342970e+00 3.215290e+01 
1.378420e+00 3.109913e+01 
1.413200e+00 3.012531e+01 
1.448110e+00 2.920170e+01 
1.484090e+00 2.830171e+01 
1.518820e+00 2.747927e+01 
1.552880e+00 2.671309e+01 
1.588630e+00 2.594837e+01 
1.623230e+00 2.524431e+01 
1.657720e+00 2.457522e+01 
1.692450e+00 2.393234e+01 
1.726400e+00 2.333133e+01 
1.762200e+00 2.272461e+01 
1.797880e+00 2.214661e+01 
1.833270e+00 2.159786e+01 
1.869070e+00 2.106563e+01 
1.903200e+00 2.057855e+01 
1.937740e+00 2.010473e+01 
1.973190e+00 1.963696e+01 
2.007440e+00 1.920212e+01 
2.042160e+00 1.877723e+01 
2.077900e+00 1.835574e+01 
2.112390e+00 1.796387e+01 
2.146220e+00 1.759217e+01 
2.181600e+00 1.721688e+01 
2.216930e+00 1.685468e+01 
2.250760e+00 1.651932e+01 
2.286500e+00 1.617669e+01 
2.321770e+00 1.584964e+01 
2.355950e+00 1.554259e+01 
2.391280e+00 1.523467e+01 
2.426240e+00 1.493931e+01 
2.460670e+00 1.465733e+01 
2.495640e+00 1.437971e+01 
2.531080e+00 1.410620e+01 
2.566220e+00 1.384276e+01 
2.600830e+00 1.359082e+01 
2.635080e+00 1.334864e+01 
2.670340e+00 1.310576e+01 
2.705970e+00 1.286719e+01 
2.740040e+00 1.264536e+01 
2.774520e+00 1.242655e+01 
2.809730e+00 1.220877e+01 
2.844390e+00 1.200018e+01 
2.879960e+00 1.179165e+01 
2.914860e+00 1.159204e+01 
2.949410e+00 1.139955e+01 
2.984440e+00 1.120898e+01 
3.019760e+00 1.102159e+01 
3.054730e+00 1.084083e+01 
3.089030e+00 1.066722e+01 
3.124060e+00 1.049435e+01 
3.159560e+00 1.032334e+01 
3.194710e+00 1.015784e+01 
3.229010e+00 1.000031e+01 
3.263320e+00 9.845633e+00 
3.297930e+00 9.693355e+00 
3.332830e+00 9.543168e+00 
3.368040e+00 9.394987e+00 
3.403300e+00 9.249994e+00 
3.438450e+00 9.108393e+00 
3.473060e+00 8.972285e+00 
3.508440e+00 8.835574e+00 
3.543110e+00 8.704780e+00 
3.577470e+00 8.577572e+00 
3.613040e+00 8.448840e+00 
3.648120e+00 8.324296e+00 
3.682910e+00 8.203449e+00 
3.718050e+00 8.083747e+00 
3.753320e+00 7.966106e+00 
3.787980e+00 7.852702e+00 
3.822290e+00 7.742715e+00 
3.857020e+00 7.633466e+00 
3.891920e+00 7.525900e+00 
3.926650e+00 7.420782e+00 
3.961970e+00 7.316068e+00 
3.997360e+00 7.213009e+00 
4.031670e+00 7.115172e+00 
4.066330e+00 7.017988e+00 
4.101420e+00 6.921695e+00 
4.136200e+00 6.827630e+00 
4.170810e+00 6.736004e+00 
4.206250e+00 6.643730e+00 
4.241580e+00 6.553616e+00 
4.276300e+00 6.466562e+00 
4.310970e+00 6.381226e+00 
4.346120e+00 6.296294e+00 
4.380600e+00 6.214357e+00 
4.414730e+00 6.134852e+00 
4.450350e+00 6.053081e+00 
4.485320e+00 5.974422e+00 
4.519810e+00 5.898068e+00 
4.555430e+00 5.820633e+00 
4.590870e+00 5.744988e+00 
4.625480e+00 5.672278e+00 
4.659910e+00 5.601325e+00 
4.695230e+00 5.529623e+00 
4.729960e+00 5.460418e+00 
4.764450e+00 5.392853e+00 
4.799530e+00 5.325207e+00 
4.834910e+00 5.258268e+00 
4.869700e+00 5.193387e+00 
4.904370e+00 5.129869e+00 
4.939450e+00 5.066705e+00 
4.973940e+00 5.005544e+00 
5.008430e+00 4.945478e+00 
5.043810e+00 4.884795e+00 
5.078840e+00 4.825693e+00 
5.113500e+00 4.768254e+00 
5.148890e+00 4.710398e+00 
5.184210e+00 4.653675e+00 
5.219060e+00 4.598644e+00 
5.253660e+00 4.544820e+00 
5.288570e+00 4.491449e+00 
5.323420e+00 4.438982e+00 
5.358440e+00 4.387046e+00 
5.393590e+00 4.335809e+00 
5.428310e+00 4.285953e+00 
5.462800e+00 4.237199e+00 
5.497640e+00 4.188769e+00 
5.532670e+00 4.140775e+00 
5.567280e+00 4.094104e+00 
5.602000e+00 4.048049e+00 
5.637270e+00 4.001921e+00 
5.672410e+00 3.956691e+00 
5.707020e+00 3.912864e+00 
5.742040e+00 3.869152e+00 
5.777430e+00 3.825677e+00 
5.812210e+00 3.783634e+00 
5.846820e+00 3.742374e+00 
5.881610e+00 3.701528e+00 
5.916510e+00 3.661194e+00 
5.951600e+00 3.621219e+00 
5.986560e+00 3.581986e+00 
6.021830e+00 3.543020e+00 
6.056490e+00 3.505289e+00 
6.091160e+00 3.468097e+00 
6.125830e+00 3.431466e+00 
6.161090e+00 3.394760e+00 
6.195760e+00 3.359179e+00 
6.230420e+00 3.324136e+00 
6.265690e+00 3.289009e+00 
6.300950e+00 3.254394e+00 
6.335620e+00 3.220860e+00 
6.370880e+00 3.187258e+00 
6.405550e+00 3.154683e+00 
6.440220e+00 3.122571e+00 
6.475480e+00 3.090386e+00 
6.510150e+00 3.059194e+00 
6.544810e+00 3.028451e+00 
6.580080e+00 2.997614e+00 
6.614750e+00 2.967732e+00 
6.649410e+00 2.938274e+00 
6.684080e+00 2.909218e+00 
6.719340e+00 2.880082e+00 
6.754010e+00 2.851838e+00 
6.788680e+00 2.823995e+00 
6.823940e+00 2.796070e+00 
6.859800e+00 2.768066e+00 
6.894470e+00 2.741382e+00 
6.929140e+00 2.715065e+00 
6.963800e+00 2.689108e+00 
6.999070e+00 2.663053e+00 
7.033730e+00 2.637817e+00 
7.068400e+00 2.612909e+00 
7.103660e+00 2.587914e+00 
7.138330e+00 2.563670e+00 
7.173600e+00 2.539350e+00 
7.208260e+00 2.515763e+00 
7.243530e+00 2.492076e+00 
7.277600e+00 2.469510e+00 
7.312860e+00 2.446474e+00 
7.348120e+00 2.423737e+00 
7.382790e+00 2.401668e+00 
7.417460e+00 2.379908e+00 
7.452720e+00 2.358074e+00 
7.487390e+00 2.336877e+00 
7.522650e+00 2.315592e+00 
7.557320e+00 2.294963e+00 
7.591990e+00 2.274604e+00 
7.627250e+00 2.254156e+00 
7.662510e+00 2.233964e+00 
7.697180e+00 2.214395e+00 
7.731850e+00 2.195080e+00 
7.766510e+00 2.176005e+00 
7.801180e+00 2.157154e+00 
7.836440e+00 2.138245e+00 
7.871110e+00 2.119894e+00 
7.906380e+00 2.101450e+00 
7.941040e+00 2.083542e+00 
7.976310e+00 2.065561e+00 
8.011570e+00 2.047828e+00 
8.046240e+00 2.030597e+00 
8.080900e+00 2.013573e+00 
8.115570e+00 1.996756e+00 
8.150830e+00 1.979905e+00 
8.185500e+00 1.963529e+00 
8.220770e+00 1.947062e+00 
8.255430e+00 1.931066e+00 
8.290100e+00 1.915301e+00 
8.324770e+00 1.899722e+00 
8.359430e+00 1.884322e+00 
8.394700e+00 1.868829e+00 
8.429960e+00 1.853547e+00 
8.464630e+00 1.838720e+00 
8.499890e+00 1.823810e+00 
8.534560e+00 1.809312e+00 
8.569200e+00 1.794987e+00 
