# Parameters:
# omega_b = 0.023106, omega_m = 0.137087, n_s = 0.925591, h = 81.692913, w = -1.000000, sigma_8 = 0.849606
# z = 1.700000
#
# k[1/Mpc] # P(k):
8.694000e-04 4.680674e+03 
2.077466e-03 9.607721e+03 
3.285532e-03 1.330373e+04 
4.493598e-03 1.606544e+04 
5.701664e-03 1.804009e+04 
6.909730e-03 1.937880e+04 
8.117797e-03 2.023692e+04 
9.325863e-03 2.069246e+04 
1.053393e-02 2.081691e+04 
1.174199e-02 2.067252e+04 
1.295006e-02 2.030167e+04 
1.415813e-02 1.976054e+04 
1.536619e-02 1.909477e+04 
1.657426e-02 1.833612e+04 
1.778233e-02 1.751486e+04 
1.899039e-02 1.667388e+04 
2.019846e-02 1.583554e+04 
2.140652e-02 1.501889e+04 
2.261459e-02 1.423448e+04 
2.382266e-02 1.349461e+04 
2.503072e-02 1.280730e+04 
2.623879e-02 1.217482e+04 
2.744685e-02 1.159744e+04 
2.865492e-02 1.107580e+04 
2.986299e-02 1.060666e+04 
3.100100e-02 1.021138e+04 
3.220400e-02 9.838589e+03 
3.288100e-02 9.648816e+03 
3.424300e-02 9.304469e+03 
3.555100e-02 9.014597e+03 
3.686000e-02 8.759101e+03 
3.795000e-02 8.567633e+03 
3.929100e-02 8.354580e+03 
4.039800e-02 8.191357e+03 
4.164000e-02 8.017521e+03 
4.294400e-02 7.838582e+03 
4.415000e-02 7.674973e+03 
4.542900e-02 7.495506e+03 
4.660900e-02 7.326941e+03 
4.782300e-02 7.141451e+03 
4.892900e-02 6.967283e+03 
5.031200e-02 6.739564e+03 
5.155900e-02 6.524650e+03 
5.238100e-02 6.379468e+03 
5.378200e-02 6.127475e+03 
5.513400e-02 5.878919e+03 
5.627600e-02 5.666337e+03 
5.735300e-02 5.465040e+03 
5.870100e-02 5.213191e+03 
5.988700e-02 4.994498e+03 
6.113500e-02 4.770042e+03 
6.225900e-02 4.576553e+03 
6.340100e-02 4.392185e+03 
6.480200e-02 4.185487e+03 
6.601100e-02 4.028402e+03 
6.725500e-02 3.887042e+03 
6.829100e-02 3.785720e+03 
6.958600e-02 3.674719e+03 
7.071100e-02 3.592560e+03 
7.192300e-02 3.515788e+03 
7.307400e-02 3.452424e+03 
7.412300e-02 3.401337e+03 
7.550400e-02 3.342622e+03 
7.663100e-02 3.299470e+03 
7.791200e-02 3.255026e+03 
7.912700e-02 3.215090e+03 
8.027600e-02 3.178007e+03 
8.138400e-02 3.142147e+03 
8.272200e-02 3.097631e+03 
8.406100e-02 3.050801e+03 
8.534100e-02 3.002058e+03 
8.653800e-02 2.952603e+03 
8.759800e-02 2.906529e+03 
8.900300e-02 2.841656e+03 
9.009000e-02 2.788217e+03 
9.113300e-02 2.734140e+03 
9.239600e-02 2.667158e+03 
9.358000e-02 2.602364e+03 
9.496100e-02 2.524583e+03 
9.608400e-02 2.461393e+03 
9.727500e-02 2.395019e+03 
9.852600e-02 2.325430e+03 
9.973800e-02 2.260218e+03 
1.009000e-01 2.199697e+03 
1.020900e-01 2.140959e+03 
1.034000e-01 2.079756e+03 
1.046000e-01 2.026936e+03 
1.057200e-01 1.982333e+03 
1.069100e-01 1.937656e+03 
1.082500e-01 1.892928e+03 
1.093900e-01 1.858790e+03 
1.105400e-01 1.826876e+03 
1.116900e-01 1.799621e+03 
1.129600e-01 1.771592e+03 
1.142000e-01 1.748118e+03 
1.153300e-01 1.728263e+03 
1.166400e-01 1.707382e+03 
1.177800e-01 1.690474e+03 
1.190000e-01 1.673201e+03 
1.201200e-01 1.657490e+03 
1.213400e-01 1.640745e+03 
1.227100e-01 1.620740e+03 
1.238900e-01 1.603406e+03 
1.250700e-01 1.584653e+03 
1.263200e-01 1.564383e+03 
1.275500e-01 1.542978e+03 
1.287500e-01 1.521516e+03 
1.299900e-01 1.498174e+03 
1.311300e-01 1.476279e+03 
1.323500e-01 1.451990e+03 
1.335900e-01 1.427165e+03 
1.347100e-01 1.404299e+03 
1.359800e-01 1.378597e+03 
1.372100e-01 1.353548e+03 
1.384300e-01 1.329179e+03 
1.395700e-01 1.306631e+03 
1.407700e-01 1.283460e+03 
1.420300e-01 1.259840e+03 
1.432800e-01 1.236982e+03 
1.444500e-01 1.216700e+03 
1.456300e-01 1.196700e+03 
1.468900e-01 1.176621e+03 
1.480500e-01 1.158779e+03 
1.491700e-01 1.142411e+03 
1.503800e-01 1.125734e+03 
1.516400e-01 1.108975e+03 
1.528200e-01 1.094630e+03 
1.540200e-01 1.080331e+03 
1.551900e-01 1.067538e+03 
1.564300e-01 1.054455e+03 
1.576600e-01 1.042101e+03 
1.588700e-01 1.030625e+03 
1.600900e-01 1.019294e+03 
1.612700e-01 1.008936e+03 
1.625400e-01 9.979958e+02 
1.637600e-01 9.876678e+02 
1.649500e-01 9.777665e+02 
1.662200e-01 9.673319e+02 
1.674000e-01 9.574759e+02 
1.685000e-01 9.484423e+02 
1.697500e-01 9.380185e+02 
1.710300e-01 9.272081e+02 
1.722200e-01 9.173388e+02 
1.734400e-01 9.066677e+02 
1.746400e-01 8.963273e+02 
1.758700e-01 8.857031e+02 
1.770900e-01 8.749205e+02 
1.782700e-01 8.646749e+02 
1.794600e-01 8.542531e+02 
1.807000e-01 8.434064e+02 
1.819100e-01 8.330117e+02 
1.830100e-01 8.235783e+02 
1.842200e-01 8.133514e+02 
1.855000e-01 8.027307e+02 
1.867000e-01 7.930200e+02 
1.879200e-01 7.833176e+02 
1.890900e-01 7.742090e+02 
1.902800e-01 7.652982e+02 
1.915200e-01 7.561693e+02 
1.926900e-01 7.477780e+02 
1.939000e-01 7.394979e+02 
1.951700e-01 7.309519e+02 
1.963100e-01 7.234921e+02 
1.975100e-01 7.159964e+02 
1.987800e-01 7.081907e+02 
2.000100e-01 7.008324e+02 
2.012500e-01 6.937158e+02 
2.023400e-01 6.875522e+02 
2.036100e-01 6.805095e+02 
2.048900e-01 6.736495e+02 
2.060400e-01 6.675785e+02 
2.072200e-01 6.614419e+02 
2.084200e-01 6.553371e+02 
2.096900e-01 6.489727e+02 
2.109200e-01 6.429013e+02 
2.121100e-01 6.370761e+02 
2.132700e-01 6.314754e+02 
2.145200e-01 6.255263e+02 
2.157200e-01 6.198433e+02 
2.168800e-01 6.144009e+02 
2.180700e-01 6.088945e+02 
2.193400e-01 6.030693e+02 
2.206000e-01 5.973139e+02 
2.217500e-01 5.921341e+02 
2.229500e-01 5.868023e+02 
2.241400e-01 5.815148e+02 
2.253500e-01 5.762103e+02 
2.264900e-01 5.712795e+02 
2.277100e-01 5.660562e+02 
2.289900e-01 5.606342e+02 
2.301500e-01 5.557878e+02 
2.313600e-01 5.507996e+02 
2.325600e-01 5.459196e+02 
2.337700e-01 5.410646e+02 
2.350000e-01 5.361957e+02 
2.362000e-01 5.315230e+02 
2.374100e-01 5.268899e+02 
2.386500e-01 5.222050e+02 
2.399100e-01 5.175087e+02 
2.410400e-01 5.133964e+02 
2.422500e-01 5.090535e+02 
2.435000e-01 5.046255e+02 
2.447300e-01 5.003361e+02 
2.458700e-01 4.964536e+02 
2.470600e-01 4.924498e+02 
2.483300e-01 4.882313e+02 
2.495600e-01 4.842196e+02 
2.507600e-01 4.803837e+02 
2.519600e-01 4.765946e+02 
2.532200e-01 4.726655e+02 
2.543700e-01 4.691447e+02 
2.555500e-01 4.655888e+02 
2.568000e-01 4.618675e+02 
2.580100e-01 4.583091e+02 
2.592400e-01 4.547494e+02 
2.604100e-01 4.514092e+02 
2.616100e-01 4.480230e+02 
2.628400e-01 4.445930e+02 
2.640600e-01 4.412381e+02 
2.652200e-01 4.380875e+02 
2.664300e-01 4.348383e+02 
2.676500e-01 4.316002e+02 
2.688400e-01 4.284756e+02 
2.700700e-01 4.252815e+02 
2.712400e-01 4.222775e+02 
2.724800e-01 4.191297e+02 
2.736700e-01 4.161402e+02 
2.748800e-01 4.131314e+02 
2.761000e-01 4.101319e+02 
2.773200e-01 4.071661e+02 
2.785400e-01 4.042305e+02 
2.797000e-01 4.014635e+02 
2.808900e-01 3.986553e+02 
2.821400e-01 3.957382e+02 
2.833900e-01 3.928535e+02 
2.845500e-01 3.901960e+02 
2.857800e-01 3.874082e+02 
2.870300e-01 3.846066e+02 
2.882100e-01 3.819903e+02 
2.893900e-01 3.793982e+02 
2.906300e-01 3.767015e+02 
2.918900e-01 3.739915e+02 
2.930500e-01 3.715230e+02 
2.942500e-01 3.689946e+02 
2.954200e-01 3.665517e+02 
2.966500e-01 3.640102e+02 
2.978900e-01 3.614754e+02 
2.990400e-01 3.591486e+02 
3.002700e-01 3.566850e+02 
3.015100e-01 3.542273e+02 
3.026800e-01 3.519321e+02 
3.038500e-01 3.496595e+02 
3.050300e-01 3.473903e+02 
3.062600e-01 3.450498e+02 
3.075000e-01 3.427146e+02 
3.087000e-01 3.404777e+02 
3.099100e-01 3.382447e+02 
3.111200e-01 3.360358e+02 
3.123100e-01 3.338880e+02 
3.135300e-01 3.317078e+02 
3.147300e-01 3.295845e+02 
3.159900e-01 3.273774e+02 
3.171800e-01 3.253175e+02 
3.183700e-01 3.232800e+02 
3.196300e-01 3.211439e+02 
3.208400e-01 3.191129e+02 
3.220300e-01 3.171345e+02 
3.232000e-01 3.152132e+02 
3.244300e-01 3.132147e+02 
3.256700e-01 3.112196e+02 
3.269200e-01 3.092281e+02 
3.280800e-01 3.073974e+02 
3.292500e-01 3.055748e+02 
3.304800e-01 3.036789e+02 
3.317100e-01 3.018009e+02 
3.328900e-01 3.000160e+02 
3.340700e-01 2.982474e+02 
3.353600e-01 2.963390e+02 
3.365300e-01 2.946270e+02 
3.377100e-01 2.929158e+02 
3.389200e-01 2.911769e+02 
3.401600e-01 2.894113e+02 
3.413700e-01 2.877106e+02 
3.425300e-01 2.860989e+02 
3.437700e-01 2.843914e+02 
3.449800e-01 2.827404e+02 
3.461800e-01 2.811177e+02 
3.473600e-01 2.795386e+02 
3.485800e-01 2.779268e+02 
3.498100e-01 2.763163e+02 
3.510200e-01 2.747460e+02 
3.522000e-01 2.732280e+02 
3.533900e-01 2.717102e+02 
3.546400e-01 2.701384e+02 
3.558400e-01 2.686432e+02 
3.570600e-01 2.671363e+02 
3.582700e-01 2.656546e+02 
3.595000e-01 2.641615e+02 
3.607100e-01 2.627099e+02 
3.618900e-01 2.613097e+02 
3.631200e-01 2.598626e+02 
3.643200e-01 2.584627e+02 
3.655500e-01 2.570400e+02 
3.667300e-01 2.556867e+02 
3.679500e-01 2.543067e+02 
3.691900e-01 2.529160e+02 
3.703600e-01 2.516147e+02 
3.715700e-01 2.502799e+02 
3.727700e-01 2.489671e+02 
3.739900e-01 2.476456e+02 
3.752000e-01 2.463497e+02 
3.763900e-01 2.450856e+02 
3.775800e-01 2.438316e+02 
3.788200e-01 2.425356e+02 
3.800300e-01 2.412814e+02 
3.812100e-01 2.400713e+02 
3.824200e-01 2.388426e+02 
3.836100e-01 2.376438e+02 
3.848600e-01 2.363948e+02 
3.860400e-01 2.352251e+02 
3.872400e-01 2.340449e+02 
3.884600e-01 2.328585e+02 
3.896500e-01 2.317119e+02 
3.908700e-01 2.305457e+02 
3.920600e-01 2.294170e+02 
3.933100e-01 2.282407e+02 
3.945300e-01 2.271018e+02 
3.957200e-01 2.260033e+02 
3.969300e-01 2.248960e+02 
3.981700e-01 2.237701e+02 
3.993500e-01 2.227069e+02 
4.094840e-01 2.139180e+02 
4.272360e-01 1.998946e+02 
4.454600e-01 1.870646e+02 
4.630560e-01 1.759714e+02 
4.804610e-01 1.660855e+02 
4.980690e-01 1.570450e+02 
5.159230e-01 1.487369e+02 
5.317440e-01 1.420107e+02 
5.489640e-01 1.352932e+02 
5.671990e-01 1.287905e+02 
5.838690e-01 1.233259e+02 
6.018840e-01 1.178850e+02 
6.202330e-01 1.127899e+02 
6.379250e-01 1.082460e+02 
6.545410e-01 1.042897e+02 
6.714560e-01 1.005308e+02 
6.892080e-01 9.685385e+01 
7.066010e-01 9.349686e+01 
7.240540e-01 9.034217e+01 
7.420450e-01 8.730387e+01 
7.593780e-01 8.456050e+01 
7.764720e-01 8.201377e+01 
7.942840e-01 7.951600e+01 
8.116170e-01 7.722760e+01 
8.288310e-01 7.508165e+01 
8.462240e-01 7.303083e+01 
8.631980e-01 7.113440e+01 
8.810700e-01 6.924109e+01 
8.989410e-01 6.744571e+01 
9.166330e-01 6.575797e+01 
9.345640e-01 6.413317e+01 
9.515980e-01 6.266205e+01 
9.688720e-01 6.123721e+01 
9.865640e-01 5.984504e+01 
1.031870e+00 5.654759e+01 
1.063490e+00 5.445208e+01 
1.097920e+00 5.234019e+01 
1.134370e+00 5.026990e+01 
1.167730e+00 4.851071e+01 
1.203830e+00 4.673514e+01 
1.240470e+00 4.505542e+01 
1.275790e+00 4.354095e+01 
1.309140e+00 4.219716e+01 
1.342970e+00 4.090776e+01 
1.378420e+00 3.963367e+01 
1.413200e+00 3.845242e+01 
1.448110e+00 3.732868e+01 
1.484090e+00 3.623052e+01 
1.518820e+00 3.522395e+01 
1.552880e+00 3.428340e+01 
1.588630e+00 3.334213e+01 
1.623230e+00 3.247318e+01 
1.657720e+00 3.164534e+01 
1.692450e+00 3.084792e+01 
1.726400e+00 3.010051e+01 
1.762200e+00 2.934408e+01 
1.797880e+00 2.862173e+01 
1.833270e+00 2.793450e+01 
1.869070e+00 2.726639e+01 
1.903200e+00 2.665355e+01 
1.937740e+00 2.605632e+01 
1.973190e+00 2.546563e+01 
2.007440e+00 2.491549e+01 
2.042160e+00 2.437681e+01 
2.077900e+00 2.384147e+01 
2.112390e+00 2.334308e+01 
2.146220e+00 2.286934e+01 
2.181600e+00 2.239033e+01 
2.216930e+00 2.192721e+01 
2.250760e+00 2.149785e+01 
2.286500e+00 2.105863e+01 
2.321770e+00 2.063878e+01 
2.355950e+00 2.024407e+01 
2.391280e+00 1.984754e+01 
2.426240e+00 1.946673e+01 
2.460670e+00 1.910285e+01 
2.495640e+00 1.874429e+01 
2.531080e+00 1.839046e+01 
2.566220e+00 1.804926e+01 
2.600830e+00 1.772264e+01 
2.635080e+00 1.740843e+01 
2.670340e+00 1.709297e+01 
2.705970e+00 1.678283e+01 
2.740040e+00 1.649423e+01 
2.774520e+00 1.620926e+01 
2.809730e+00 1.592539e+01 
2.844390e+00 1.565333e+01 
2.879960e+00 1.538119e+01 
2.914860e+00 1.512044e+01 
2.949410e+00 1.486887e+01 
2.984440e+00 1.461958e+01 
3.019760e+00 1.437429e+01 
3.054730e+00 1.413759e+01 
3.089030e+00 1.391009e+01 
3.124060e+00 1.368349e+01 
3.159560e+00 1.345926e+01 
3.194710e+00 1.324208e+01 
3.229010e+00 1.303532e+01 
3.263320e+00 1.283216e+01 
3.297930e+00 1.263211e+01 
3.332830e+00 1.243471e+01 
3.368040e+00 1.223991e+01 
3.403300e+00 1.204927e+01 
3.438450e+00 1.186300e+01 
3.473060e+00 1.168393e+01 
3.508440e+00 1.150397e+01 
3.543110e+00 1.133181e+01 
3.577470e+00 1.116436e+01 
3.613040e+00 1.099487e+01 
3.648120e+00 1.083081e+01 
3.682910e+00 1.067164e+01 
3.718050e+00 1.051399e+01 
3.753320e+00 1.035903e+01 
3.787980e+00 1.020959e+01 
3.822290e+00 1.006467e+01 
3.857020e+00 9.920728e+00 
3.891920e+00 9.778998e+00 
3.926650e+00 9.640478e+00 
3.961970e+00 9.502502e+00 
3.997360e+00 9.366723e+00 
4.031670e+00 9.237829e+00 
4.066330e+00 9.109778e+00 
4.101420e+00 8.982912e+00 
4.136200e+00 8.859005e+00 
4.170810e+00 8.738321e+00 
4.206250e+00 8.616795e+00 
4.241580e+00 8.498123e+00 
4.276300e+00 8.383501e+00 
4.310970e+00 8.271157e+00 
4.346120e+00 8.159354e+00 
4.380600e+00 8.051505e+00 
4.414730e+00 7.946866e+00 
4.450350e+00 7.839279e+00 
4.485320e+00 7.735796e+00 
4.519810e+00 7.635384e+00 
4.555430e+00 7.533574e+00 
4.590870e+00 7.434123e+00 
4.625480e+00 7.338532e+00 
4.659910e+00 7.245262e+00 
4.695230e+00 7.151064e+00 
4.729960e+00 7.060164e+00 
4.764450e+00 6.971439e+00 
4.799530e+00 6.882636e+00 
4.834910e+00 6.794772e+00 
4.869700e+00 6.709633e+00 
4.904370e+00 6.626295e+00 
4.939450e+00 6.543440e+00 
4.973940e+00 6.463245e+00 
5.008430e+00 6.384494e+00 
5.043810e+00 6.304956e+00 
5.078840e+00 6.227508e+00 
5.113500e+00 6.152247e+00 
5.148890e+00 6.076494e+00 
5.184210e+00 6.002232e+00 
5.219060e+00 5.930199e+00 
5.253660e+00 5.859771e+00 
5.288570e+00 5.789942e+00 
5.323420e+00 5.721312e+00 
5.358440e+00 5.653396e+00 
5.393590e+00 5.586398e+00 
5.428310e+00 5.521246e+00 
5.462800e+00 5.457559e+00 
5.497640e+00 5.394299e+00 
5.532670e+00 5.331639e+00 
5.567280e+00 5.270718e+00 
5.602000e+00 5.210607e+00 
5.637270e+00 5.150424e+00 
5.672410e+00 5.091424e+00 
5.707020e+00 5.034257e+00 
5.742040e+00 4.977277e+00 
5.777430e+00 4.920615e+00 
5.812210e+00 4.865824e+00 
5.846820e+00 4.812076e+00 
5.881610e+00 4.758875e+00 
5.916510e+00 4.706346e+00 
5.951600e+00 4.654309e+00 
5.986560e+00 4.603254e+00 
6.021830e+00 4.552549e+00 
6.056490e+00 4.503468e+00 
6.091160e+00 4.455103e+00 
6.125830e+00 4.407471e+00 
6.161090e+00 4.359752e+00 
6.195760e+00 4.313512e+00 
6.230420e+00 4.267975e+00 
6.265690e+00 4.222332e+00 
6.300950e+00 4.177383e+00 
6.335620e+00 4.133842e+00 
6.370880e+00 4.090214e+00 
6.405550e+00 4.047933e+00 
6.440220e+00 4.006260e+00 
6.475480e+00 3.964495e+00 
6.510150e+00 3.924027e+00 
6.544810e+00 3.884159e+00 
6.580080e+00 3.844171e+00 
6.614750e+00 3.805424e+00 
6.649410e+00 3.767239e+00 
6.684080e+00 3.729578e+00 
6.719340e+00 3.691816e+00 
6.754010e+00 3.655219e+00 
6.788680e+00 3.619160e+00 
6.823940e+00 3.582995e+00 
6.859800e+00 3.546731e+00 
6.894470e+00 3.512185e+00 
6.929140e+00 3.478117e+00 
6.963800e+00 3.444519e+00 
6.999070e+00 3.410796e+00 
7.033730e+00 3.378142e+00 
7.068400e+00 3.345914e+00 
7.103660e+00 3.313575e+00 
7.138330e+00 3.282214e+00 
7.173600e+00 3.250759e+00 
7.208260e+00 3.220257e+00 
7.243530e+00 3.189624e+00 
7.277600e+00 3.160447e+00 
7.312860e+00 3.130666e+00 
7.348120e+00 3.101274e+00 
7.382790e+00 3.072747e+00 
7.417460e+00 3.044626e+00 
7.452720e+00 3.016415e+00 
7.487390e+00 2.989029e+00 
7.522650e+00 2.961529e+00 
7.557320e+00 2.934879e+00 
7.591990e+00 2.908577e+00 
7.627250e+00 2.882162e+00 
7.662510e+00 2.856079e+00 
7.697180e+00 2.830806e+00 
7.731850e+00 2.805863e+00 
7.766510e+00 2.781232e+00 
7.801180e+00 2.756892e+00 
7.836440e+00 2.732476e+00 
7.871110e+00 2.708784e+00 
7.906380e+00 2.684972e+00 
7.941040e+00 2.661854e+00 
7.976310e+00 2.638641e+00 
8.011570e+00 2.615752e+00 
8.046240e+00 2.593513e+00 
8.080900e+00 2.571541e+00 
8.115570e+00 2.549836e+00 
8.150830e+00 2.528087e+00 
8.185500e+00 2.506951e+00 
8.220770e+00 2.485699e+00 
8.255430e+00 2.465056e+00 
8.290100e+00 2.444715e+00 
8.324770e+00 2.424612e+00 
8.359430e+00 2.404744e+00 
8.394700e+00 2.384756e+00 
8.429960e+00 2.365039e+00 
8.464630e+00 2.345908e+00 
8.499890e+00 2.326670e+00 
8.534560e+00 2.307966e+00 
8.569200e+00 2.289485e+00 
