# Parameters:
# omega_b = 0.021657, omega_m = 0.125787, n_s = 1.027953, h = 63.031496, w = -1.000000, sigma_8 = 0.837008
# z = 1.700000
#
# k[1/Mpc] # P(k):
8.694000e-04 4.065999e+03 
2.077466e-03 9.067135e+03 
3.285532e-03 1.305662e+04 
4.493598e-03 1.613771e+04 
5.701664e-03 1.842541e+04 
6.909730e-03 2.003659e+04 
8.117797e-03 2.111177e+04 
9.325863e-03 2.172512e+04 
1.053393e-02 2.195419e+04 
1.174199e-02 2.187278e+04 
1.295006e-02 2.152721e+04 
1.415813e-02 2.098038e+04 
1.536619e-02 2.028800e+04 
1.657426e-02 1.948826e+04 
1.778233e-02 1.861465e+04 
1.899039e-02 1.771582e+04 
2.019846e-02 1.681886e+04 
2.140652e-02 1.594677e+04 
2.261459e-02 1.511259e+04 
2.382266e-02 1.433092e+04 
2.503072e-02 1.361134e+04 
2.623879e-02 1.295673e+04 
2.744685e-02 1.236873e+04 
2.865492e-02 1.184571e+04 
2.986299e-02 1.138329e+04 
3.100100e-02 1.100161e+04 
3.220400e-02 1.064853e+04 
3.288100e-02 1.047190e+04 
3.424300e-02 1.015564e+04 
3.555100e-02 9.892551e+03 
3.686000e-02 9.661681e+03 
3.795000e-02 9.487706e+03 
3.929100e-02 9.290082e+03 
4.039800e-02 9.133914e+03 
4.164000e-02 8.961933e+03 
4.294400e-02 8.775034e+03 
4.415000e-02 8.598186e+03 
4.542900e-02 8.396098e+03 
4.660900e-02 8.202096e+03 
4.782300e-02 7.983645e+03 
4.892900e-02 7.776923e+03 
5.031200e-02 7.505620e+03 
5.155900e-02 7.249789e+03 
5.238100e-02 7.077970e+03 
5.378200e-02 6.782859e+03 
5.513400e-02 6.498972e+03 
5.627600e-02 6.264664e+03 
5.735300e-02 6.052177e+03 
5.870100e-02 5.801736e+03 
5.988700e-02 5.598374e+03 
6.113500e-02 5.401813e+03 
6.225900e-02 5.240031e+03 
6.340100e-02 5.088687e+03 
6.480200e-02 4.917270e+03 
6.601100e-02 4.781534e+03 
6.725500e-02 4.651854e+03 
6.829100e-02 4.552131e+03 
6.958600e-02 4.436290e+03 
7.071100e-02 4.344753e+03 
7.192300e-02 4.254825e+03 
7.307400e-02 4.177312e+03 
7.412300e-02 4.112759e+03 
7.550400e-02 4.036193e+03 
7.663100e-02 3.978851e+03 
7.791200e-02 3.919007e+03 
7.912700e-02 3.865384e+03 
8.027600e-02 3.816182e+03 
8.138400e-02 3.769372e+03 
8.272200e-02 3.712609e+03 
8.406100e-02 3.654504e+03 
8.534100e-02 3.595891e+03 
8.653800e-02 3.537830e+03 
8.759800e-02 3.484493e+03 
8.900300e-02 3.410428e+03 
9.009000e-02 3.350122e+03 
9.113300e-02 3.289563e+03 
9.239600e-02 3.214850e+03 
9.358000e-02 3.142851e+03 
9.496100e-02 3.056645e+03 
9.608400e-02 2.986634e+03 
9.727500e-02 2.913069e+03 
9.852600e-02 2.835879e+03 
9.973800e-02 2.763370e+03 
1.009000e-01 2.695924e+03 
1.020900e-01 2.630111e+03 
1.034000e-01 2.561229e+03 
1.046000e-01 2.501477e+03 
1.057200e-01 2.450435e+03 
1.069100e-01 2.399023e+03 
1.082500e-01 2.346756e+03 
1.093900e-01 2.306253e+03 
1.105400e-01 2.268010e+03 
1.116900e-01 2.234379e+03 
1.129600e-01 2.199416e+03 
1.142000e-01 2.169130e+03 
1.153300e-01 2.143125e+03 
1.166400e-01 2.115142e+03 
1.177800e-01 2.092071e+03 
1.190000e-01 2.068293e+03 
1.201200e-01 2.046631e+03 
1.213400e-01 2.023529e+03 
1.227100e-01 1.996517e+03 
1.238900e-01 1.973312e+03 
1.250700e-01 1.948878e+03 
1.263200e-01 1.922795e+03 
1.275500e-01 1.895943e+03 
1.287500e-01 1.869416e+03 
1.299900e-01 1.841153e+03 
1.311300e-01 1.814991e+03 
1.323500e-01 1.786466e+03 
1.335900e-01 1.757607e+03 
1.347100e-01 1.731404e+03 
1.359800e-01 1.702130e+03 
1.372100e-01 1.673965e+03 
1.384300e-01 1.646648e+03 
1.395700e-01 1.621607e+03 
1.407700e-01 1.595863e+03 
1.420300e-01 1.569763e+03 
1.432800e-01 1.544471e+03 
1.444500e-01 1.521967e+03 
1.456300e-01 1.499752e+03 
1.468900e-01 1.477205e+03 
1.480500e-01 1.457084e+03 
1.491700e-01 1.438413e+03 
1.503800e-01 1.419119e+03 
1.516400e-01 1.399603e+03 
1.528200e-01 1.382387e+03 
1.540200e-01 1.365221e+03 
1.551900e-01 1.349334e+03 
1.564300e-01 1.332950e+03 
1.576600e-01 1.317218e+03 
1.588700e-01 1.302282e+03 
1.600900e-01 1.287515e+03 
1.612700e-01 1.273656e+03 
1.625400e-01 1.259020e+03 
1.637600e-01 1.245160e+03 
1.649500e-01 1.231849e+03 
1.662200e-01 1.217855e+03 
1.674000e-01 1.204817e+03 
1.685000e-01 1.192869e+03 
1.697500e-01 1.179293e+03 
1.710300e-01 1.165419e+03 
1.722200e-01 1.152754e+03 
1.734400e-01 1.139529e+03 
1.746400e-01 1.126730e+03 
1.758700e-01 1.113715e+03 
1.770900e-01 1.100773e+03 
1.782700e-01 1.088472e+03 
1.794600e-01 1.076129e+03 
1.807000e-01 1.063393e+03 
1.819100e-01 1.051181e+03 
1.830100e-01 1.040212e+03 
1.842200e-01 1.028335e+03 
1.855000e-01 1.015995e+03 
1.867000e-01 1.004729e+03 
1.879200e-01 9.934660e+02 
1.890900e-01 9.828756e+02 
1.902800e-01 9.724516e+02 
1.915200e-01 9.617672e+02 
1.926900e-01 9.519127e+02 
1.939000e-01 9.420910e+02 
1.951700e-01 9.319498e+02 
1.963100e-01 9.230587e+02 
1.975100e-01 9.140258e+02 
1.987800e-01 9.046166e+02 
2.000100e-01 8.957105e+02 
2.012500e-01 8.870156e+02 
2.023400e-01 8.794836e+02 
2.036100e-01 8.708603e+02 
2.048900e-01 8.623992e+02 
2.060400e-01 8.549102e+02 
2.072200e-01 8.473371e+02 
2.084200e-01 8.397757e+02 
2.096900e-01 8.318918e+02 
2.109200e-01 8.243700e+02 
2.121100e-01 8.171507e+02 
2.132700e-01 8.102087e+02 
2.145200e-01 8.028339e+02 
2.157200e-01 7.957909e+02 
2.168800e-01 7.890464e+02 
2.180700e-01 7.822217e+02 
2.193400e-01 7.749955e+02 
2.206000e-01 7.678450e+02 
2.217500e-01 7.614089e+02 
2.229500e-01 7.547829e+02 
2.241400e-01 7.481704e+02 
2.253500e-01 7.415349e+02 
2.264900e-01 7.353662e+02 
2.277100e-01 7.287930e+02 
2.289900e-01 7.219274e+02 
2.301500e-01 7.157903e+02 
2.313600e-01 7.094722e+02 
2.325600e-01 7.031905e+02 
2.337700e-01 6.969409e+02 
2.350000e-01 6.906733e+02 
2.362000e-01 6.846079e+02 
2.374100e-01 6.785343e+02 
2.386500e-01 6.723932e+02 
2.399100e-01 6.662376e+02 
2.410400e-01 6.607645e+02 
2.422500e-01 6.549746e+02 
2.435000e-01 6.490720e+02 
2.447300e-01 6.433421e+02 
2.458700e-01 6.381035e+02 
2.470600e-01 6.327025e+02 
2.483300e-01 6.270129e+02 
2.495600e-01 6.215922e+02 
2.507600e-01 6.163946e+02 
2.519600e-01 6.112615e+02 
2.532200e-01 6.059399e+02 
2.543700e-01 6.011823e+02 
2.555500e-01 5.963852e+02 
2.568000e-01 5.913659e+02 
2.580100e-01 5.865674e+02 
2.592400e-01 5.818041e+02 
2.604100e-01 5.773513e+02 
2.616100e-01 5.728378e+02 
2.628400e-01 5.682666e+02 
2.640600e-01 5.638476e+02 
2.652200e-01 5.597183e+02 
2.664300e-01 5.554602e+02 
2.676500e-01 5.512170e+02 
2.688400e-01 5.471687e+02 
2.700700e-01 5.430590e+02 
2.712400e-01 5.391941e+02 
2.724800e-01 5.351442e+02 
2.736700e-01 5.313306e+02 
2.748800e-01 5.275257e+02 
2.761000e-01 5.237324e+02 
2.773200e-01 5.199816e+02 
2.785400e-01 5.162851e+02 
2.797000e-01 5.128343e+02 
2.808900e-01 5.093319e+02 
2.821400e-01 5.056934e+02 
2.833900e-01 5.020966e+02 
2.845500e-01 4.988159e+02 
2.857800e-01 4.953741e+02 
2.870300e-01 4.919147e+02 
2.882100e-01 4.886840e+02 
2.893900e-01 4.854969e+02 
2.906300e-01 4.821886e+02 
2.918900e-01 4.788633e+02 
2.930500e-01 4.758341e+02 
2.942500e-01 4.727336e+02 
2.954200e-01 4.697459e+02 
2.966500e-01 4.666373e+02 
2.978900e-01 4.635362e+02 
2.990400e-01 4.606894e+02 
3.002700e-01 4.576773e+02 
3.015100e-01 4.546733e+02 
3.026800e-01 4.518675e+02 
3.038500e-01 4.490890e+02 
3.050300e-01 4.463142e+02 
3.062600e-01 4.434514e+02 
3.075000e-01 4.405947e+02 
3.087000e-01 4.378579e+02 
3.099100e-01 4.351255e+02 
3.111200e-01 4.324209e+02 
3.123100e-01 4.297885e+02 
3.135300e-01 4.271160e+02 
3.147300e-01 4.245129e+02 
3.159900e-01 4.218067e+02 
3.171800e-01 4.192778e+02 
3.183700e-01 4.167741e+02 
3.196300e-01 4.141489e+02 
3.208400e-01 4.116524e+02 
3.220300e-01 4.092205e+02 
3.232000e-01 4.068549e+02 
3.244300e-01 4.043927e+02 
3.256700e-01 4.019344e+02 
3.269200e-01 3.994801e+02 
3.280800e-01 3.972238e+02 
3.292500e-01 3.949738e+02 
3.304800e-01 3.926320e+02 
3.317100e-01 3.903121e+02 
3.328900e-01 3.881070e+02 
3.340700e-01 3.859215e+02 
3.353600e-01 3.835605e+02 
3.365300e-01 3.814412e+02 
3.377100e-01 3.793225e+02 
3.389200e-01 3.771694e+02 
3.401600e-01 3.749830e+02 
3.413700e-01 3.728751e+02 
3.425300e-01 3.708763e+02 
3.437700e-01 3.687585e+02 
3.449800e-01 3.667106e+02 
3.461800e-01 3.646974e+02 
3.473600e-01 3.627379e+02 
3.485800e-01 3.607367e+02 
3.498100e-01 3.587369e+02 
3.510200e-01 3.567870e+02 
3.522000e-01 3.549017e+02 
3.533900e-01 3.530165e+02 
3.546400e-01 3.510638e+02 
3.558400e-01 3.492061e+02 
3.570600e-01 3.473336e+02 
3.582700e-01 3.454923e+02 
3.595000e-01 3.436366e+02 
3.607100e-01 3.418330e+02 
3.618900e-01 3.400937e+02 
3.631200e-01 3.382958e+02 
3.643200e-01 3.365565e+02 
3.655500e-01 3.347887e+02 
3.667300e-01 3.331068e+02 
3.679500e-01 3.313934e+02 
3.691900e-01 3.296665e+02 
3.703600e-01 3.280504e+02 
3.715700e-01 3.263925e+02 
3.727700e-01 3.247617e+02 
3.739900e-01 3.231209e+02 
3.752000e-01 3.215135e+02 
3.763900e-01 3.199453e+02 
3.775800e-01 3.183896e+02 
3.788200e-01 3.167815e+02 
3.800300e-01 3.152251e+02 
3.812100e-01 3.137250e+02 
3.824200e-01 3.122028e+02 
3.836100e-01 3.107174e+02 
3.848600e-01 3.091696e+02 
3.860400e-01 3.077200e+02 
3.872400e-01 3.062572e+02 
3.884600e-01 3.047887e+02 
3.896500e-01 3.033701e+02 
3.908700e-01 3.019270e+02 
3.920600e-01 3.005302e+02 
3.933100e-01 2.990745e+02 
3.945300e-01 2.976647e+02 
3.957200e-01 2.963077e+02 
3.969300e-01 2.949405e+02 
3.981700e-01 2.935501e+02 
3.993500e-01 2.922371e+02 
4.094840e-01 2.813847e+02 
4.272360e-01 2.641146e+02 
4.454600e-01 2.483193e+02 
4.630560e-01 2.346456e+02 
4.804610e-01 2.224244e+02 
4.980690e-01 2.112034e+02 
5.159230e-01 2.008385e+02 
5.317440e-01 1.924074e+02 
5.489640e-01 1.839408e+02 
5.671990e-01 1.757018e+02 
5.838690e-01 1.687475e+02 
6.018840e-01 1.617975e+02 
6.202330e-01 1.552627e+02 
6.379250e-01 1.494179e+02 
6.545410e-01 1.443142e+02 
6.714560e-01 1.394573e+02 
6.892080e-01 1.346958e+02 
7.066010e-01 1.303434e+02 
7.240540e-01 1.262457e+02 
7.420450e-01 1.222958e+02 
7.593780e-01 1.187248e+02 
7.764720e-01 1.154066e+02 
7.942840e-01 1.121485e+02 
8.116170e-01 1.091608e+02 
8.288310e-01 1.063550e+02 
8.462240e-01 1.036713e+02 
8.631980e-01 1.011859e+02 
8.810700e-01 9.870089e+01 
8.989410e-01 9.634047e+01 
9.166330e-01 9.411758e+01 
9.345640e-01 9.197512e+01 
9.515980e-01 9.003136e+01 
9.688720e-01 8.814401e+01 
9.865640e-01 8.629651e+01 
1.031870e+00 8.190200e+01 
1.063490e+00 7.909440e+01 
1.097920e+00 7.625213e+01 
1.134370e+00 7.345028e+01 
1.167730e+00 7.105738e+01 
1.203830e+00 6.862682e+01 
1.240470e+00 6.631560e+01 
1.275790e+00 6.421969e+01 
1.309140e+00 6.235159e+01 
1.342970e+00 6.054610e+01 
1.378420e+00 5.875514e+01 
1.413200e+00 5.708570e+01 
1.448110e+00 5.548995e+01 
1.484090e+00 5.392292e+01 
1.518820e+00 5.247998e+01 
1.552880e+00 5.112533e+01 
1.588630e+00 4.976420e+01 
1.623230e+00 4.850239e+01 
1.657720e+00 4.729579e+01 
1.692450e+00 4.612931e+01 
1.726400e+00 4.503216e+01 
1.762200e+00 4.391774e+01 
1.797880e+00 4.284976e+01 
1.833270e+00 4.183089e+01 
1.869070e+00 4.083748e+01 
1.903200e+00 3.992316e+01 
1.937740e+00 3.903023e+01 
1.973190e+00 3.814517e+01 
2.007440e+00 3.731905e+01 
2.042160e+00 3.650784e+01 
2.077900e+00 3.569992e+01 
2.112390e+00 3.494685e+01 
2.146220e+00 3.422912e+01 
2.181600e+00 3.350231e+01 
2.216930e+00 3.279814e+01 
2.250760e+00 3.214451e+01 
2.286500e+00 3.147513e+01 
2.321770e+00 3.083430e+01 
2.355950e+00 3.023101e+01 
2.391280e+00 2.962385e+01 
2.426240e+00 2.904014e+01 
2.460670e+00 2.848200e+01 
2.495640e+00 2.793180e+01 
2.531080e+00 2.738810e+01 
2.566220e+00 2.686310e+01 
2.600830e+00 2.636021e+01 
2.635080e+00 2.587623e+01 
2.670340e+00 2.539022e+01 
2.705970e+00 2.491201e+01 
2.740040e+00 2.446674e+01 
2.774520e+00 2.402688e+01 
2.809730e+00 2.358844e+01 
2.844390e+00 2.316820e+01 
2.879960e+00 2.274792e+01 
2.914860e+00 2.234503e+01 
2.949410e+00 2.195625e+01 
2.984440e+00 2.157081e+01 
3.019760e+00 2.119151e+01 
3.054730e+00 2.082552e+01 
3.089030e+00 2.047381e+01 
3.124060e+00 2.012362e+01 
3.159560e+00 1.977721e+01 
3.194710e+00 1.944163e+01 
3.229010e+00 1.912218e+01 
3.263320e+00 1.880836e+01 
3.297930e+00 1.849943e+01 
3.332830e+00 1.819465e+01 
3.368040e+00 1.789407e+01 
3.403300e+00 1.760007e+01 
3.438450e+00 1.731286e+01 
3.473060e+00 1.703686e+01 
3.508440e+00 1.675961e+01 
3.543110e+00 1.649450e+01 
3.577470e+00 1.623699e+01 
3.613040e+00 1.597641e+01 
3.648120e+00 1.572416e+01 
3.682910e+00 1.547964e+01 
3.718050e+00 1.523779e+01 
3.753320e+00 1.500013e+01 
3.787980e+00 1.477099e+01 
3.822290e+00 1.454895e+01 
3.857020e+00 1.432865e+01 
3.891920e+00 1.411185e+01 
3.926650e+00 1.390013e+01 
3.961970e+00 1.368940e+01 
3.997360e+00 1.348229e+01 
4.031670e+00 1.328578e+01 
4.066330e+00 1.309072e+01 
4.101420e+00 1.289754e+01 
4.136200e+00 1.270917e+01 
4.170810e+00 1.252576e+01 
4.206250e+00 1.234132e+01 
4.241580e+00 1.216132e+01 
4.276300e+00 1.198766e+01 
4.310970e+00 1.181758e+01 
4.346120e+00 1.164847e+01 
4.380600e+00 1.148550e+01 
4.414730e+00 1.132746e+01 
4.450350e+00 1.116522e+01 
4.485320e+00 1.100924e+01 
4.519810e+00 1.085814e+01 
4.555430e+00 1.070508e+01 
4.590870e+00 1.055566e+01 
4.625480e+00 1.041216e+01 
4.659910e+00 1.027220e+01 
4.695230e+00 1.013114e+01 
4.729960e+00 9.995121e+00 
4.764450e+00 9.862489e+00 
4.799530e+00 9.729937e+00 
4.834910e+00 9.598834e+00 
4.869700e+00 9.471975e+00 
4.904370e+00 9.347866e+00 
4.939450e+00 9.224580e+00 
4.973940e+00 9.105449e+00 
5.008430e+00 8.988504e+00 
5.043810e+00 8.870540e+00 
5.078840e+00 8.755779e+00 
5.113500e+00 8.644298e+00 
5.148890e+00 8.532358e+00 
5.184210e+00 8.422672e+00 
5.219060e+00 8.316352e+00 
5.253660e+00 8.212543e+00 
5.288570e+00 8.109653e+00 
5.323420e+00 8.008631e+00 
5.358440e+00 7.908766e+00 
5.393590e+00 7.810287e+00 
5.428310e+00 7.714702e+00 
5.462800e+00 7.621374e+00 
5.497640e+00 7.528702e+00 
5.532670e+00 7.437051e+00 
5.567280e+00 7.348010e+00 
5.602000e+00 7.260179e+00 
5.637270e+00 7.172387e+00 
5.672410e+00 7.086374e+00 
5.707020e+00 7.003059e+00 
5.742040e+00 6.920179e+00 
5.777430e+00 6.837814e+00 
5.812210e+00 6.758195e+00 
5.846820e+00 6.680200e+00 
5.881610e+00 6.603045e+00 
5.916510e+00 6.526886e+00 
5.951600e+00 6.451568e+00 
5.986560e+00 6.377738e+00 
6.021830e+00 6.304436e+00 
6.056490e+00 6.233569e+00 
6.091160e+00 6.163810e+00 
6.125830e+00 6.095127e+00 
6.161090e+00 6.026369e+00 
6.195760e+00 5.959827e+00 
6.230420e+00 5.894315e+00 
6.265690e+00 5.828672e+00 
6.300950e+00 5.764170e+00 
6.335620e+00 5.701705e+00 
6.370880e+00 5.639131e+00 
6.405550e+00 5.578559e+00 
6.440220e+00 5.518896e+00 
6.475480e+00 5.459116e+00 
6.510150e+00 5.401239e+00 
6.544810e+00 5.344305e+00 
6.580080e+00 5.287212e+00 
6.614750e+00 5.231906e+00 
6.649410e+00 5.177470e+00 
6.684080e+00 5.123808e+00 
6.719340e+00 5.070012e+00 
6.754010e+00 5.017918e+00 
6.788680e+00 4.966669e+00 
6.823940e+00 4.915282e+00 
6.859800e+00 4.863766e+00 
6.894470e+00 4.814752e+00 
6.929140e+00 4.766446e+00 
6.963800e+00 4.718816e+00 
6.999070e+00 4.671021e+00 
7.033730e+00 4.624804e+00 
7.068400e+00 4.579198e+00 
7.103660e+00 4.533446e+00 
7.138330e+00 4.489102e+00 
7.173600e+00 4.444671e+00 
7.208260e+00 4.401592e+00 
7.243530e+00 4.358339e+00 
7.277600e+00 4.317178e+00 
7.312860e+00 4.275201e+00 
7.348120e+00 4.233780e+00 
7.382790e+00 4.193584e+00 
7.417460e+00 4.154009e+00 
7.452720e+00 4.114334e+00 
7.487390e+00 4.075827e+00 
7.522650e+00 4.037166e+00 
7.557320e+00 3.999724e+00 
7.591990e+00 3.962786e+00 
7.627250e+00 3.925695e+00 
7.662510e+00 3.889075e+00 
7.697180e+00 3.853634e+00 
7.731850e+00 3.818674e+00 
7.766510e+00 3.784156e+00 
7.801180e+00 3.750053e+00 
7.836440e+00 3.715868e+00 
7.871110e+00 3.682714e+00 
7.906380e+00 3.649398e+00 
7.941040e+00 3.617057e+00 
7.976310e+00 3.584605e+00 
8.011570e+00 3.552626e+00 
8.046240e+00 3.521560e+00 
8.080900e+00 3.490872e+00 
8.115570e+00 3.460566e+00 
8.150830e+00 3.430217e+00 
8.185500e+00 3.400728e+00 
8.220770e+00 3.371082e+00 
8.255430e+00 3.342290e+00 
8.290100e+00 3.313952e+00 
8.324770e+00 3.285956e+00 
8.359430e+00 3.258288e+00 
8.394700e+00 3.230459e+00 
8.429960e+00 3.203018e+00 
8.464630e+00 3.176406e+00 
8.499890e+00 3.149648e+00 
8.534560e+00 3.123637e+00 
8.569200e+00 3.097939e+00 
