# Parameters:
# omega_b = 0.023327, omega_m = 0.143701, n_s = 0.939764, h = 55.472441, w = -1.000000, sigma_8 = 0.797638
# z = 1.700000
#
# k[1/Mpc] # P(k):
8.694000e-04 4.004451e+03 
2.077466e-03 8.384540e+03 
3.285532e-03 1.176454e+04 
4.493598e-03 1.435722e+04 
5.701664e-03 1.627769e+04 
6.909730e-03 1.763698e+04 
8.117797e-03 1.855814e+04 
9.325863e-03 1.910426e+04 
1.053393e-02 1.933796e+04 
1.174199e-02 1.931726e+04 
1.295006e-02 1.907842e+04 
1.415813e-02 1.867088e+04 
1.536619e-02 1.813859e+04 
1.657426e-02 1.751157e+04 
1.778233e-02 1.681557e+04 
1.899039e-02 1.608924e+04 
2.019846e-02 1.535361e+04 
2.140652e-02 1.462745e+04 
2.261459e-02 1.392077e+04 
2.382266e-02 1.324620e+04 
2.503072e-02 1.261294e+04 
2.623879e-02 1.202472e+04 
2.744685e-02 1.148275e+04 
2.865492e-02 1.098936e+04 
2.986299e-02 1.054278e+04 
3.100100e-02 1.016433e+04 
3.220400e-02 9.805763e+03 
3.288100e-02 9.622516e+03 
3.424300e-02 9.289077e+03 
3.555100e-02 9.007592e+03 
3.686000e-02 8.759052e+03 
3.795000e-02 8.572674e+03 
3.929100e-02 8.365487e+03 
4.039800e-02 8.207263e+03 
4.164000e-02 8.039381e+03 
4.294400e-02 7.867868e+03 
4.415000e-02 7.711911e+03 
4.542900e-02 7.542170e+03 
4.660900e-02 7.383427e+03 
4.782300e-02 7.209312e+03 
4.892900e-02 7.046033e+03 
5.031200e-02 6.832606e+03 
5.155900e-02 6.630612e+03 
5.238100e-02 6.494022e+03 
5.378200e-02 6.257379e+03 
5.513400e-02 6.026467e+03 
5.627600e-02 5.833222e+03 
5.735300e-02 5.656141e+03 
5.870100e-02 5.445453e+03 
5.988700e-02 5.273092e+03 
6.113500e-02 5.105277e+03 
6.225900e-02 4.965516e+03 
6.340100e-02 4.832569e+03 
6.480200e-02 4.678661e+03 
6.601100e-02 4.551933e+03 
6.725500e-02 4.426067e+03 
6.829100e-02 4.324956e+03 
6.958600e-02 4.203733e+03 
7.071100e-02 4.104221e+03 
7.192300e-02 4.003584e+03 
7.307400e-02 3.914672e+03 
7.412300e-02 3.839327e+03 
7.550400e-02 3.748746e+03 
7.663100e-02 3.680729e+03 
7.791200e-02 3.610534e+03 
7.912700e-02 3.549523e+03 
8.027600e-02 3.495561e+03 
8.138400e-02 3.446229e+03 
8.272200e-02 3.389449e+03 
8.406100e-02 3.334592e+03 
8.534100e-02 3.282738e+03 
8.653800e-02 3.233783e+03 
8.759800e-02 3.190007e+03 
8.900300e-02 3.130742e+03 
9.009000e-02 3.083371e+03 
9.113300e-02 3.036143e+03 
9.239600e-02 2.977953e+03 
9.358000e-02 2.921725e+03 
9.496100e-02 2.853653e+03 
9.608400e-02 2.797696e+03 
9.727500e-02 2.738295e+03 
9.852600e-02 2.674172e+03 
9.973800e-02 2.612892e+03 
1.009000e-01 2.555021e+03 
1.020900e-01 2.496164e+03 
1.034000e-01 2.433284e+03 
1.046000e-01 2.377392e+03 
1.057200e-01 2.327243e+03 
1.069100e-01 2.275830e+03 
1.082500e-01 2.220885e+03 
1.093900e-01 2.176665e+03 
1.105400e-01 2.133927e+03 
1.116900e-01 2.094239e+03 
1.129600e-01 2.052361e+03 
1.142000e-01 2.014648e+03 
1.153300e-01 1.982099e+03 
1.166400e-01 1.946776e+03 
1.177800e-01 1.918223e+03 
1.190000e-01 1.889068e+03 
1.201200e-01 1.864335e+03 
1.213400e-01 1.838284e+03 
1.227100e-01 1.811244e+03 
1.238900e-01 1.788723e+03 
1.250700e-01 1.767253e+03 
1.263200e-01 1.745078e+03 
1.275500e-01 1.723849e+03 
1.287500e-01 1.703425e+03 
1.299900e-01 1.682501e+03 
1.311300e-01 1.663268e+03 
1.323500e-01 1.642496e+03 
1.335900e-01 1.621238e+03 
1.347100e-01 1.601629e+03 
1.359800e-01 1.579288e+03 
1.372100e-01 1.556959e+03 
1.384300e-01 1.534828e+03 
1.395700e-01 1.513450e+03 
1.407700e-01 1.491298e+03 
1.420300e-01 1.467215e+03 
1.432800e-01 1.443876e+03 
1.444500e-01 1.421591e+03 
1.456300e-01 1.399604e+03 
1.468900e-01 1.376416e+03 
1.480500e-01 1.355472e+03 
1.491700e-01 1.335760e+03 
1.503800e-01 1.315026e+03 
1.516400e-01 1.294041e+03 
1.528200e-01 1.275380e+03 
1.540200e-01 1.256795e+03 
1.551900e-01 1.239772e+03 
1.564300e-01 1.222273e+03 
1.576600e-01 1.205704e+03 
1.588700e-01 1.190251e+03 
1.600900e-01 1.175015e+03 
1.612700e-01 1.161340e+03 
1.625400e-01 1.146902e+03 
1.637600e-01 1.133634e+03 
1.649500e-01 1.121125e+03 
1.662200e-01 1.108058e+03 
1.674000e-01 1.096331e+03 
1.685000e-01 1.085584e+03 
1.697500e-01 1.073549e+03 
1.710300e-01 1.061419e+03 
1.722200e-01 1.050344e+03 
1.734400e-01 1.038925e+03 
1.746400e-01 1.027878e+03 
1.758700e-01 1.016629e+03 
1.770900e-01 1.005417e+03 
1.782700e-01 9.947589e+02 
1.794600e-01 9.839690e+02 
1.807000e-01 9.727699e+02 
1.819100e-01 9.620301e+02 
1.830100e-01 9.521940e+02 
1.842200e-01 9.415098e+02 
1.855000e-01 9.303964e+02 
1.867000e-01 9.199947e+02 
1.879200e-01 9.095965e+02 
1.890900e-01 8.997800e+02 
1.902800e-01 8.899138e+02 
1.915200e-01 8.798029e+02 
1.926900e-01 8.704337e+02 
1.939000e-01 8.609490e+02 
1.951700e-01 8.511586e+02 
1.963100e-01 8.425464e+02 
1.975100e-01 8.337156e+02 
1.987800e-01 8.245202e+02 
2.000100e-01 8.158093e+02 
2.012500e-01 8.072842e+02 
2.023400e-01 7.999016e+02 
2.036100e-01 7.914618e+02 
2.048900e-01 7.832213e+02 
2.060400e-01 7.759297e+02 
2.072200e-01 7.685653e+02 
2.084200e-01 7.613036e+02 
2.096900e-01 7.537337e+02 
2.109200e-01 7.465132e+02 
2.121100e-01 7.396972e+02 
2.132700e-01 7.331498e+02 
2.145200e-01 7.261953e+02 
2.157200e-01 7.196281e+02 
2.168800e-01 7.133735e+02 
2.180700e-01 7.070452e+02 
2.193400e-01 7.003760e+02 
2.206000e-01 6.938338e+02 
2.217500e-01 6.879455e+02 
2.229500e-01 6.818839e+02 
2.241400e-01 6.758826e+02 
2.253500e-01 6.698617e+02 
2.264900e-01 6.642645e+02 
2.277100e-01 6.583080e+02 
2.289900e-01 6.520949e+02 
2.301500e-01 6.465412e+02 
2.313600e-01 6.408236e+02 
2.325600e-01 6.351289e+02 
2.337700e-01 6.294635e+02 
2.350000e-01 6.237818e+02 
2.362000e-01 6.182720e+02 
2.374100e-01 6.127416e+02 
2.386500e-01 6.071499e+02 
2.399100e-01 6.015452e+02 
2.410400e-01 5.965358e+02 
2.422500e-01 5.912335e+02 
2.435000e-01 5.858284e+02 
2.447300e-01 5.805758e+02 
2.458700e-01 5.757506e+02 
2.470600e-01 5.707761e+02 
2.483300e-01 5.655364e+02 
2.495600e-01 5.605342e+02 
2.507600e-01 5.557237e+02 
2.519600e-01 5.509735e+02 
2.532200e-01 5.460495e+02 
2.543700e-01 5.416376e+02 
2.555500e-01 5.371827e+02 
2.568000e-01 5.325220e+02 
2.580100e-01 5.280669e+02 
2.592400e-01 5.236379e+02 
2.604100e-01 5.194949e+02 
2.616100e-01 5.152960e+02 
2.628400e-01 5.110440e+02 
2.640600e-01 5.069316e+02 
2.652200e-01 5.030884e+02 
2.664300e-01 4.991258e+02 
2.676500e-01 4.951776e+02 
2.688400e-01 4.914121e+02 
2.700700e-01 4.875906e+02 
2.712400e-01 4.839971e+02 
2.724800e-01 4.802321e+02 
2.736700e-01 4.766893e+02 
2.748800e-01 4.731574e+02 
2.761000e-01 4.696366e+02 
2.773200e-01 4.661556e+02 
2.785400e-01 4.627270e+02 
2.797000e-01 4.595301e+02 
2.808900e-01 4.562857e+02 
2.821400e-01 4.529155e+02 
2.833900e-01 4.495845e+02 
2.845500e-01 4.465501e+02 
2.857800e-01 4.433669e+02 
2.870300e-01 4.401678e+02 
2.882100e-01 4.371804e+02 
2.893900e-01 4.342347e+02 
2.906300e-01 4.311776e+02 
2.918900e-01 4.281053e+02 
2.930500e-01 4.253067e+02 
2.942500e-01 4.224425e+02 
2.954200e-01 4.196821e+02 
2.966500e-01 4.168101e+02 
2.978900e-01 4.139455e+02 
2.990400e-01 4.113160e+02 
3.002700e-01 4.085321e+02 
3.015100e-01 4.057549e+02 
3.026800e-01 4.031612e+02 
3.038500e-01 4.005930e+02 
3.050300e-01 3.980284e+02 
3.062600e-01 3.953779e+02 
3.075000e-01 3.927334e+02 
3.087000e-01 3.902000e+02 
3.099100e-01 3.876710e+02 
3.111200e-01 3.851662e+02 
3.123100e-01 3.827252e+02 
3.135300e-01 3.802474e+02 
3.147300e-01 3.778342e+02 
3.159900e-01 3.753256e+02 
3.171800e-01 3.729787e+02 
3.183700e-01 3.706536e+02 
3.196300e-01 3.682159e+02 
3.208400e-01 3.658981e+02 
3.220300e-01 3.636403e+02 
3.232000e-01 3.614416e+02 
3.244300e-01 3.591521e+02 
3.256700e-01 3.568664e+02 
3.269200e-01 3.545849e+02 
3.280800e-01 3.524876e+02 
3.292500e-01 3.503943e+02 
3.304800e-01 3.482151e+02 
3.317100e-01 3.460566e+02 
3.328900e-01 3.440052e+02 
3.340700e-01 3.419723e+02 
3.353600e-01 3.397756e+02 
3.365300e-01 3.378038e+02 
3.377100e-01 3.358328e+02 
3.389200e-01 3.338300e+02 
3.401600e-01 3.317966e+02 
3.413700e-01 3.298368e+02 
3.425300e-01 3.279789e+02 
3.437700e-01 3.260107e+02 
3.449800e-01 3.241076e+02 
3.461800e-01 3.222371e+02 
3.473600e-01 3.204173e+02 
3.485800e-01 3.185606e+02 
3.498100e-01 3.167054e+02 
3.510200e-01 3.148966e+02 
3.522000e-01 3.131480e+02 
3.533900e-01 3.113998e+02 
3.546400e-01 3.095928e+02 
3.558400e-01 3.078741e+02 
3.570600e-01 3.061420e+02 
3.582700e-01 3.044389e+02 
3.595000e-01 3.027227e+02 
3.607100e-01 3.010573e+02 
3.618900e-01 2.994535e+02 
3.631200e-01 2.977958e+02 
3.643200e-01 2.961923e+02 
3.655500e-01 2.945627e+02 
3.667300e-01 2.930124e+02 
3.679500e-01 2.914390e+02 
3.691900e-01 2.898533e+02 
3.703600e-01 2.883695e+02 
3.715700e-01 2.868474e+02 
3.727700e-01 2.853504e+02 
3.739900e-01 2.838464e+02 
3.752000e-01 2.823768e+02 
3.763900e-01 2.809432e+02 
3.775800e-01 2.795210e+02 
3.788200e-01 2.780512e+02 
3.800300e-01 2.766286e+02 
3.812100e-01 2.752612e+02 
3.824200e-01 2.738761e+02 
3.836100e-01 2.725246e+02 
3.848600e-01 2.711164e+02 
3.860400e-01 2.697977e+02 
3.872400e-01 2.684670e+02 
3.884600e-01 2.671354e+02 
3.896500e-01 2.658508e+02 
3.908700e-01 2.645440e+02 
3.920600e-01 2.632792e+02 
3.933100e-01 2.619611e+02 
3.945300e-01 2.606847e+02 
3.957200e-01 2.594608e+02 
3.969300e-01 2.582291e+02 
3.981700e-01 2.569766e+02 
3.993500e-01 2.557938e+02 
4.094840e-01 2.460397e+02 
4.272360e-01 2.306374e+02 
4.454600e-01 2.166256e+02 
4.630560e-01 2.045282e+02 
4.804610e-01 1.937193e+02 
4.980690e-01 1.837800e+02 
5.159230e-01 1.745776e+02 
5.317440e-01 1.670734e+02 
5.489640e-01 1.595176e+02 
5.671990e-01 1.521443e+02 
5.838690e-01 1.459101e+02 
6.018840e-01 1.396687e+02 
6.202330e-01 1.337916e+02 
6.379250e-01 1.285335e+02 
6.545410e-01 1.239386e+02 
6.714560e-01 1.195661e+02 
6.892080e-01 1.152804e+02 
7.066010e-01 1.113635e+02 
7.240540e-01 1.076789e+02 
7.420450e-01 1.041285e+02 
7.593780e-01 1.009213e+02 
7.764720e-01 9.794325e+01 
7.942840e-01 9.502166e+01 
8.116170e-01 9.234461e+01 
8.288310e-01 8.983328e+01 
8.462240e-01 8.743299e+01 
8.631980e-01 8.521231e+01 
8.810700e-01 8.299426e+01 
8.989410e-01 8.088968e+01 
9.166330e-01 7.890988e+01 
9.345640e-01 7.700311e+01 
9.515980e-01 7.527513e+01 
9.688720e-01 7.359955e+01 
9.865640e-01 7.196083e+01 
1.031870e+00 6.807157e+01 
1.063490e+00 6.559327e+01 
1.097920e+00 6.308935e+01 
1.134370e+00 6.062797e+01 
1.167730e+00 5.853068e+01 
1.203830e+00 5.640676e+01 
1.240470e+00 5.439227e+01 
1.275790e+00 5.257039e+01 
1.309140e+00 5.095015e+01 
1.342970e+00 4.938990e+01 
1.378420e+00 4.784529e+01 
1.413200e+00 4.640943e+01 
1.448110e+00 4.504044e+01 
1.484090e+00 4.369966e+01 
1.518820e+00 4.246822e+01 
1.552880e+00 4.131516e+01 
1.588630e+00 4.015933e+01 
1.623230e+00 3.909051e+01 
1.657720e+00 3.807072e+01 
1.692450e+00 3.708705e+01 
1.726400e+00 3.616396e+01 
1.762200e+00 3.522857e+01 
1.797880e+00 3.433420e+01 
1.833270e+00 3.348258e+01 
1.869070e+00 3.265404e+01 
1.903200e+00 3.189323e+01 
1.937740e+00 3.115140e+01 
1.973190e+00 3.041742e+01 
2.007440e+00 2.973355e+01 
2.042160e+00 2.906346e+01 
2.077900e+00 2.839726e+01 
2.112390e+00 2.777705e+01 
2.146220e+00 2.718722e+01 
2.181600e+00 2.659080e+01 
2.216930e+00 2.601403e+01 
2.250760e+00 2.547936e+01 
2.286500e+00 2.493251e+01 
2.321770e+00 2.440977e+01 
2.355950e+00 2.391835e+01 
2.391280e+00 2.342468e+01 
2.426240e+00 2.295070e+01 
2.460670e+00 2.249796e+01 
2.495640e+00 2.205208e+01 
2.531080e+00 2.161219e+01 
2.566220e+00 2.118807e+01 
2.600830e+00 2.078223e+01 
2.635080e+00 2.039199e+01 
2.670340e+00 2.000057e+01 
2.705970e+00 1.961590e+01 
2.740040e+00 1.925807e+01 
2.774520e+00 1.890499e+01 
2.809730e+00 1.855345e+01 
2.844390e+00 1.821675e+01 
2.879960e+00 1.788027e+01 
2.914860e+00 1.755812e+01 
2.949410e+00 1.724746e+01 
2.984440e+00 1.693983e+01 
3.019760e+00 1.663736e+01 
3.054730e+00 1.634567e+01 
3.089030e+00 1.606567e+01 
3.124060e+00 1.578700e+01 
3.159560e+00 1.551151e+01 
3.194710e+00 1.524490e+01 
3.229010e+00 1.499123e+01 
3.263320e+00 1.474229e+01 
3.297930e+00 1.449734e+01 
3.332830e+00 1.425585e+01 
3.368040e+00 1.401782e+01 
3.403300e+00 1.378509e+01 
3.438450e+00 1.355794e+01 
3.473060e+00 1.333970e+01 
3.508440e+00 1.312070e+01 
3.543110e+00 1.291133e+01 
3.577470e+00 1.270805e+01 
3.613040e+00 1.250243e+01 
3.648120e+00 1.230356e+01 
3.682910e+00 1.211082e+01 
3.718050e+00 1.192024e+01 
3.753320e+00 1.173303e+01 
3.787980e+00 1.155267e+01 
3.822290e+00 1.137795e+01 
3.857020e+00 1.120465e+01 
3.891920e+00 1.103415e+01 
3.926650e+00 1.086773e+01 
3.961970e+00 1.070211e+01 
3.997360e+00 1.053940e+01 
4.031670e+00 1.038503e+01 
4.066330e+00 1.023190e+01 
4.101420e+00 1.008025e+01 
4.136200e+00 9.932445e+00 
4.170810e+00 9.788540e+00 
4.206250e+00 9.643883e+00 
4.241580e+00 9.502718e+00 
4.276300e+00 9.366565e+00 
4.310970e+00 9.233250e+00 
4.346120e+00 9.100707e+00 
4.380600e+00 8.973031e+00 
4.414730e+00 8.849211e+00 
4.450350e+00 8.722160e+00 
4.485320e+00 8.600005e+00 
4.519810e+00 8.481685e+00 
4.555430e+00 8.361839e+00 
4.590870e+00 8.244865e+00 
4.625480e+00 8.132571e+00 
4.659910e+00 8.023048e+00 
4.695230e+00 7.912675e+00 
4.729960e+00 7.806240e+00 
4.764450e+00 7.702464e+00 
4.799530e+00 7.598758e+00 
4.834910e+00 7.496188e+00 
4.869700e+00 7.396969e+00 
4.904370e+00 7.299908e+00 
4.939450e+00 7.203495e+00 
4.973940e+00 7.110339e+00 
5.008430e+00 7.018895e+00 
5.043810e+00 6.926666e+00 
5.078840e+00 6.836950e+00 
5.113500e+00 6.749800e+00 
5.148890e+00 6.662283e+00 
5.184210e+00 6.576529e+00 
5.219060e+00 6.493413e+00 
5.253660e+00 6.412274e+00 
5.288570e+00 6.331853e+00 
5.323420e+00 6.252904e+00 
5.358440e+00 6.174872e+00 
5.393590e+00 6.097923e+00 
5.428310e+00 6.023225e+00 
5.462800e+00 5.950286e+00 
5.497640e+00 5.877860e+00 
5.532670e+00 5.806229e+00 
5.567280e+00 5.736637e+00 
5.602000e+00 5.667991e+00 
5.637270e+00 5.599392e+00 
5.672410e+00 5.532184e+00 
5.707020e+00 5.467087e+00 
5.742040e+00 5.402327e+00 
5.777430e+00 5.337969e+00 
5.812210e+00 5.275757e+00 
5.846820e+00 5.214816e+00 
5.881610e+00 5.154533e+00 
5.916510e+00 5.095028e+00 
5.951600e+00 5.036185e+00 
5.986560e+00 4.978505e+00 
6.021830e+00 4.921239e+00 
6.056490e+00 4.865871e+00 
6.091160e+00 4.811365e+00 
6.125830e+00 4.757701e+00 
6.161090e+00 4.703983e+00 
6.195760e+00 4.652007e+00 
6.230420e+00 4.600837e+00 
6.265690e+00 4.549563e+00 
6.300950e+00 4.499170e+00 
6.335620e+00 4.450369e+00 
6.370880e+00 4.401482e+00 
6.405550e+00 4.354168e+00 
6.440220e+00 4.307567e+00 
6.475480e+00 4.260874e+00 
6.510150e+00 4.215669e+00 
6.544810e+00 4.171204e+00 
6.580080e+00 4.126617e+00 
6.614750e+00 4.083423e+00 
6.649410e+00 4.040919e+00 
6.684080e+00 3.999019e+00 
6.719340e+00 3.957015e+00 
6.754010e+00 3.916339e+00 
6.788680e+00 3.876320e+00 
6.823940e+00 3.836194e+00 
6.859800e+00 3.795967e+00 
6.894470e+00 3.757697e+00 
6.929140e+00 3.719981e+00 
6.963800e+00 3.682792e+00 
6.999070e+00 3.645477e+00 
7.033730e+00 3.609404e+00 
7.068400e+00 3.573809e+00 
7.103660e+00 3.538099e+00 
7.138330e+00 3.503491e+00 
7.173600e+00 3.468820e+00 
7.208260e+00 3.435205e+00 
7.243530e+00 3.401454e+00 
7.277600e+00 3.369338e+00 
7.312860e+00 3.336590e+00 
7.348120e+00 3.304275e+00 
7.382790e+00 3.272916e+00 
7.417460e+00 3.242044e+00 
7.452720e+00 3.211096e+00 
7.487390e+00 3.181058e+00 
7.522650e+00 3.150901e+00 
7.557320e+00 3.121706e+00 
7.591990e+00 3.092908e+00 
7.627250e+00 3.063991e+00 
7.662510e+00 3.035441e+00 
7.697180e+00 3.007813e+00 
7.731850e+00 2.980563e+00 
7.766510e+00 2.953656e+00 
7.801180e+00 2.927072e+00 
7.836440e+00 2.900433e+00 
7.871110e+00 2.874602e+00 
7.906380e+00 2.848646e+00 
7.941040e+00 2.823448e+00 
7.976310e+00 2.798167e+00 
8.011570e+00 2.773260e+00 
8.046240e+00 2.749063e+00 
8.080900e+00 2.725160e+00 
8.115570e+00 2.701558e+00 
8.150830e+00 2.677932e+00 
8.185500e+00 2.654976e+00 
8.220770e+00 2.631898e+00 
8.255430e+00 2.609484e+00 
8.290100e+00 2.587428e+00 
8.324770e+00 2.565638e+00 
8.359430e+00 2.544103e+00 
8.394700e+00 2.522442e+00 
8.429960e+00 2.501091e+00 
8.464630e+00 2.480391e+00 
8.499890e+00 2.459578e+00 
8.534560e+00 2.439344e+00 
8.569200e+00 2.419355e+00 
