# Parameters:
# omega_b = 0.022146, omega_m = 0.136811, n_s = 1.007480, h = 59.015748, w = -1.000000, sigma_8 = 0.733071
# z = 1.700000
#
# k[1/Mpc] # P(k):
8.694000e-04 2.742338e+03 
2.077466e-03 6.059924e+03 
3.285532e-03 8.721412e+03 
4.493598e-03 1.080786e+04 
5.701664e-03 1.238817e+04 
6.909730e-03 1.353297e+04 
8.117797e-03 1.432937e+04 
9.325863e-03 1.482293e+04 
1.053393e-02 1.506191e+04 
1.174199e-02 1.509272e+04 
1.295006e-02 1.494408e+04 
1.415813e-02 1.465564e+04 
1.536619e-02 1.426297e+04 
1.657426e-02 1.379023e+04 
1.778233e-02 1.325867e+04 
1.899039e-02 1.270009e+04 
2.019846e-02 1.213228e+04 
2.140652e-02 1.157098e+04 
2.261459e-02 1.102490e+04 
2.382266e-02 1.050479e+04 
2.503072e-02 1.001838e+04 
2.623879e-02 9.568855e+03 
2.744685e-02 9.157680e+03 
2.865492e-02 8.785955e+03 
2.986299e-02 8.451956e+03 
3.100100e-02 8.171359e+03 
3.220400e-02 7.907554e+03 
3.288100e-02 7.773628e+03 
3.424300e-02 7.531035e+03 
3.555100e-02 7.326814e+03 
3.686000e-02 7.146315e+03 
3.795000e-02 7.010240e+03 
3.929100e-02 6.856999e+03 
4.039800e-02 6.737899e+03 
4.164000e-02 6.609157e+03 
4.294400e-02 6.473645e+03 
4.415000e-02 6.348046e+03 
4.542900e-02 6.208125e+03 
4.660900e-02 6.075608e+03 
4.782300e-02 5.928423e+03 
4.892900e-02 5.789758e+03 
5.031200e-02 5.608109e+03 
5.155900e-02 5.436403e+03 
5.238100e-02 5.320592e+03 
5.378200e-02 5.120592e+03 
5.513400e-02 4.926416e+03 
5.627600e-02 4.764660e+03 
5.735300e-02 4.616812e+03 
5.870100e-02 4.441092e+03 
5.988700e-02 4.297195e+03 
6.113500e-02 4.156824e+03 
6.225900e-02 4.039851e+03 
6.340100e-02 3.928820e+03 
6.480200e-02 3.800971e+03 
6.601100e-02 3.697180e+03 
6.725500e-02 3.595733e+03 
6.829100e-02 3.515797e+03 
6.958600e-02 3.421345e+03 
7.071100e-02 3.345148e+03 
7.192300e-02 3.269119e+03 
7.307400e-02 3.202730e+03 
7.412300e-02 3.146952e+03 
7.550400e-02 3.080412e+03 
7.663100e-02 3.030616e+03 
7.791200e-02 2.979208e+03 
7.912700e-02 2.934189e+03 
8.027600e-02 2.893938e+03 
8.138400e-02 2.856662e+03 
8.272200e-02 2.812962e+03 
8.406100e-02 2.769796e+03 
8.534100e-02 2.727868e+03 
8.653800e-02 2.687385e+03 
8.759800e-02 2.650679e+03 
8.900300e-02 2.600274e+03 
9.009000e-02 2.559494e+03 
9.113300e-02 2.518529e+03 
9.239600e-02 2.467861e+03 
9.358000e-02 2.418753e+03 
9.496100e-02 2.359275e+03 
9.608400e-02 2.310460e+03 
9.727500e-02 2.258729e+03 
9.852600e-02 2.203258e+03 
9.973800e-02 2.150513e+03 
1.009000e-01 2.100923e+03 
1.020900e-01 2.051162e+03 
1.034000e-01 1.998388e+03 
1.046000e-01 1.951883e+03 
1.057200e-01 1.910920e+03 
1.069100e-01 1.869213e+03 
1.082500e-01 1.825502e+03 
1.093900e-01 1.790862e+03 
1.105400e-01 1.757694e+03 
1.116900e-01 1.727599e+03 
1.129600e-01 1.696054e+03 
1.142000e-01 1.668170e+03 
1.153300e-01 1.644219e+03 
1.166400e-01 1.618418e+03 
1.177800e-01 1.597551e+03 
1.190000e-01 1.576233e+03 
1.201200e-01 1.557832e+03 
1.213400e-01 1.538387e+03 
1.227100e-01 1.517423e+03 
1.238900e-01 1.499762e+03 
1.250700e-01 1.482263e+03 
1.263200e-01 1.463920e+03 
1.275500e-01 1.445760e+03 
1.287500e-01 1.428027e+03 
1.299900e-01 1.409447e+03 
1.311300e-01 1.392228e+03 
1.323500e-01 1.373425e+03 
1.335900e-01 1.354178e+03 
1.347100e-01 1.336419e+03 
1.359800e-01 1.316279e+03 
1.372100e-01 1.296327e+03 
1.384300e-01 1.276680e+03 
1.395700e-01 1.257987e+03 
1.407700e-01 1.238670e+03 
1.420300e-01 1.218131e+03 
1.432800e-01 1.198231e+03 
1.444500e-01 1.179687e+03 
1.456300e-01 1.161390e+03 
1.468900e-01 1.142390e+03 
1.480500e-01 1.125312e+03 
1.491700e-01 1.109360e+03 
1.503800e-01 1.092735e+03 
1.516400e-01 1.075941e+03 
1.528200e-01 1.061162e+03 
1.540200e-01 1.046436e+03 
1.551900e-01 1.033024e+03 
1.564300e-01 1.019252e+03 
1.576600e-01 1.006212e+03 
1.588700e-01 9.940531e+02 
1.600900e-01 9.820578e+02 
1.612700e-01 9.712168e+02 
1.625400e-01 9.597686e+02 
1.637600e-01 9.491542e+02 
1.649500e-01 9.390910e+02 
1.662200e-01 9.285484e+02 
1.674000e-01 9.189286e+02 
1.685000e-01 9.101118e+02 
1.697500e-01 9.001402e+02 
1.710300e-01 8.899927e+02 
1.722200e-01 8.807277e+02 
1.734400e-01 8.710196e+02 
1.746400e-01 8.616219e+02 
1.758700e-01 8.520224e+02 
1.770900e-01 8.423934e+02 
1.782700e-01 8.332402e+02 
1.794600e-01 8.239578e+02 
1.807000e-01 8.143133e+02 
1.819100e-01 8.050659e+02 
1.830100e-01 7.966219e+02 
1.842200e-01 7.874551e+02 
1.855000e-01 7.779244e+02 
1.867000e-01 7.690741e+02 
1.879200e-01 7.602278e+02 
1.890900e-01 7.518916e+02 
1.902800e-01 7.435887e+02 
1.915200e-01 7.350803e+02 
1.926900e-01 7.272168e+02 
1.939000e-01 7.193235e+02 
1.951700e-01 7.111757e+02 
1.963100e-01 7.040265e+02 
1.975100e-01 6.967448e+02 
1.987800e-01 6.891619e+02 
2.000100e-01 6.819902e+02 
2.012500e-01 6.749992e+02 
2.023400e-01 6.689446e+02 
2.036100e-01 6.620242e+02 
2.048900e-01 6.552736e+02 
2.060400e-01 6.492997e+02 
2.072200e-01 6.432644e+02 
2.084200e-01 6.372957e+02 
2.096900e-01 6.310732e+02 
2.109200e-01 6.251375e+02 
2.121100e-01 6.195007e+02 
2.132700e-01 6.140841e+02 
2.145200e-01 6.083304e+02 
2.157200e-01 6.028704e+02 
2.168800e-01 5.976580e+02 
2.180700e-01 5.923840e+02 
2.193400e-01 5.868140e+02 
2.206000e-01 5.813282e+02 
2.217500e-01 5.763907e+02 
2.229500e-01 5.713079e+02 
2.241400e-01 5.662554e+02 
2.253500e-01 5.611861e+02 
2.264900e-01 5.564735e+02 
2.277100e-01 5.514562e+02 
2.289900e-01 5.462204e+02 
2.301500e-01 5.415404e+02 
2.313600e-01 5.367224e+02 
2.325600e-01 5.319307e+02 
2.337700e-01 5.271636e+02 
2.350000e-01 5.223831e+02 
2.362000e-01 5.177544e+02 
2.374100e-01 5.131169e+02 
2.386500e-01 5.084281e+02 
2.399100e-01 5.037284e+02 
2.410400e-01 4.995432e+02 
2.422500e-01 4.951152e+02 
2.435000e-01 4.906012e+02 
2.447300e-01 4.862176e+02 
2.458700e-01 4.822025e+02 
2.470600e-01 4.780631e+02 
2.483300e-01 4.737028e+02 
2.495600e-01 4.695442e+02 
2.507600e-01 4.655507e+02 
2.519600e-01 4.616070e+02 
2.532200e-01 4.575188e+02 
2.543700e-01 4.538574e+02 
2.555500e-01 4.501611e+02 
2.568000e-01 4.462940e+02 
2.580100e-01 4.425973e+02 
2.592400e-01 4.389193e+02 
2.604100e-01 4.354775e+02 
2.616100e-01 4.319891e+02 
2.628400e-01 4.284564e+02 
2.640600e-01 4.250334e+02 
2.652200e-01 4.218318e+02 
2.664300e-01 4.185308e+02 
2.676500e-01 4.152416e+02 
2.688400e-01 4.120976e+02 
2.700700e-01 4.089024e+02 
2.712400e-01 4.058979e+02 
2.724800e-01 4.027499e+02 
2.736700e-01 3.997821e+02 
2.748800e-01 3.968175e+02 
2.761000e-01 3.938622e+02 
2.773200e-01 3.909404e+02 
2.785400e-01 3.880593e+02 
2.797000e-01 3.853661e+02 
2.808900e-01 3.826329e+02 
2.821400e-01 3.797939e+02 
2.833900e-01 3.769875e+02 
2.845500e-01 3.744240e+02 
2.857800e-01 3.717349e+02 
2.870300e-01 3.690324e+02 
2.882100e-01 3.665088e+02 
2.893900e-01 3.640171e+02 
2.906300e-01 3.614296e+02 
2.918900e-01 3.588292e+02 
2.930500e-01 3.564605e+02 
2.942500e-01 3.540357e+02 
2.954200e-01 3.516968e+02 
2.966500e-01 3.492634e+02 
2.978900e-01 3.468364e+02 
2.990400e-01 3.446086e+02 
3.002700e-01 3.422495e+02 
3.015100e-01 3.398959e+02 
3.026800e-01 3.376979e+02 
3.038500e-01 3.355217e+02 
3.050300e-01 3.333485e+02 
3.062600e-01 3.311031e+02 
3.075000e-01 3.288628e+02 
3.087000e-01 3.267167e+02 
3.099100e-01 3.245745e+02 
3.111200e-01 3.224533e+02 
3.123100e-01 3.203874e+02 
3.135300e-01 3.182903e+02 
3.147300e-01 3.162480e+02 
3.159900e-01 3.141250e+02 
3.171800e-01 3.121401e+02 
3.183700e-01 3.101744e+02 
3.196300e-01 3.081135e+02 
3.208400e-01 3.061540e+02 
3.220300e-01 3.042455e+02 
3.232000e-01 3.023883e+02 
3.244300e-01 3.004552e+02 
3.256700e-01 2.985254e+02 
3.269200e-01 2.965991e+02 
3.280800e-01 2.948284e+02 
3.292500e-01 2.930624e+02 
3.304800e-01 2.912245e+02 
3.317100e-01 2.894041e+02 
3.328900e-01 2.876740e+02 
3.340700e-01 2.859596e+02 
3.353600e-01 2.841082e+02 
3.365300e-01 2.824466e+02 
3.377100e-01 2.807859e+02 
3.389200e-01 2.790985e+02 
3.401600e-01 2.773852e+02 
3.413700e-01 2.757346e+02 
3.425300e-01 2.741704e+02 
3.437700e-01 2.725133e+02 
3.449800e-01 2.709110e+02 
3.461800e-01 2.693362e+02 
3.473600e-01 2.678042e+02 
3.485800e-01 2.662414e+02 
3.498100e-01 2.646799e+02 
3.510200e-01 2.631576e+02 
3.522000e-01 2.616859e+02 
3.533900e-01 2.602145e+02 
3.546400e-01 2.586937e+02 
3.558400e-01 2.572473e+02 
3.570600e-01 2.557895e+02 
3.582700e-01 2.543562e+02 
3.595000e-01 2.529119e+02 
3.607100e-01 2.515100e+02 
3.618900e-01 2.501596e+02 
3.631200e-01 2.487639e+02 
3.643200e-01 2.474139e+02 
3.655500e-01 2.460419e+02 
3.667300e-01 2.447367e+02 
3.679500e-01 2.434109e+02 
3.691900e-01 2.420749e+02 
3.703600e-01 2.408248e+02 
3.715700e-01 2.395424e+02 
3.727700e-01 2.382812e+02 
3.739900e-01 2.370136e+02 
3.752000e-01 2.357743e+02 
3.763900e-01 2.345653e+02 
3.775800e-01 2.333660e+02 
3.788200e-01 2.321266e+02 
3.800300e-01 2.309270e+02 
3.812100e-01 2.297730e+02 
3.824200e-01 2.286033e+02 
3.836100e-01 2.274622e+02 
3.848600e-01 2.262731e+02 
3.860400e-01 2.251596e+02 
3.872400e-01 2.240361e+02 
3.884600e-01 2.229106e+02 
3.896500e-01 2.218244e+02 
3.908700e-01 2.207195e+02 
3.920600e-01 2.196502e+02 
3.933100e-01 2.185358e+02 
3.945300e-01 2.174567e+02 
3.957200e-01 2.164204e+02 
3.969300e-01 2.153770e+02 
3.981700e-01 2.143160e+02 
3.993500e-01 2.133141e+02 
4.094840e-01 2.050477e+02 
4.272360e-01 1.919545e+02 
4.454600e-01 1.800196e+02 
4.630560e-01 1.697041e+02 
4.804610e-01 1.604873e+02 
4.980690e-01 1.520180e+02 
5.159230e-01 1.441888e+02 
5.317440e-01 1.378141e+02 
5.489640e-01 1.314090e+02 
5.671990e-01 1.251708e+02 
5.838690e-01 1.199046e+02 
6.018840e-01 1.146389e+02 
6.202330e-01 1.096884e+02 
6.379250e-01 1.052642e+02 
6.545410e-01 1.014022e+02 
6.714560e-01 9.772889e+01 
6.892080e-01 9.413209e+01 
7.066010e-01 9.084594e+01 
7.240540e-01 8.775741e+01 
7.420450e-01 8.478240e+01 
7.593780e-01 8.209695e+01 
7.764720e-01 7.960440e+01 
7.942840e-01 7.716086e+01 
8.116170e-01 7.492313e+01 
8.288310e-01 7.282595e+01 
8.462240e-01 7.082269e+01 
8.631980e-01 6.897117e+01 
8.810700e-01 6.712376e+01 
8.989410e-01 6.537287e+01 
9.166330e-01 6.372791e+01 
9.345640e-01 6.214461e+01 
9.515980e-01 6.071178e+01 
9.688720e-01 5.932485e+01 
9.865640e-01 5.797007e+01 
1.031870e+00 5.476316e+01 
1.063490e+00 5.272617e+01 
1.097920e+00 5.067403e+01 
1.134370e+00 4.866315e+01 
1.167730e+00 4.695476e+01 
1.203830e+00 4.523081e+01 
1.240470e+00 4.360030e+01 
1.275790e+00 4.212999e+01 
1.309140e+00 4.082553e+01 
1.342970e+00 3.957423e+01 
1.378420e+00 3.833770e+01 
1.413200e+00 3.719119e+01 
1.448110e+00 3.610036e+01 
1.484090e+00 3.503470e+01 
1.518820e+00 3.405778e+01 
1.552880e+00 3.314485e+01 
1.588630e+00 3.223123e+01 
1.623230e+00 3.138794e+01 
1.657720e+00 3.058460e+01 
1.692450e+00 2.981073e+01 
1.726400e+00 2.908525e+01 
1.762200e+00 2.835115e+01 
1.797880e+00 2.765024e+01 
1.833270e+00 2.698337e+01 
1.869070e+00 2.633504e+01 
1.903200e+00 2.574055e+01 
1.937740e+00 2.516112e+01 
1.973190e+00 2.458800e+01 
2.007440e+00 2.405423e+01 
2.042160e+00 2.353177e+01 
2.077900e+00 2.301257e+01 
2.112390e+00 2.252906e+01 
2.146220e+00 2.206963e+01 
2.181600e+00 2.160509e+01 
2.216930e+00 2.115608e+01 
2.250760e+00 2.073979e+01 
2.286500e+00 2.031392e+01 
2.321770e+00 1.990690e+01 
2.355950e+00 1.952429e+01 
2.391280e+00 1.913997e+01 
2.426240e+00 1.877095e+01 
2.460670e+00 1.841835e+01 
2.495640e+00 1.807090e+01 
2.531080e+00 1.772805e+01 
2.566220e+00 1.739758e+01 
2.600830e+00 1.708126e+01 
2.635080e+00 1.677694e+01 
2.670340e+00 1.647138e+01 
2.705970e+00 1.617108e+01 
2.740040e+00 1.589168e+01 
2.774520e+00 1.561580e+01 
2.809730e+00 1.534104e+01 
2.844390e+00 1.507773e+01 
2.879960e+00 1.481432e+01 
2.914860e+00 1.456200e+01 
2.949410e+00 1.431859e+01 
2.984440e+00 1.407743e+01 
3.019760e+00 1.384018e+01 
3.054730e+00 1.361127e+01 
3.089030e+00 1.339125e+01 
3.124060e+00 1.317211e+01 
3.159560e+00 1.295528e+01 
3.194710e+00 1.274532e+01 
3.229010e+00 1.254545e+01 
3.263320e+00 1.234910e+01 
3.297930e+00 1.215577e+01 
3.332830e+00 1.196503e+01 
3.368040e+00 1.177681e+01 
3.403300e+00 1.159261e+01 
3.438450e+00 1.141266e+01 
3.473060e+00 1.123968e+01 
3.508440e+00 1.106590e+01 
3.543110e+00 1.089965e+01 
3.577470e+00 1.073793e+01 
3.613040e+00 1.057427e+01 
3.648120e+00 1.041591e+01 
3.682910e+00 1.026226e+01 
3.718050e+00 1.011007e+01 
3.753320e+00 9.960493e+00 
3.787980e+00 9.816296e+00 
3.822290e+00 9.676461e+00 
3.857020e+00 9.537584e+00 
3.891920e+00 9.400849e+00 
3.926650e+00 9.267224e+00 
3.961970e+00 9.134128e+00 
3.997360e+00 9.003157e+00 
4.031670e+00 8.878835e+00 
4.066330e+00 8.755356e+00 
4.101420e+00 8.633023e+00 
4.136200e+00 8.513560e+00 
4.170810e+00 8.397206e+00 
4.206250e+00 8.280055e+00 
4.241580e+00 8.165661e+00 
4.276300e+00 8.055180e+00 
4.310970e+00 7.946901e+00 
4.346120e+00 7.839152e+00 
4.380600e+00 7.735225e+00 
4.414730e+00 7.634394e+00 
4.450350e+00 7.530751e+00 
4.485320e+00 7.431063e+00 
4.519810e+00 7.334328e+00 
4.555430e+00 7.236245e+00 
4.590870e+00 7.140448e+00 
4.625480e+00 7.048390e+00 
4.659910e+00 6.958569e+00 
4.695230e+00 6.867857e+00 
4.729960e+00 6.780322e+00 
4.764450e+00 6.694881e+00 
4.799530e+00 6.609361e+00 
4.834910e+00 6.524747e+00 
4.869700e+00 6.442782e+00 
4.904370e+00 6.362557e+00 
4.939450e+00 6.282798e+00 
4.973940e+00 6.205605e+00 
5.008430e+00 6.129802e+00 
5.043810e+00 6.053250e+00 
5.078840e+00 5.978715e+00 
5.113500e+00 5.906285e+00 
5.148890e+00 5.833375e+00 
5.184210e+00 5.761901e+00 
5.219060e+00 5.692578e+00 
5.253660e+00 5.624813e+00 
5.288570e+00 5.557626e+00 
5.323420e+00 5.491601e+00 
5.358440e+00 5.426271e+00 
5.393590e+00 5.361826e+00 
5.428310e+00 5.299152e+00 
5.462800e+00 5.237885e+00 
5.497640e+00 5.177029e+00 
5.532670e+00 5.116749e+00 
5.567280e+00 5.058143e+00 
5.602000e+00 5.000317e+00 
5.637270e+00 4.942434e+00 
5.672410e+00 4.885692e+00 
5.707020e+00 4.830714e+00 
5.742040e+00 4.775917e+00 
5.777430e+00 4.721427e+00 
5.812210e+00 4.668738e+00 
5.846820e+00 4.617054e+00 
5.881610e+00 4.565897e+00 
5.916510e+00 4.515387e+00 
5.951600e+00 4.465357e+00 
5.986560e+00 4.416273e+00 
6.021830e+00 4.367527e+00 
6.056490e+00 4.320338e+00 
6.091160e+00 4.273834e+00 
6.125830e+00 4.228036e+00 
6.161090e+00 4.182160e+00 
6.195760e+00 4.137719e+00 
6.230420e+00 4.093954e+00 
6.265690e+00 4.050087e+00 
6.300950e+00 4.006874e+00 
6.335620e+00 3.965015e+00 
6.370880e+00 3.923074e+00 
6.405550e+00 3.882434e+00 
6.440220e+00 3.842381e+00 
6.475480e+00 3.802240e+00 
6.510150e+00 3.763349e+00 
6.544810e+00 3.725037e+00 
6.580080e+00 3.686610e+00 
6.614750e+00 3.649376e+00 
6.649410e+00 3.612686e+00 
6.684080e+00 3.576503e+00 
6.719340e+00 3.540221e+00 
6.754010e+00 3.505059e+00 
6.788680e+00 3.470412e+00 
6.823940e+00 3.435663e+00 
6.859800e+00 3.400821e+00 
6.894470e+00 3.367626e+00 
6.929140e+00 3.334891e+00 
6.963800e+00 3.302607e+00 
6.999070e+00 3.270204e+00 
7.033730e+00 3.238836e+00 
7.068400e+00 3.207877e+00 
7.103660e+00 3.176813e+00 
7.138330e+00 3.146689e+00 
7.173600e+00 3.116480e+00 
7.208260e+00 3.087184e+00 
7.243530e+00 3.057765e+00 
7.277600e+00 3.029742e+00 
7.312860e+00 3.001140e+00 
7.348120e+00 2.972911e+00 
7.382790e+00 2.945512e+00 
7.417460e+00 2.918505e+00 
7.452720e+00 2.891410e+00 
7.487390e+00 2.865108e+00 
7.522650e+00 2.838698e+00 
7.557320e+00 2.813108e+00 
7.591990e+00 2.787856e+00 
7.627250e+00 2.762495e+00 
7.662510e+00 2.737453e+00 
7.697180e+00 2.713188e+00 
7.731850e+00 2.689241e+00 
7.766510e+00 2.665593e+00 
7.801180e+00 2.642224e+00 
7.836440e+00 2.618786e+00 
7.871110e+00 2.596044e+00 
7.906380e+00 2.573187e+00 
7.941040e+00 2.550996e+00 
7.976310e+00 2.528716e+00 
8.011570e+00 2.506746e+00 
8.046240e+00 2.485400e+00 
8.080900e+00 2.464311e+00 
8.115570e+00 2.443479e+00 
8.150830e+00 2.422610e+00 
8.185500e+00 2.402328e+00 
8.220770e+00 2.381936e+00 
8.255430e+00 2.362129e+00 
8.290100e+00 2.342607e+00 
8.324770e+00 2.323314e+00 
8.359430e+00 2.304246e+00 
8.394700e+00 2.285064e+00 
8.429960e+00 2.266144e+00 
8.464630e+00 2.247789e+00 
8.499890e+00 2.229332e+00 
8.534560e+00 2.211387e+00 
8.569200e+00 2.193656e+00 
