# Parameters:
# omega_b = 0.022287, omega_m = 0.123031, n_s = 0.857874, h = 84.055118, w = -1.000000, sigma_8 = 0.747244
# z = 1.700000
#
# k[1/Mpc] # P(k):
8.694000e-04 6.984058e+03 
2.077466e-03 1.332486e+04 
3.285532e-03 1.768354e+04 
4.493598e-03 2.064454e+04 
5.701664e-03 2.254509e+04 
6.909730e-03 2.363688e+04 
8.117797e-03 2.414591e+04 
9.325863e-03 2.418781e+04 
1.053393e-02 2.386634e+04 
1.174199e-02 2.326931e+04 
1.295006e-02 2.245299e+04 
1.415813e-02 2.148685e+04 
1.536619e-02 2.042645e+04 
1.657426e-02 1.930828e+04 
1.778233e-02 1.816508e+04 
1.899039e-02 1.704263e+04 
2.019846e-02 1.596341e+04 
2.140652e-02 1.494460e+04 
2.261459e-02 1.399484e+04 
2.382266e-02 1.312340e+04 
2.503072e-02 1.233449e+04 
2.623879e-02 1.162648e+04 
2.744685e-02 1.099760e+04 
2.865492e-02 1.044261e+04 
2.986299e-02 9.954483e+03 
3.100100e-02 9.552451e+03 
3.220400e-02 9.180520e+03 
3.288100e-02 8.994061e+03 
3.424300e-02 8.659192e+03 
3.555100e-02 8.379426e+03 
3.686000e-02 8.132828e+03 
3.795000e-02 7.946595e+03 
3.929100e-02 7.735264e+03 
4.039800e-02 7.569196e+03 
4.164000e-02 7.388060e+03 
4.294400e-02 7.194799e+03 
4.415000e-02 7.014620e+03 
4.542900e-02 6.813134e+03 
4.660900e-02 6.622640e+03 
4.782300e-02 6.412695e+03 
4.892900e-02 6.216665e+03 
5.031200e-02 5.963150e+03 
5.155900e-02 5.727805e+03 
5.238100e-02 5.571180e+03 
5.378200e-02 5.304019e+03 
5.513400e-02 5.047574e+03 
5.627600e-02 4.834357e+03 
5.735300e-02 4.637818e+03 
5.870100e-02 4.399465e+03 
5.988700e-02 4.198725e+03 
6.113500e-02 3.997988e+03 
6.225900e-02 3.828643e+03 
6.340100e-02 3.669574e+03 
6.480200e-02 3.492706e+03 
6.601100e-02 3.359304e+03 
6.725500e-02 3.239670e+03 
6.829100e-02 3.154380e+03 
6.958600e-02 3.061309e+03 
7.071100e-02 2.992980e+03 
7.192300e-02 2.929653e+03 
7.307400e-02 2.877814e+03 
7.412300e-02 2.836259e+03 
7.550400e-02 2.788621e+03 
7.663100e-02 2.753482e+03 
7.791200e-02 2.716702e+03 
7.912700e-02 2.682734e+03 
8.027600e-02 2.650330e+03 
8.138400e-02 2.618213e+03 
8.272200e-02 2.577278e+03 
8.406100e-02 2.533229e+03 
8.534100e-02 2.486520e+03 
8.653800e-02 2.438738e+03 
8.759800e-02 2.394144e+03 
8.900300e-02 2.331407e+03 
9.009000e-02 2.279939e+03 
9.113300e-02 2.228220e+03 
9.239600e-02 2.164587e+03 
9.358000e-02 2.103613e+03 
9.496100e-02 2.031364e+03 
9.608400e-02 1.973299e+03 
9.727500e-02 1.912837e+03 
9.852600e-02 1.850591e+03 
9.973800e-02 1.792871e+03 
1.009000e-01 1.739808e+03 
1.020900e-01 1.689395e+03 
1.034000e-01 1.637431e+03 
1.046000e-01 1.593154e+03 
1.057200e-01 1.556654e+03 
1.069100e-01 1.520432e+03 
1.082500e-01 1.485097e+03 
1.093900e-01 1.458682e+03 
1.105400e-01 1.434331e+03 
1.116900e-01 1.414229e+03 
1.129600e-01 1.393777e+03 
1.142000e-01 1.377130e+03 
1.153300e-01 1.363110e+03 
1.166400e-01 1.348471e+03 
1.177800e-01 1.336401e+03 
1.190000e-01 1.323969e+03 
1.201200e-01 1.311997e+03 
1.213400e-01 1.299121e+03 
1.227100e-01 1.282508e+03 
1.238900e-01 1.267872e+03 
1.250700e-01 1.251289e+03 
1.263200e-01 1.233143e+03 
1.275500e-01 1.213508e+03 
1.287500e-01 1.193701e+03 
1.299900e-01 1.171979e+03 
1.311300e-01 1.151640e+03 
1.323500e-01 1.129123e+03 
1.335900e-01 1.106280e+03 
1.347100e-01 1.085440e+03 
1.359800e-01 1.062228e+03 
1.372100e-01 1.039976e+03 
1.384300e-01 1.018536e+03 
1.395700e-01 9.991199e+02 
1.407700e-01 9.792521e+02 
1.420300e-01 9.595827e+02 
1.432800e-01 9.405695e+02 
1.444500e-01 9.242141e+02 
1.456300e-01 9.080974e+02 
1.468900e-01 8.922217e+02 
1.480500e-01 8.782112e+02 
1.491700e-01 8.654621e+02 
1.503800e-01 8.526061e+02 
1.516400e-01 8.397060e+02 
1.528200e-01 8.287427e+02 
1.540200e-01 8.178154e+02 
1.551900e-01 8.080112e+02 
1.564300e-01 7.979782e+02 
1.576600e-01 7.884474e+02 
1.588700e-01 7.795225e+02 
1.600900e-01 7.707014e+02 
1.612700e-01 7.624618e+02 
1.625400e-01 7.537599e+02 
1.637600e-01 7.454318e+02 
1.649500e-01 7.373826e+02 
1.662200e-01 7.288789e+02 
1.674000e-01 7.207224e+02 
1.685000e-01 7.132490e+02 
1.697500e-01 7.045901e+02 
1.710300e-01 6.955775e+02 
1.722200e-01 6.873538e+02 
1.734400e-01 6.784535e+02 
1.746400e-01 6.698342e+02 
1.758700e-01 6.609992e+02 
1.770900e-01 6.520686e+02 
1.782700e-01 6.435892e+02 
1.794600e-01 6.350131e+02 
1.807000e-01 6.261223e+02 
1.819100e-01 6.176087e+02 
1.830100e-01 6.099591e+02 
1.842200e-01 6.016837e+02 
1.855000e-01 5.930996e+02 
1.867000e-01 5.853408e+02 
1.879200e-01 5.775933e+02 
1.890900e-01 5.703366e+02 
1.902800e-01 5.633053e+02 
1.915200e-01 5.561054e+02 
1.926900e-01 5.495040e+02 
1.939000e-01 5.430376e+02 
1.951700e-01 5.363660e+02 
1.963100e-01 5.305536e+02 
1.975100e-01 5.247395e+02 
1.987800e-01 5.186870e+02 
2.000100e-01 5.129851e+02 
2.012500e-01 5.074767e+02 
2.023400e-01 5.027073e+02 
2.036100e-01 4.972559e+02 
2.048900e-01 4.919352e+02 
2.060400e-01 4.872278e+02 
2.072200e-01 4.824685e+02 
2.084200e-01 4.777078e+02 
2.096900e-01 4.727461e+02 
2.109200e-01 4.680143e+02 
2.121100e-01 4.634443e+02 
2.132700e-01 4.590502e+02 
2.145200e-01 4.543844e+02 
2.157200e-01 4.499072e+02 
2.168800e-01 4.456114e+02 
2.180700e-01 4.412667e+02 
2.193400e-01 4.366644e+02 
2.206000e-01 4.321046e+02 
2.217500e-01 4.280028e+02 
2.229500e-01 4.237824e+02 
2.241400e-01 4.195837e+02 
2.253500e-01 4.153732e+02 
2.264900e-01 4.114612e+02 
2.277100e-01 4.073159e+02 
2.289900e-01 4.030117e+02 
2.301500e-01 3.991666e+02 
2.313600e-01 3.952108e+02 
2.325600e-01 3.913404e+02 
2.337700e-01 3.874919e+02 
2.350000e-01 3.836344e+02 
2.362000e-01 3.799346e+02 
2.374100e-01 3.762685e+02 
2.386500e-01 3.725634e+02 
2.399100e-01 3.688511e+02 
2.410400e-01 3.656064e+02 
2.422500e-01 3.621819e+02 
2.435000e-01 3.586920e+02 
2.447300e-01 3.553142e+02 
2.458700e-01 3.522629e+02 
2.470600e-01 3.491177e+02 
2.483300e-01 3.458052e+02 
2.495600e-01 3.426604e+02 
2.507600e-01 3.396599e+02 
2.519600e-01 3.366971e+02 
2.532200e-01 3.336263e+02 
2.543700e-01 3.308819e+02 
2.555500e-01 3.281157e+02 
2.568000e-01 3.252220e+02 
2.580100e-01 3.224560e+02 
2.592400e-01 3.196977e+02 
2.604100e-01 3.171139e+02 
2.616100e-01 3.144955e+02 
2.628400e-01 3.118442e+02 
2.640600e-01 3.092591e+02 
2.652200e-01 3.068350e+02 
2.664300e-01 3.043360e+02 
2.676500e-01 3.018464e+02 
2.688400e-01 2.994495e+02 
2.700700e-01 2.970031e+02 
2.712400e-01 2.947030e+02 
2.724800e-01 2.922937e+02 
2.736700e-01 2.900087e+02 
2.748800e-01 2.877121e+02 
2.761000e-01 2.854233e+02 
2.773200e-01 2.831611e+02 
2.785400e-01 2.809236e+02 
2.797000e-01 2.788170e+02 
2.808900e-01 2.766799e+02 
2.821400e-01 2.744605e+02 
2.833900e-01 2.722667e+02 
2.845500e-01 2.702461e+02 
2.857800e-01 2.681273e+02 
2.870300e-01 2.659986e+02 
2.882100e-01 2.640115e+02 
2.893900e-01 2.620428e+02 
2.906300e-01 2.599953e+02 
2.918900e-01 2.579383e+02 
2.930500e-01 2.560653e+02 
2.942500e-01 2.541475e+02 
2.954200e-01 2.522948e+02 
2.966500e-01 2.503681e+02 
2.978900e-01 2.484471e+02 
2.990400e-01 2.466844e+02 
3.002700e-01 2.448188e+02 
3.015100e-01 2.429585e+02 
3.026800e-01 2.412218e+02 
3.038500e-01 2.395029e+02 
3.050300e-01 2.377870e+02 
3.062600e-01 2.360182e+02 
3.075000e-01 2.342541e+02 
3.087000e-01 2.325649e+02 
3.099100e-01 2.308792e+02 
3.111200e-01 2.292128e+02 
3.123100e-01 2.275939e+02 
3.135300e-01 2.259512e+02 
3.147300e-01 2.243520e+02 
3.159900e-01 2.226902e+02 
3.171800e-01 2.211411e+02 
3.183700e-01 2.196102e+02 
3.196300e-01 2.180058e+02 
3.208400e-01 2.164808e+02 
3.220300e-01 2.149959e+02 
3.232000e-01 2.135556e+02 
3.244300e-01 2.120586e+02 
3.256700e-01 2.105646e+02 
3.269200e-01 2.090738e+02 
3.280800e-01 2.077039e+02 
3.292500e-01 2.063421e+02 
3.304800e-01 2.049265e+02 
3.317100e-01 2.035248e+02 
3.328900e-01 2.021930e+02 
3.340700e-01 2.008737e+02 
3.353600e-01 1.994525e+02 
3.365300e-01 1.981785e+02 
3.377100e-01 1.969055e+02 
3.389200e-01 1.956124e+02 
3.401600e-01 1.942999e+02 
3.413700e-01 1.930371e+02 
3.425300e-01 1.918417e+02 
3.437700e-01 1.905756e+02 
3.449800e-01 1.893518e+02 
3.461800e-01 1.881493e+02 
3.473600e-01 1.869800e+02 
3.485800e-01 1.857880e+02 
3.498100e-01 1.845974e+02 
3.510200e-01 1.834368e+02 
3.522000e-01 1.823152e+02 
3.533900e-01 1.811941e+02 
3.546400e-01 1.800350e+02 
3.558400e-01 1.789328e+02 
3.570600e-01 1.778222e+02 
3.582700e-01 1.767306e+02 
3.595000e-01 1.756309e+02 
3.607100e-01 1.745625e+02 
3.618900e-01 1.735327e+02 
3.631200e-01 1.724686e+02 
3.643200e-01 1.714396e+02 
3.655500e-01 1.703942e+02 
3.667300e-01 1.693999e+02 
3.679500e-01 1.683876e+02 
3.691900e-01 1.673676e+02 
3.703600e-01 1.664135e+02 
3.715700e-01 1.654351e+02 
3.727700e-01 1.644730e+02 
3.739900e-01 1.635050e+02 
3.752000e-01 1.625562e+02 
3.763900e-01 1.616310e+02 
3.775800e-01 1.607134e+02 
3.788200e-01 1.597653e+02 
3.800300e-01 1.588480e+02 
3.812100e-01 1.579636e+02 
3.824200e-01 1.570660e+02 
3.836100e-01 1.561905e+02 
3.848600e-01 1.552786e+02 
3.860400e-01 1.544248e+02 
3.872400e-01 1.535636e+02 
3.884600e-01 1.526983e+02 
3.896500e-01 1.518624e+02 
3.908700e-01 1.510123e+02 
3.920600e-01 1.501898e+02 
3.933100e-01 1.493329e+02 
3.945300e-01 1.485034e+02 
3.957200e-01 1.477036e+02 
3.969300e-01 1.468976e+02 
3.981700e-01 1.460783e+02 
3.993500e-01 1.453048e+02 
4.094840e-01 1.389214e+02 
4.272360e-01 1.287700e+02 
4.454600e-01 1.195309e+02 
4.630560e-01 1.115867e+02 
4.804610e-01 1.045507e+02 
4.980690e-01 9.815705e+01 
5.159230e-01 9.232209e+01 
5.317440e-01 8.762744e+01 
5.489640e-01 8.297045e+01 
5.671990e-01 7.849154e+01 
5.838690e-01 7.474948e+01 
6.018840e-01 7.104250e+01 
6.202330e-01 6.758988e+01 
6.379250e-01 6.452470e+01 
6.545410e-01 6.186704e+01 
6.714560e-01 5.934967e+01 
6.892080e-01 5.689633e+01 
7.066010e-01 5.466221e+01 
7.240540e-01 5.257006e+01 
7.420450e-01 5.055949e+01 
7.593780e-01 4.874891e+01 
7.764720e-01 4.707222e+01 
7.942840e-01 4.543181e+01 
8.116170e-01 4.393226e+01 
8.288310e-01 4.252999e+01 
8.462240e-01 4.119269e+01 
8.631980e-01 3.995965e+01 
8.810700e-01 3.873204e+01 
8.989410e-01 3.757144e+01 
9.166330e-01 3.648376e+01 
9.345640e-01 3.543926e+01 
9.515980e-01 3.449665e+01 
9.688720e-01 3.358718e+01 
9.865640e-01 3.270127e+01 
1.031870e+00 3.061692e+01 
1.063490e+00 2.930338e+01 
1.097920e+00 2.798841e+01 
1.134370e+00 2.671032e+01 
1.167730e+00 2.563254e+01 
1.203830e+00 2.455487e+01 
1.240470e+00 2.354345e+01 
1.275790e+00 2.263955e+01 
1.309140e+00 2.184311e+01 
1.342970e+00 2.108701e+01 
1.378420e+00 2.034462e+01 
1.413200e+00 1.966211e+01 
1.448110e+00 1.901785e+01 
1.484090e+00 1.839301e+01 
1.518820e+00 1.782467e+01 
1.552880e+00 1.729773e+01 
1.588630e+00 1.677397e+01 
1.623230e+00 1.629383e+01 
1.657720e+00 1.583931e+01 
1.692450e+00 1.540429e+01 
1.726400e+00 1.499918e+01 
1.762200e+00 1.459185e+01 
1.797880e+00 1.420528e+01 
1.833270e+00 1.383944e+01 
1.869070e+00 1.348585e+01 
1.903200e+00 1.316346e+01 
1.937740e+00 1.285067e+01 
1.973190e+00 1.254274e+01 
2.007440e+00 1.225729e+01 
2.042160e+00 1.197929e+01 
2.077900e+00 1.170428e+01 
2.112390e+00 1.144908e+01 
2.146220e+00 1.120781e+01 
2.181600e+00 1.096475e+01 
2.216930e+00 1.073079e+01 
2.250760e+00 1.051458e+01 
2.286500e+00 1.029409e+01 
2.321770e+00 1.008408e+01 
2.355950e+00 9.887316e+00 
2.391280e+00 9.690516e+00 
2.426240e+00 9.502077e+00 
2.460670e+00 9.322412e+00 
2.495640e+00 9.145714e+00 
2.531080e+00 8.972047e+00 
2.566220e+00 8.805105e+00 
2.600830e+00 8.645662e+00 
2.635080e+00 8.492560e+00 
2.670340e+00 8.339198e+00 
2.705970e+00 8.188789e+00 
2.740040e+00 8.049099e+00 
2.774520e+00 7.911491e+00 
2.809730e+00 7.774726e+00 
2.844390e+00 7.643821e+00 
2.879960e+00 7.513034e+00 
2.914860e+00 7.388012e+00 
2.949410e+00 7.267543e+00 
2.984440e+00 7.148428e+00 
3.019760e+00 7.031396e+00 
3.054730e+00 6.918564e+00 
3.089030e+00 6.810290e+00 
3.124060e+00 6.702492e+00 
3.159560e+00 6.595895e+00 
3.194710e+00 6.492834e+00 
3.229010e+00 6.394770e+00 
3.263320e+00 6.298553e+00 
3.297930e+00 6.203851e+00 
3.332830e+00 6.110503e+00 
3.368040e+00 6.018405e+00 
3.403300e+00 5.928288e+00 
3.438450e+00 5.840335e+00 
3.473060e+00 5.755797e+00 
3.508440e+00 5.670932e+00 
3.543110e+00 5.589724e+00 
3.577470e+00 5.510710e+00 
3.613040e+00 5.430763e+00 
3.648120e+00 5.353477e+00 
3.682910e+00 5.278453e+00 
3.718050e+00 5.204090e+00 
3.753320e+00 5.131025e+00 
3.787980e+00 5.060620e+00 
3.822290e+00 4.992315e+00 
3.857020e+00 4.924440e+00 
3.891920e+00 4.857601e+00 
3.926650e+00 4.792277e+00 
3.961970e+00 4.727179e+00 
3.997360e+00 4.663073e+00 
4.031670e+00 4.602204e+00 
4.066330e+00 4.541738e+00 
4.101420e+00 4.481812e+00 
4.136200e+00 4.423227e+00 
4.170810e+00 4.366148e+00 
4.206250e+00 4.308634e+00 
4.241580e+00 4.252450e+00 
4.276300e+00 4.198141e+00 
4.310970e+00 4.144882e+00 
4.346120e+00 4.091855e+00 
4.380600e+00 4.040673e+00 
4.414730e+00 3.990997e+00 
4.450350e+00 3.939860e+00 
4.485320e+00 3.890657e+00 
4.519810e+00 3.842843e+00 
4.555430e+00 3.794321e+00 
4.590870e+00 3.746910e+00 
4.625480e+00 3.701327e+00 
4.659910e+00 3.656835e+00 
4.695230e+00 3.611802e+00 
4.729960e+00 3.568319e+00 
4.764450e+00 3.525837e+00 
4.799530e+00 3.483264e+00 
4.834910e+00 3.441127e+00 
4.869700e+00 3.400251e+00 
4.904370e+00 3.360222e+00 
4.939450e+00 3.320392e+00 
4.973940e+00 3.281783e+00 
5.008430e+00 3.243856e+00 
5.043810e+00 3.205509e+00 
5.078840e+00 3.168140e+00 
5.113500e+00 3.131814e+00 
5.148890e+00 3.095159e+00 
5.184210e+00 3.059211e+00 
5.219060e+00 3.024319e+00 
5.253660e+00 2.990163e+00 
5.288570e+00 2.956285e+00 
5.323420e+00 2.922961e+00 
5.358440e+00 2.889953e+00 
5.393590e+00 2.857380e+00 
5.428310e+00 2.825640e+00 
5.462800e+00 2.794574e+00 
5.497640e+00 2.763707e+00 
5.532670e+00 2.733083e+00 
5.567280e+00 2.703289e+00 
5.602000e+00 2.673882e+00 
5.637270e+00 2.644396e+00 
5.672410e+00 2.615473e+00 
5.707020e+00 2.587442e+00 
5.742040e+00 2.559443e+00 
5.777430e+00 2.531583e+00 
5.812210e+00 2.504635e+00 
5.846820e+00 2.478163e+00 
5.881610e+00 2.451946e+00 
5.916510e+00 2.426053e+00 
5.951600e+00 2.400359e+00 
5.986560e+00 2.375126e+00 
6.021830e+00 2.350060e+00 
6.056490e+00 2.325767e+00 
6.091160e+00 2.301801e+00 
6.125830e+00 2.278193e+00 
6.161090e+00 2.254526e+00 
6.195760e+00 2.231564e+00 
6.230420e+00 2.208946e+00 
6.265690e+00 2.186268e+00 
6.300950e+00 2.163883e+00 
6.335620e+00 2.142195e+00 
6.370880e+00 2.120458e+00 
6.405550e+00 2.099370e+00 
6.440220e+00 2.078573e+00 
6.475480e+00 2.057725e+00 
6.510150e+00 2.037510e+00 
6.544810e+00 2.017564e+00 
6.580080e+00 1.997555e+00 
6.614750e+00 1.978162e+00 
6.649410e+00 1.959029e+00 
6.684080e+00 1.940152e+00 
6.719340e+00 1.921220e+00 
6.754010e+00 1.902857e+00 
6.788680e+00 1.884734e+00 
6.823940e+00 1.866554e+00 
6.859800e+00 1.848321e+00 
6.894470e+00 1.830933e+00 
6.929140e+00 1.813778e+00 
6.963800e+00 1.796856e+00 
6.999070e+00 1.779866e+00 
7.033730e+00 1.763397e+00 
7.068400e+00 1.747140e+00 
7.103660e+00 1.730825e+00 
7.138330e+00 1.714994e+00 
7.173600e+00 1.699103e+00 
7.208260e+00 1.683690e+00 
7.243530e+00 1.668208e+00 
7.277600e+00 1.653452e+00 
7.312860e+00 1.638381e+00 
7.348120e+00 1.623505e+00 
7.382790e+00 1.609063e+00 
7.417460e+00 1.594812e+00 
7.452720e+00 1.580507e+00 
7.487390e+00 1.566617e+00 
7.522650e+00 1.552668e+00 
7.557320e+00 1.539146e+00 
7.591990e+00 1.525799e+00 
7.627250e+00 1.512392e+00 
7.662510e+00 1.499151e+00 
7.697180e+00 1.486311e+00 
7.731850e+00 1.473633e+00 
7.766510e+00 1.461110e+00 
7.801180e+00 1.448734e+00 
7.836440e+00 1.436315e+00 
7.871110e+00 1.424261e+00 
7.906380e+00 1.412144e+00 
7.941040e+00 1.400378e+00 
7.976310e+00 1.388560e+00 
8.011570e+00 1.376901e+00 
8.046240e+00 1.365572e+00 
8.080900e+00 1.354376e+00 
8.115570e+00 1.343316e+00 
8.150830e+00 1.332232e+00 
8.185500e+00 1.321460e+00 
8.220770e+00 1.310626e+00 
8.255430e+00 1.300101e+00 
8.290100e+00 1.289722e+00 
8.324770e+00 1.279463e+00 
8.359430e+00 1.269322e+00 
8.394700e+00 1.259118e+00 
8.429960e+00 1.249052e+00 
8.464630e+00 1.239285e+00 
8.499890e+00 1.229462e+00 
8.534560e+00 1.219910e+00 
8.569200e+00 1.210471e+00 
