# Parameters:
# omega_b = 0.022413, omega_m = 0.131575, n_s = 0.958661, h = 72.952756, w = -1.000000, sigma_8 = 0.700000
# z = 1.700000
#
# k[1/Mpc] # P(k):
8.694000e-04 3.191747e+03 
2.077466e-03 6.734498e+03 
3.285532e-03 9.435984e+03 
4.493598e-03 1.146106e+04 
5.701664e-03 1.292011e+04 
6.909730e-03 1.391393e+04 
8.117797e-03 1.454989e+04 
9.325863e-03 1.488384e+04 
1.053393e-02 1.497026e+04 
1.174199e-02 1.485836e+04 
1.295006e-02 1.457992e+04 
1.415813e-02 1.417650e+04 
1.536619e-02 1.368329e+04 
1.657426e-02 1.312410e+04 
1.778233e-02 1.252072e+04 
1.899039e-02 1.190444e+04 
2.019846e-02 1.129198e+04 
2.140652e-02 1.069746e+04 
2.261459e-02 1.012870e+04 
2.382266e-02 9.594836e+03 
2.503072e-02 9.101742e+03 
2.623879e-02 8.651035e+03 
2.744685e-02 8.243248e+03 
2.865492e-02 7.877860e+03 
2.986299e-02 7.552096e+03 
3.100100e-02 7.280356e+03 
3.220400e-02 7.026385e+03 
3.288100e-02 6.898060e+03 
3.424300e-02 6.666471e+03 
3.555100e-02 6.472247e+03 
3.686000e-02 6.301042e+03 
3.795000e-02 6.172142e+03 
3.929100e-02 6.026984e+03 
4.039800e-02 5.913978e+03 
4.164000e-02 5.791633e+03 
4.294400e-02 5.662430e+03 
4.415000e-02 5.542437e+03 
4.542900e-02 5.408483e+03 
4.660900e-02 5.281555e+03 
4.782300e-02 5.140740e+03 
4.892900e-02 5.008302e+03 
5.031200e-02 4.835263e+03 
5.155900e-02 4.672465e+03 
5.238100e-02 4.562993e+03 
5.378200e-02 4.374305e+03 
5.513400e-02 4.190831e+03 
5.627600e-02 4.036830e+03 
5.735300e-02 3.894128e+03 
5.870100e-02 3.720598e+03 
5.988700e-02 3.574362e+03 
6.113500e-02 3.427975e+03 
6.225900e-02 3.303953e+03 
6.340100e-02 3.186411e+03 
6.480200e-02 3.053796e+03 
6.601100e-02 2.951145e+03 
6.725500e-02 2.856367e+03 
6.829100e-02 2.786402e+03 
6.958600e-02 2.707825e+03 
7.071100e-02 2.648024e+03 
7.192300e-02 2.590949e+03 
7.307400e-02 2.542982e+03 
7.412300e-02 2.503791e+03 
7.550400e-02 2.458186e+03 
7.663100e-02 2.424439e+03 
7.791200e-02 2.389562e+03 
7.912700e-02 2.358345e+03 
8.027600e-02 2.329574e+03 
8.138400e-02 2.301997e+03 
8.272200e-02 2.268169e+03 
8.406100e-02 2.233049e+03 
8.534100e-02 2.197015e+03 
8.653800e-02 2.160828e+03 
8.759800e-02 2.127304e+03 
8.900300e-02 2.080350e+03 
9.009000e-02 2.041823e+03 
9.113300e-02 2.002904e+03 
9.239600e-02 1.954724e+03 
9.358000e-02 1.908116e+03 
9.496100e-02 1.852079e+03 
9.608400e-02 1.806472e+03 
9.727500e-02 1.758493e+03 
9.852600e-02 1.707975e+03 
9.973800e-02 1.660519e+03 
1.009000e-01 1.616382e+03 
1.020900e-01 1.573298e+03 
1.034000e-01 1.528287e+03 
1.046000e-01 1.489317e+03 
1.057200e-01 1.456201e+03 
1.069100e-01 1.422957e+03 
1.082500e-01 1.389459e+03 
1.093900e-01 1.363763e+03 
1.105400e-01 1.339661e+03 
1.116900e-01 1.318914e+03 
1.129600e-01 1.297525e+03 
1.142000e-01 1.279488e+03 
1.153300e-01 1.264208e+03 
1.166400e-01 1.248099e+03 
1.177800e-01 1.235077e+03 
1.190000e-01 1.221783e+03 
1.201200e-01 1.209814e+03 
1.213400e-01 1.197078e+03 
1.227100e-01 1.182101e+03 
1.238900e-01 1.169174e+03 
1.250700e-01 1.155346e+03 
1.263200e-01 1.140451e+03 
1.275500e-01 1.124826e+03 
1.287500e-01 1.109195e+03 
1.299900e-01 1.092245e+03 
1.311300e-01 1.076350e+03 
1.323500e-01 1.058723e+03 
1.335900e-01 1.040685e+03 
1.347100e-01 1.024043e+03 
1.359800e-01 1.005306e+03 
1.372100e-01 9.869843e+02 
1.384300e-01 9.691290e+02 
1.395700e-01 9.525327e+02 
1.407700e-01 9.354688e+02 
1.420300e-01 9.179663e+02 
1.432800e-01 9.010314e+02 
1.444500e-01 8.859017e+02 
1.456300e-01 8.709868e+02 
1.468900e-01 8.559527e+02 
1.480500e-01 8.425780e+02 
1.491700e-01 8.302874e+02 
1.503800e-01 8.177363e+02 
1.516400e-01 8.051222e+02 
1.528200e-01 7.943063e+02 
1.540200e-01 7.835280e+02 
1.551900e-01 7.738841e+02 
1.564300e-01 7.640228e+02 
1.576600e-01 7.547216e+02 
1.588700e-01 7.460928e+02 
1.600900e-01 7.375754e+02 
1.612700e-01 7.298233e+02 
1.625400e-01 7.216356e+02 
1.637600e-01 7.139311e+02 
1.649500e-01 7.065594e+02 
1.662200e-01 6.987965e+02 
1.674000e-01 6.914930e+02 
1.685000e-01 6.847994e+02 
1.697500e-01 6.770883e+02 
1.710300e-01 6.691036e+02 
1.722200e-01 6.618146e+02 
1.734400e-01 6.539440e+02 
1.746400e-01 6.463185e+02 
1.758700e-01 6.384840e+02 
1.770900e-01 6.305325e+02 
1.782700e-01 6.229780e+02 
1.794600e-01 6.152884e+02 
1.807000e-01 6.072825e+02 
1.819100e-01 5.996115e+02 
1.830100e-01 5.926385e+02 
1.842200e-01 5.850781e+02 
1.855000e-01 5.772275e+02 
1.867000e-01 5.700329e+02 
1.879200e-01 5.628462e+02 
1.890900e-01 5.560980e+02 
1.902800e-01 5.494840e+02 
1.915200e-01 5.427097e+02 
1.926900e-01 5.364811e+02 
1.939000e-01 5.303269e+02 
1.951700e-01 5.239763e+02 
1.963100e-01 5.184327e+02 
1.975100e-01 5.128593e+02 
1.987800e-01 5.070566e+02 
2.000100e-01 5.015877e+02 
2.012500e-01 4.962995e+02 
2.023400e-01 4.917202e+02 
2.036100e-01 4.864902e+02 
2.048900e-01 4.814025e+02 
2.060400e-01 4.769006e+02 
2.072200e-01 4.723515e+02 
2.084200e-01 4.678345e+02 
2.096900e-01 4.631261e+02 
2.109200e-01 4.586352e+02 
2.121100e-01 4.543346e+02 
2.132700e-01 4.502008e+02 
2.145200e-01 4.458104e+02 
2.157200e-01 4.416184e+02 
2.168800e-01 4.376052e+02 
2.180700e-01 4.335454e+02 
2.193400e-01 4.292506e+02 
2.206000e-01 4.250069e+02 
2.217500e-01 4.211883e+02 
2.229500e-01 4.172582e+02 
2.241400e-01 4.133522e+02 
2.253500e-01 4.094340e+02 
2.264900e-01 4.057926e+02 
2.277100e-01 4.019294e+02 
2.289900e-01 3.979129e+02 
2.301500e-01 3.943236e+02 
2.313600e-01 3.906298e+02 
2.325600e-01 3.869998e+02 
2.337700e-01 3.833891e+02 
2.350000e-01 3.797689e+02 
2.362000e-01 3.762877e+02 
2.374100e-01 3.728280e+02 
2.386500e-01 3.693304e+02 
2.399100e-01 3.658251e+02 
2.410400e-01 3.627450e+02 
2.422500e-01 3.594914e+02 
2.435000e-01 3.561750e+02 
2.447300e-01 3.529613e+02 
2.458700e-01 3.500455e+02 
2.470600e-01 3.470395e+02 
2.483300e-01 3.438730e+02 
2.495600e-01 3.408608e+02 
2.507600e-01 3.379791e+02 
2.519600e-01 3.351332e+02 
2.532200e-01 3.321830e+02 
2.543700e-01 3.295408e+02 
2.555500e-01 3.268736e+02 
2.568000e-01 3.240831e+02 
2.580100e-01 3.214154e+02 
2.592400e-01 3.187509e+02 
2.604100e-01 3.162528e+02 
2.616100e-01 3.137209e+02 
2.628400e-01 3.111569e+02 
2.640600e-01 3.086548e+02 
2.652200e-01 3.063076e+02 
2.664300e-01 3.038875e+02 
2.676500e-01 3.014762e+02 
2.688400e-01 2.991543e+02 
2.700700e-01 2.967839e+02 
2.712400e-01 2.945551e+02 
2.724800e-01 2.922201e+02 
2.736700e-01 2.900059e+02 
2.748800e-01 2.877808e+02 
2.761000e-01 2.855629e+02 
2.773200e-01 2.833705e+02 
2.785400e-01 2.812020e+02 
2.797000e-01 2.791610e+02 
2.808900e-01 2.770901e+02 
2.821400e-01 2.749392e+02 
2.833900e-01 2.728129e+02 
2.845500e-01 2.708558e+02 
2.857800e-01 2.688033e+02 
2.870300e-01 2.667410e+02 
2.882100e-01 2.648155e+02 
2.893900e-01 2.629082e+02 
2.906300e-01 2.609244e+02 
2.918900e-01 2.589312e+02 
2.930500e-01 2.571160e+02 
2.942500e-01 2.552569e+02 
2.954200e-01 2.534604e+02 
2.966500e-01 2.515918e+02 
2.978900e-01 2.497284e+02 
2.990400e-01 2.480184e+02 
3.002700e-01 2.462072e+02 
3.015100e-01 2.444004e+02 
3.026800e-01 2.427133e+02 
3.038500e-01 2.410433e+02 
3.050300e-01 2.393761e+02 
3.062600e-01 2.376549e+02 
3.075000e-01 2.359380e+02 
3.087000e-01 2.342938e+02 
3.099100e-01 2.326528e+02 
3.111200e-01 2.310294e+02 
3.123100e-01 2.294505e+02 
3.135300e-01 2.278482e+02 
3.147300e-01 2.262880e+02 
3.159900e-01 2.246666e+02 
3.171800e-01 2.231533e+02 
3.183700e-01 2.216563e+02 
3.196300e-01 2.200872e+02 
3.208400e-01 2.185957e+02 
3.220300e-01 2.171432e+02 
3.232000e-01 2.157326e+02 
3.244300e-01 2.142657e+02 
3.256700e-01 2.128016e+02 
3.269200e-01 2.113404e+02 
3.280800e-01 2.099976e+02 
3.292500e-01 2.086611e+02 
3.304800e-01 2.072711e+02 
3.317100e-01 2.058946e+02 
3.328900e-01 2.045867e+02 
3.340700e-01 2.032909e+02 
3.353600e-01 2.018938e+02 
3.365300e-01 2.006410e+02 
3.377100e-01 1.993890e+02 
3.389200e-01 1.981171e+02 
3.401600e-01 1.968260e+02 
3.413700e-01 1.955834e+02 
3.425300e-01 1.944068e+02 
3.437700e-01 1.931606e+02 
3.449800e-01 1.919558e+02 
3.461800e-01 1.907719e+02 
3.473600e-01 1.896206e+02 
3.485800e-01 1.884469e+02 
3.498100e-01 1.872744e+02 
3.510200e-01 1.861315e+02 
3.522000e-01 1.850268e+02 
3.533900e-01 1.839225e+02 
3.546400e-01 1.827814e+02 
3.558400e-01 1.816963e+02 
3.570600e-01 1.806028e+02 
3.582700e-01 1.795279e+02 
3.595000e-01 1.784450e+02 
3.607100e-01 1.773935e+02 
3.618900e-01 1.763803e+02 
3.631200e-01 1.753334e+02 
3.643200e-01 1.743209e+02 
3.655500e-01 1.732921e+02 
3.667300e-01 1.723135e+02 
3.679500e-01 1.713185e+02 
3.691900e-01 1.703159e+02 
3.703600e-01 1.693780e+02 
3.715700e-01 1.684160e+02 
3.727700e-01 1.674700e+02 
3.739900e-01 1.665188e+02 
3.752000e-01 1.655876e+02 
3.763900e-01 1.646794e+02 
3.775800e-01 1.637786e+02 
3.788200e-01 1.628478e+02 
3.800300e-01 1.619472e+02 
3.812100e-01 1.610796e+02 
3.824200e-01 1.601997e+02 
3.836100e-01 1.593413e+02 
3.848600e-01 1.584471e+02 
3.860400e-01 1.576098e+02 
3.872400e-01 1.567651e+02 
3.884600e-01 1.559176e+02 
3.896500e-01 1.550992e+02 
3.908700e-01 1.542669e+02 
3.920600e-01 1.534615e+02 
3.933100e-01 1.526223e+02 
3.945300e-01 1.518098e+02 
3.957200e-01 1.510277e+02 
3.969300e-01 1.502397e+02 
3.981700e-01 1.494387e+02 
3.993500e-01 1.486824e+02 
4.094840e-01 1.424415e+02 
4.272360e-01 1.325285e+02 
4.454600e-01 1.234950e+02 
4.630560e-01 1.157050e+02 
4.804610e-01 1.087756e+02 
4.980690e-01 1.024454e+02 
5.159230e-01 9.663544e+01 
5.317440e-01 9.193612e+01 
5.489640e-01 8.724963e+01 
5.671990e-01 8.271806e+01 
5.838690e-01 7.891575e+01 
6.018840e-01 7.513386e+01 
6.202330e-01 7.159816e+01 
6.379250e-01 6.845135e+01 
6.545410e-01 6.571559e+01 
6.714560e-01 6.311998e+01 
6.892080e-01 6.058649e+01 
7.066010e-01 5.827641e+01 
7.240540e-01 5.611106e+01 
7.420450e-01 5.402856e+01 
7.593780e-01 5.215239e+01 
7.764720e-01 5.041383e+01 
7.942840e-01 4.871245e+01 
8.116170e-01 4.715674e+01 
8.288310e-01 4.570171e+01 
8.462240e-01 4.431386e+01 
8.631980e-01 4.303387e+01 
8.810700e-01 4.175938e+01 
8.989410e-01 4.055425e+01 
9.166330e-01 3.942474e+01 
9.345640e-01 3.833949e+01 
9.515980e-01 3.735997e+01 
9.688720e-01 3.641479e+01 
9.865640e-01 3.549379e+01 
1.031870e+00 3.332534e+01 
1.063490e+00 3.195722e+01 
1.097920e+00 3.058664e+01 
1.134370e+00 2.925285e+01 
1.167730e+00 2.812678e+01 
1.203830e+00 2.699921e+01 
1.240470e+00 2.593954e+01 
1.275790e+00 2.499079e+01 
1.309140e+00 2.415377e+01 
1.342970e+00 2.335786e+01 
1.378420e+00 2.257520e+01 
1.413200e+00 2.185437e+01 
1.448110e+00 2.117266e+01 
1.484090e+00 2.051070e+01 
1.518820e+00 1.990740e+01 
1.552880e+00 1.934699e+01 
1.588630e+00 1.878901e+01 
1.623230e+00 1.827674e+01 
1.657720e+00 1.779109e+01 
1.692450e+00 1.732545e+01 
1.726400e+00 1.689094e+01 
1.762200e+00 1.645337e+01 
1.797880e+00 1.603751e+01 
1.833270e+00 1.564331e+01 
1.869070e+00 1.526160e+01 
1.903200e+00 1.491316e+01 
1.937740e+00 1.457454e+01 
1.973190e+00 1.424062e+01 
2.007440e+00 1.393058e+01 
2.042160e+00 1.362828e+01 
2.077900e+00 1.332880e+01 
2.112390e+00 1.305039e+01 
2.146220e+00 1.278684e+01 
2.181600e+00 1.252096e+01 
2.216930e+00 1.226472e+01 
2.250760e+00 1.202759e+01 
2.286500e+00 1.178543e+01 
2.321770e+00 1.155449e+01 
2.355950e+00 1.133785e+01 
2.391280e+00 1.112084e+01 
2.426240e+00 1.091282e+01 
2.460670e+00 1.071427e+01 
2.495640e+00 1.051877e+01 
2.531080e+00 1.032629e+01 
2.566220e+00 1.014113e+01 
2.600830e+00 9.964114e+00 
2.635080e+00 9.793934e+00 
2.670340e+00 9.623167e+00 
2.705970e+00 9.455571e+00 
2.740040e+00 9.299801e+00 
2.774520e+00 9.146133e+00 
2.809730e+00 8.993256e+00 
2.844390e+00 8.846808e+00 
2.879960e+00 8.700302e+00 
2.914860e+00 8.560100e+00 
2.949410e+00 8.424914e+00 
2.984440e+00 8.291108e+00 
3.019760e+00 8.159525e+00 
3.054730e+00 8.032582e+00 
3.089030e+00 7.910574e+00 
3.124060e+00 7.789025e+00 
3.159560e+00 7.668720e+00 
3.194710e+00 7.552298e+00 
3.229010e+00 7.441473e+00 
3.263320e+00 7.332599e+00 
3.297930e+00 7.225384e+00 
3.332830e+00 7.119604e+00 
3.368040e+00 7.015151e+00 
3.403300e+00 6.912877e+00 
3.438450e+00 6.812952e+00 
3.473060e+00 6.716876e+00 
3.508440e+00 6.620325e+00 
3.543110e+00 6.527905e+00 
3.577470e+00 6.437852e+00 
3.613040e+00 6.346712e+00 
3.648120e+00 6.258552e+00 
3.682910e+00 6.172921e+00 
3.718050e+00 6.087952e+00 
3.753320e+00 6.004432e+00 
3.787980e+00 5.923912e+00 
3.822290e+00 5.845751e+00 
3.857020e+00 5.768024e+00 
3.891920e+00 5.691448e+00 
3.926650e+00 5.616547e+00 
3.961970e+00 5.541876e+00 
3.997360e+00 5.468277e+00 
4.031670e+00 5.398378e+00 
4.066330e+00 5.328887e+00 
4.101420e+00 5.260007e+00 
4.136200e+00 5.192606e+00 
4.170810e+00 5.126930e+00 
4.206250e+00 5.060696e+00 
4.241580e+00 4.995977e+00 
4.276300e+00 4.933379e+00 
4.310970e+00 4.871967e+00 
4.346120e+00 4.810796e+00 
4.380600e+00 4.751715e+00 
4.414730e+00 4.694367e+00 
4.450350e+00 4.635293e+00 
4.485320e+00 4.578448e+00 
4.519810e+00 4.523162e+00 
4.555430e+00 4.467035e+00 
4.590870e+00 4.412178e+00 
4.625480e+00 4.359411e+00 
4.659910e+00 4.307904e+00 
4.695230e+00 4.255730e+00 
4.729960e+00 4.205342e+00 
4.764450e+00 4.156092e+00 
4.799530e+00 4.106700e+00 
4.834910e+00 4.057811e+00 
4.869700e+00 4.010366e+00 
4.904370e+00 3.963897e+00 
4.939450e+00 3.917647e+00 
4.973940e+00 3.872786e+00 
5.008430e+00 3.828715e+00 
5.043810e+00 3.784134e+00 
5.078840e+00 3.740677e+00 
5.113500e+00 3.698430e+00 
5.148890e+00 3.655760e+00 
5.184210e+00 3.613909e+00 
5.219060e+00 3.573281e+00 
5.253660e+00 3.533493e+00 
5.288570e+00 3.494029e+00 
5.323420e+00 3.455196e+00 
5.358440e+00 3.416718e+00 
5.393590e+00 3.378745e+00 
5.428310e+00 3.341720e+00 
5.462800e+00 3.305469e+00 
5.497640e+00 3.269448e+00 
5.532670e+00 3.233693e+00 
5.567280e+00 3.198897e+00 
5.602000e+00 3.164551e+00 
5.637270e+00 3.130097e+00 
5.672410e+00 3.096295e+00 
5.707020e+00 3.063531e+00 
5.742040e+00 3.030788e+00 
5.777430e+00 2.998201e+00 
5.812210e+00 2.966680e+00 
5.846820e+00 2.935700e+00 
5.881610e+00 2.905014e+00 
5.916510e+00 2.874705e+00 
5.951600e+00 2.844615e+00 
5.986560e+00 2.815059e+00 
6.021830e+00 2.785696e+00 
6.056490e+00 2.757224e+00 
6.091160e+00 2.729125e+00 
6.125830e+00 2.701444e+00 
6.161090e+00 2.673689e+00 
6.195760e+00 2.646756e+00 
6.230420e+00 2.620224e+00 
6.265690e+00 2.593619e+00 
6.300950e+00 2.567332e+00 
6.335620e+00 2.541861e+00 
6.370880e+00 2.516331e+00 
6.405550e+00 2.491556e+00 
6.440220e+00 2.467118e+00 
6.475480e+00 2.442620e+00 
6.510150e+00 2.418859e+00 
6.544810e+00 2.395404e+00 
6.580080e+00 2.371873e+00 
6.614750e+00 2.349066e+00 
6.649410e+00 2.326554e+00 
6.684080e+00 2.304340e+00 
6.719340e+00 2.282059e+00 
6.754010e+00 2.260443e+00 
6.788680e+00 2.239098e+00 
6.823940e+00 2.217686e+00 
6.859800e+00 2.196209e+00 
6.894470e+00 2.175714e+00 
6.929140e+00 2.155487e+00 
6.963800e+00 2.135535e+00 
6.999070e+00 2.115501e+00 
7.033730e+00 2.096073e+00 
7.068400e+00 2.076894e+00 
7.103660e+00 2.057645e+00 
7.138330e+00 2.038964e+00 
7.173600e+00 2.020206e+00 
7.208260e+00 2.002011e+00 
7.243530e+00 1.983734e+00 
7.277600e+00 1.966305e+00 
7.312860e+00 1.948496e+00 
7.348120e+00 1.930915e+00 
7.382790e+00 1.913848e+00 
7.417460e+00 1.896997e+00 
7.452720e+00 1.880077e+00 
7.487390e+00 1.863648e+00 
7.522650e+00 1.847148e+00 
7.557320e+00 1.831147e+00 
7.591990e+00 1.815351e+00 
7.627250e+00 1.799483e+00 
7.662510e+00 1.783811e+00 
7.697180e+00 1.768604e+00 
7.731850e+00 1.753585e+00 
7.766510e+00 1.738750e+00 
7.801180e+00 1.724088e+00 
7.836440e+00 1.709369e+00 
7.871110e+00 1.695077e+00 
7.906380e+00 1.680711e+00 
7.941040e+00 1.666760e+00 
7.976310e+00 1.652742e+00 
8.011570e+00 1.638907e+00 
8.046240e+00 1.625463e+00 
8.080900e+00 1.612178e+00 
8.115570e+00 1.599051e+00 
8.150830e+00 1.585889e+00 
8.185500e+00 1.573097e+00 
8.220770e+00 1.560232e+00 
8.255430e+00 1.547733e+00 
8.290100e+00 1.535395e+00 
8.324770e+00 1.523199e+00 
8.359430e+00 1.511142e+00 
8.394700e+00 1.499010e+00 
8.429960e+00 1.487038e+00 
8.464630e+00 1.475418e+00 
8.499890e+00 1.463731e+00 
8.534560e+00 1.452366e+00 
8.569200e+00 1.441134e+00 
