# Parameters:
# omega_b = 0.023469, omega_m = 0.122756, n_s = 0.985433, h = 56.889764, w = -1.000000, sigma_8 = 0.725197
# z = 1.700000
#
# k[1/Mpc] # P(k):
8.694000e-04 4.627941e+03 
2.077466e-03 9.908365e+03 
3.285532e-03 1.395306e+04 
4.493598e-03 1.697495e+04 
5.701664e-03 1.912861e+04 
6.909730e-03 2.056586e+04 
8.117797e-03 2.145226e+04 
9.325863e-03 2.187357e+04 
1.053393e-02 2.191447e+04 
1.174199e-02 2.165252e+04 
1.295006e-02 2.113739e+04 
1.415813e-02 2.043461e+04 
1.536619e-02 1.960235e+04 
1.657426e-02 1.868101e+04 
1.778233e-02 1.770436e+04 
1.899039e-02 1.672029e+04 
2.019846e-02 1.575443e+04 
2.140652e-02 1.482811e+04 
2.261459e-02 1.395287e+04 
2.382266e-02 1.314114e+04 
2.503072e-02 1.239987e+04 
2.623879e-02 1.173006e+04 
2.744685e-02 1.113202e+04 
2.865492e-02 1.060282e+04 
2.986299e-02 1.013717e+04 
3.100100e-02 9.754601e+03 
3.220400e-02 9.402485e+03 
3.288100e-02 9.227249e+03 
3.424300e-02 8.915641e+03 
3.555100e-02 8.659310e+03 
3.686000e-02 8.437686e+03 
3.795000e-02 8.273223e+03 
3.929100e-02 8.090227e+03 
4.039800e-02 7.948183e+03 
4.164000e-02 7.793916e+03 
4.294400e-02 7.628556e+03 
4.415000e-02 7.472706e+03 
4.542900e-02 7.294640e+03 
4.660900e-02 7.123218e+03 
4.782300e-02 6.928719e+03 
4.892900e-02 6.743697e+03 
5.031200e-02 6.499111e+03 
5.155900e-02 6.266751e+03 
5.238100e-02 6.110055e+03 
5.378200e-02 5.840381e+03 
5.513400e-02 5.581254e+03 
5.627600e-02 5.368658e+03 
5.735300e-02 5.178211e+03 
5.870100e-02 4.958541e+03 
5.988700e-02 4.785530e+03 
6.113500e-02 4.624052e+03 
6.225900e-02 4.495627e+03 
6.340100e-02 4.378332e+03 
6.480200e-02 4.246690e+03 
6.601100e-02 4.141246e+03 
6.725500e-02 4.037690e+03 
6.829100e-02 3.955193e+03 
6.958600e-02 3.856421e+03 
7.071100e-02 3.775750e+03 
7.192300e-02 3.694523e+03 
7.307400e-02 3.623040e+03 
7.412300e-02 3.562596e+03 
7.550400e-02 3.489845e+03 
7.663100e-02 3.434863e+03 
7.791200e-02 3.377058e+03 
7.912700e-02 3.325196e+03 
8.027600e-02 3.277744e+03 
8.138400e-02 3.232826e+03 
8.272200e-02 3.178819e+03 
8.406100e-02 3.124164e+03 
8.534100e-02 3.069853e+03 
8.653800e-02 3.016775e+03 
8.759800e-02 2.968455e+03 
8.900300e-02 2.902017e+03 
9.009000e-02 2.848440e+03 
9.113300e-02 2.795041e+03 
9.239600e-02 2.729484e+03 
9.358000e-02 2.666657e+03 
9.496100e-02 2.591811e+03 
9.608400e-02 2.531195e+03 
9.727500e-02 2.467625e+03 
9.852600e-02 2.401078e+03 
9.973800e-02 2.338600e+03 
1.009000e-01 2.280512e+03 
1.020900e-01 2.223776e+03 
1.034000e-01 2.164345e+03 
1.046000e-01 2.112731e+03 
1.057200e-01 2.068468e+03 
1.069100e-01 2.023817e+03 
1.082500e-01 1.978179e+03 
1.093900e-01 1.942637e+03 
1.105400e-01 1.908971e+03 
1.116900e-01 1.879091e+03 
1.129600e-01 1.847931e+03 
1.142000e-01 1.820678e+03 
1.153300e-01 1.797191e+03 
1.166400e-01 1.771777e+03 
1.177800e-01 1.750751e+03 
1.190000e-01 1.729043e+03 
1.201200e-01 1.709324e+03 
1.213400e-01 1.688302e+03 
1.227100e-01 1.663945e+03 
1.238900e-01 1.643084e+03 
1.250700e-01 1.621327e+03 
1.263200e-01 1.598196e+03 
1.275500e-01 1.574581e+03 
1.287500e-01 1.551355e+03 
1.299900e-01 1.526766e+03 
1.311300e-01 1.504089e+03 
1.323500e-01 1.479486e+03 
1.335900e-01 1.454660e+03 
1.347100e-01 1.432198e+03 
1.359800e-01 1.407139e+03 
1.372100e-01 1.383092e+03 
1.384300e-01 1.359786e+03 
1.395700e-01 1.338451e+03 
1.407700e-01 1.316520e+03 
1.420300e-01 1.294284e+03 
1.432800e-01 1.272744e+03 
1.444500e-01 1.253531e+03 
1.456300e-01 1.234570e+03 
1.468900e-01 1.215272e+03 
1.480500e-01 1.198038e+03 
1.491700e-01 1.182009e+03 
1.503800e-01 1.165395e+03 
1.516400e-01 1.148577e+03 
1.528200e-01 1.133664e+03 
1.540200e-01 1.118799e+03 
1.551900e-01 1.104973e+03 
1.564300e-01 1.090700e+03 
1.576600e-01 1.076972e+03 
1.588700e-01 1.063908e+03 
1.600900e-01 1.050995e+03 
1.612700e-01 1.038859e+03 
1.625400e-01 1.026046e+03 
1.637600e-01 1.013934e+03 
1.649500e-01 1.002316e+03 
1.662200e-01 9.901142e+02 
1.674000e-01 9.787993e+02 
1.685000e-01 9.684330e+02 
1.697500e-01 9.567034e+02 
1.710300e-01 9.447626e+02 
1.722200e-01 9.338655e+02 
1.734400e-01 9.225731e+02 
1.746400e-01 9.116517e+02 
1.758700e-01 9.005718e+02 
1.770900e-01 8.896048e+02 
1.782700e-01 8.791840e+02 
1.794600e-01 8.687574e+02 
1.807000e-01 8.580180e+02 
1.819100e-01 8.477240e+02 
1.830100e-01 8.384954e+02 
1.842200e-01 8.285072e+02 
1.855000e-01 8.181317e+02 
1.867000e-01 8.086557e+02 
1.879200e-01 7.991849e+02 
1.890900e-01 7.902782e+02 
1.902800e-01 7.814955e+02 
1.915200e-01 7.724957e+02 
1.926900e-01 7.641907e+02 
1.939000e-01 7.558940e+02 
1.951700e-01 7.473297e+02 
1.963100e-01 7.398164e+02 
1.975100e-01 7.321673e+02 
1.987800e-01 7.242018e+02 
2.000100e-01 7.166588e+02 
2.012500e-01 7.092841e+02 
2.023400e-01 7.028973e+02 
2.036100e-01 6.955861e+02 
2.048900e-01 6.884111e+02 
2.060400e-01 6.820621e+02 
2.072200e-01 6.756436e+02 
2.084200e-01 6.692422e+02 
2.096900e-01 6.625694e+02 
2.109200e-01 6.562045e+02 
2.121100e-01 6.501106e+02 
2.132700e-01 6.442527e+02 
2.145200e-01 6.380311e+02 
2.157200e-01 6.320995e+02 
2.168800e-01 6.264247e+02 
2.180700e-01 6.206836e+02 
2.193400e-01 6.146110e+02 
2.206000e-01 6.086122e+02 
2.217500e-01 6.032139e+02 
2.229500e-01 5.976577e+02 
2.241400e-01 5.921189e+02 
2.253500e-01 5.865623e+02 
2.264900e-01 5.813978e+02 
2.277100e-01 5.758961e+02 
2.289900e-01 5.701514e+02 
2.301500e-01 5.650175e+02 
2.313600e-01 5.597337e+02 
2.325600e-01 5.544755e+02 
2.337700e-01 5.492457e+02 
2.350000e-01 5.440024e+02 
2.362000e-01 5.389257e+02 
2.374100e-01 5.338391e+02 
2.386500e-01 5.286975e+02 
2.399100e-01 5.235455e+02 
2.410400e-01 5.189595e+02 
2.422500e-01 5.141088e+02 
2.435000e-01 5.091654e+02 
2.447300e-01 5.043668e+02 
2.458700e-01 4.999761e+02 
2.470600e-01 4.954507e+02 
2.483300e-01 4.906850e+02 
2.495600e-01 4.861450e+02 
2.507600e-01 4.817917e+02 
2.519600e-01 4.774939e+02 
2.532200e-01 4.730397e+02 
2.543700e-01 4.690598e+02 
2.555500e-01 4.650487e+02 
2.568000e-01 4.608532e+02 
2.580100e-01 4.568434e+02 
2.592400e-01 4.528673e+02 
2.604100e-01 4.491527e+02 
2.616100e-01 4.453885e+02 
2.628400e-01 4.415774e+02 
2.640600e-01 4.378983e+02 
2.652200e-01 4.344632e+02 
2.664300e-01 4.309218e+02 
2.676500e-01 4.273938e+02 
2.688400e-01 4.240322e+02 
2.700700e-01 4.206227e+02 
2.712400e-01 4.174171e+02 
2.724800e-01 4.140589e+02 
2.736700e-01 4.108998e+02 
2.748800e-01 4.077510e+02 
2.761000e-01 4.046126e+02 
2.773200e-01 4.015100e+02 
2.785400e-01 3.984542e+02 
2.797000e-01 3.956045e+02 
2.808900e-01 3.927127e+02 
2.821400e-01 3.897093e+02 
2.833900e-01 3.867410e+02 
2.845500e-01 3.840348e+02 
2.857800e-01 3.811965e+02 
2.870300e-01 3.783442e+02 
2.882100e-01 3.756811e+02 
2.893900e-01 3.730541e+02 
2.906300e-01 3.703276e+02 
2.918900e-01 3.675878e+02 
2.930500e-01 3.650924e+02 
2.942500e-01 3.625387e+02 
2.954200e-01 3.600776e+02 
2.966500e-01 3.575173e+02 
2.978900e-01 3.549640e+02 
2.990400e-01 3.526204e+02 
3.002700e-01 3.501404e+02 
3.015100e-01 3.476671e+02 
3.026800e-01 3.453575e+02 
3.038500e-01 3.430709e+02 
3.050300e-01 3.407878e+02 
3.062600e-01 3.384307e+02 
3.075000e-01 3.360792e+02 
3.087000e-01 3.338269e+02 
3.099100e-01 3.315787e+02 
3.111200e-01 3.293535e+02 
3.123100e-01 3.271873e+02 
3.135300e-01 3.249887e+02 
3.147300e-01 3.228477e+02 
3.159900e-01 3.206224e+02 
3.171800e-01 3.185430e+02 
3.183700e-01 3.164846e+02 
3.196300e-01 3.143267e+02 
3.208400e-01 3.122753e+02 
3.220300e-01 3.102772e+02 
3.232000e-01 3.083339e+02 
3.244300e-01 3.063116e+02 
3.256700e-01 3.042929e+02 
3.269200e-01 3.022781e+02 
3.280800e-01 3.004262e+02 
3.292500e-01 2.985803e+02 
3.304800e-01 2.966595e+02 
3.317100e-01 2.947572e+02 
3.328900e-01 2.929494e+02 
3.340700e-01 2.911581e+02 
3.353600e-01 2.892245e+02 
3.365300e-01 2.874896e+02 
3.377100e-01 2.857556e+02 
3.389200e-01 2.839938e+02 
3.401600e-01 2.822052e+02 
3.413700e-01 2.804824e+02 
3.425300e-01 2.788499e+02 
3.437700e-01 2.771206e+02 
3.449800e-01 2.754487e+02 
3.461800e-01 2.738056e+02 
3.473600e-01 2.722073e+02 
3.485800e-01 2.705770e+02 
3.498100e-01 2.689482e+02 
3.510200e-01 2.673604e+02 
3.522000e-01 2.658255e+02 
3.533900e-01 2.642910e+02 
3.546400e-01 2.627048e+02 
3.558400e-01 2.611963e+02 
3.570600e-01 2.596760e+02 
3.582700e-01 2.581814e+02 
3.595000e-01 2.566754e+02 
3.607100e-01 2.552135e+02 
3.618900e-01 2.538052e+02 
3.631200e-01 2.523497e+02 
3.643200e-01 2.509420e+02 
3.655500e-01 2.495115e+02 
3.667300e-01 2.481507e+02 
3.679500e-01 2.467681e+02 
3.691900e-01 2.453750e+02 
3.703600e-01 2.440715e+02 
3.715700e-01 2.427345e+02 
3.727700e-01 2.414196e+02 
3.739900e-01 2.400979e+02 
3.752000e-01 2.388051e+02 
3.763900e-01 2.375441e+02 
3.775800e-01 2.362933e+02 
3.788200e-01 2.350007e+02 
3.800300e-01 2.337498e+02 
3.812100e-01 2.325462e+02 
3.824200e-01 2.313262e+02 
3.836100e-01 2.301360e+02 
3.848600e-01 2.288960e+02 
3.860400e-01 2.277348e+02 
3.872400e-01 2.265633e+02 
3.884600e-01 2.253894e+02 
3.896500e-01 2.242563e+02 
3.908700e-01 2.231038e+02 
3.920600e-01 2.219885e+02 
3.933100e-01 2.208263e+02 
3.945300e-01 2.197010e+02 
3.957200e-01 2.186200e+02 
3.969300e-01 2.175315e+02 
3.981700e-01 2.164249e+02 
3.993500e-01 2.153799e+02 
4.094840e-01 2.067597e+02 
4.272360e-01 1.931142e+02 
4.454600e-01 1.806965e+02 
4.630560e-01 1.699885e+02 
4.804610e-01 1.604480e+02 
4.980690e-01 1.517093e+02 
5.159230e-01 1.436570e+02 
5.317440e-01 1.371198e+02 
5.489640e-01 1.305705e+02 
5.671990e-01 1.242101e+02 
5.838690e-01 1.188535e+02 
6.018840e-01 1.135094e+02 
6.202330e-01 1.084953e+02 
6.379250e-01 1.040206e+02 
6.545410e-01 1.001201e+02 
6.714560e-01 9.641388e+01 
6.892080e-01 9.278780e+01 
7.066010e-01 8.947746e+01 
7.240540e-01 8.636775e+01 
7.420450e-01 8.337359e+01 
7.593780e-01 8.067131e+01 
7.764720e-01 7.816408e+01 
7.942840e-01 7.570625e+01 
8.116170e-01 7.345560e+01 
8.288310e-01 7.134619e+01 
8.462240e-01 6.933124e+01 
8.631980e-01 6.746892e+01 
8.810700e-01 6.561053e+01 
8.989410e-01 6.384908e+01 
9.166330e-01 6.219391e+01 
9.345640e-01 6.060116e+01 
9.515980e-01 5.915958e+01 
9.688720e-01 5.776386e+01 
9.865640e-01 5.640051e+01 
1.031870e+00 5.317363e+01 
1.063490e+00 5.112462e+01 
1.097920e+00 4.906043e+01 
1.134370e+00 4.703872e+01 
1.167730e+00 4.532182e+01 
1.203830e+00 4.359036e+01 
1.240470e+00 4.195374e+01 
1.275790e+00 4.047941e+01 
1.309140e+00 3.917221e+01 
1.342970e+00 3.791934e+01 
1.378420e+00 3.668238e+01 
1.413200e+00 3.553673e+01 
1.448110e+00 3.444807e+01 
1.484090e+00 3.338524e+01 
1.518820e+00 3.241225e+01 
1.552880e+00 3.150416e+01 
1.588630e+00 3.059645e+01 
1.623230e+00 2.975948e+01 
1.657720e+00 2.896296e+01 
1.692450e+00 2.819665e+01 
1.726400e+00 2.747939e+01 
1.762200e+00 2.675442e+01 
1.797880e+00 2.606294e+01 
1.833270e+00 2.540585e+01 
1.869070e+00 2.476798e+01 
1.903200e+00 2.418359e+01 
1.937740e+00 2.361475e+01 
1.973190e+00 2.305287e+01 
2.007440e+00 2.253023e+01 
2.042160e+00 2.201914e+01 
2.077900e+00 2.151185e+01 
2.112390e+00 2.104012e+01 
2.146220e+00 2.059235e+01 
2.181600e+00 2.014014e+01 
2.216930e+00 1.970349e+01 
2.250760e+00 1.929915e+01 
2.286500e+00 1.888600e+01 
2.321770e+00 1.849154e+01 
2.355950e+00 1.812112e+01 
2.391280e+00 1.774955e+01 
2.426240e+00 1.739312e+01 
2.460670e+00 1.705288e+01 
2.495640e+00 1.671796e+01 
2.531080e+00 1.638796e+01 
2.566220e+00 1.607009e+01 
2.600830e+00 1.576611e+01 
2.635080e+00 1.547397e+01 
2.670340e+00 1.518110e+01 
2.705970e+00 1.489347e+01 
2.740040e+00 1.462606e+01 
2.774520e+00 1.436234e+01 
2.809730e+00 1.409994e+01 
2.844390e+00 1.384868e+01 
2.879960e+00 1.359762e+01 
2.914860e+00 1.335738e+01 
2.949410e+00 1.312579e+01 
2.984440e+00 1.289656e+01 
3.019760e+00 1.267124e+01 
3.054730e+00 1.245398e+01 
3.089030e+00 1.224547e+01 
3.124060e+00 1.203794e+01 
3.159560e+00 1.183277e+01 
3.194710e+00 1.163429e+01 
3.229010e+00 1.144544e+01 
3.263320e+00 1.126015e+01 
3.297930e+00 1.107780e+01 
3.332830e+00 1.089807e+01 
3.368040e+00 1.072086e+01 
3.403300e+00 1.054757e+01 
3.438450e+00 1.037845e+01 
3.473060e+00 1.021595e+01 
3.508440e+00 1.005288e+01 
3.543110e+00 9.896934e+00 
3.577470e+00 9.745455e+00 
3.613040e+00 9.592216e+00 
3.648120e+00 9.444040e+00 
3.682910e+00 9.300364e+00 
3.718050e+00 9.158214e+00 
3.753320e+00 9.018575e+00 
3.787980e+00 8.884041e+00 
3.822290e+00 8.753657e+00 
3.857020e+00 8.624276e+00 
3.891920e+00 8.496961e+00 
3.926650e+00 8.372649e+00 
3.961970e+00 8.248891e+00 
3.997360e+00 8.127228e+00 
4.031670e+00 8.011783e+00 
4.066330e+00 7.897221e+00 
4.101420e+00 7.783746e+00 
4.136200e+00 7.673057e+00 
4.170810e+00 7.565268e+00 
4.206250e+00 7.456851e+00 
4.241580e+00 7.351020e+00 
4.276300e+00 7.248888e+00 
4.310970e+00 7.148842e+00 
4.346120e+00 7.049338e+00 
4.380600e+00 6.953438e+00 
4.414730e+00 6.860413e+00 
4.450350e+00 6.764879e+00 
4.485320e+00 6.673007e+00 
4.519810e+00 6.583942e+00 
4.555430e+00 6.493683e+00 
4.590870e+00 6.405560e+00 
4.625480e+00 6.320930e+00 
4.659910e+00 6.238370e+00 
4.695230e+00 6.155072e+00 
4.729960e+00 6.074717e+00 
4.764450e+00 5.996327e+00 
4.799530e+00 5.917933e+00 
4.834910e+00 5.840380e+00 
4.869700e+00 5.765304e+00 
4.904370e+00 5.691838e+00 
4.939450e+00 5.618830e+00 
4.973940e+00 5.548226e+00 
5.008430e+00 5.478906e+00 
5.043810e+00 5.408944e+00 
5.078840e+00 5.340856e+00 
5.113500e+00 5.274700e+00 
5.148890e+00 5.208182e+00 
5.184210e+00 5.142988e+00 
5.219060e+00 5.079773e+00 
5.253660e+00 5.018016e+00 
5.288570e+00 4.956794e+00 
5.323420e+00 4.896659e+00 
5.358440e+00 4.837188e+00 
5.393590e+00 4.778531e+00 
5.428310e+00 4.721531e+00 
5.462800e+00 4.665837e+00 
5.497640e+00 4.610525e+00 
5.532670e+00 4.555775e+00 
5.567280e+00 4.502561e+00 
5.602000e+00 4.450063e+00 
5.637270e+00 4.397552e+00 
5.672410e+00 4.346090e+00 
5.707020e+00 4.296234e+00 
5.742040e+00 4.246583e+00 
5.777430e+00 4.197223e+00 
5.812210e+00 4.149500e+00 
5.846820e+00 4.102717e+00 
5.881610e+00 4.056423e+00 
5.916510e+00 4.010720e+00 
5.951600e+00 3.965482e+00 
5.986560e+00 3.921117e+00 
6.021830e+00 3.877062e+00 
6.056490e+00 3.834440e+00 
6.091160e+00 3.792458e+00 
6.125830e+00 3.751118e+00 
6.161090e+00 3.709719e+00 
6.195760e+00 3.669633e+00 
6.230420e+00 3.630162e+00 
6.265690e+00 3.590604e+00 
6.300950e+00 3.551682e+00 
6.335620e+00 3.513983e+00 
6.370880e+00 3.476214e+00 
6.405550e+00 3.439635e+00 
6.440220e+00 3.403595e+00 
6.475480e+00 3.367479e+00 
6.510150e+00 3.332499e+00 
6.544810e+00 3.298063e+00 
6.580080e+00 3.263528e+00 
6.614750e+00 3.230068e+00 
6.649410e+00 3.197119e+00 
6.684080e+00 3.164630e+00 
6.719340e+00 3.132058e+00 
6.754010e+00 3.100501e+00 
6.788680e+00 3.069427e+00 
6.823940e+00 3.038266e+00 
6.859800e+00 3.007023e+00 
6.894470e+00 2.977282e+00 
6.929140e+00 2.947962e+00 
6.963800e+00 2.919049e+00 
6.999070e+00 2.890032e+00 
7.033730e+00 2.861962e+00 
7.068400e+00 2.834260e+00 
7.103660e+00 2.806465e+00 
7.138330e+00 2.779520e+00 
7.173600e+00 2.752512e+00 
7.208260e+00 2.726322e+00 
7.243530e+00 2.700024e+00 
7.277600e+00 2.674990e+00 
7.312860e+00 2.649451e+00 
7.348120e+00 2.624248e+00 
7.382790e+00 2.599788e+00 
7.417460e+00 2.575693e+00 
7.452720e+00 2.551530e+00 
7.487390e+00 2.528075e+00 
7.522650e+00 2.504524e+00 
7.557320e+00 2.481718e+00 
7.591990e+00 2.459217e+00 
7.627250e+00 2.436621e+00 
7.662510e+00 2.414310e+00 
7.697180e+00 2.392708e+00 
7.731850e+00 2.371395e+00 
7.766510e+00 2.350348e+00 
7.801180e+00 2.329552e+00 
7.836440e+00 2.308707e+00 
7.871110e+00 2.288488e+00 
7.906380e+00 2.268169e+00 
7.941040e+00 2.248442e+00 
7.976310e+00 2.228644e+00 
8.011570e+00 2.209132e+00 
8.046240e+00 2.190176e+00 
8.080900e+00 2.171448e+00 
8.115570e+00 2.152952e+00 
8.150830e+00 2.134434e+00 
8.185500e+00 2.116439e+00 
8.220770e+00 2.098346e+00 
8.255430e+00 2.080773e+00 
8.290100e+00 2.063471e+00 
8.324770e+00 2.046376e+00 
8.359430e+00 2.029479e+00 
8.394700e+00 2.012482e+00 
8.429960e+00 1.995725e+00 
8.464630e+00 1.979476e+00 
8.499890e+00 1.963136e+00 
8.534560e+00 1.947251e+00 
8.569200e+00 1.931555e+00 
