# Parameters:
# omega_b = 0.023232, omega_m = 0.145630, n_s = 0.969685, h = 57.598425, w = -1.000000, sigma_8 = 0.848031
# z = 1.700000
#
# k[1/Mpc] # P(k):
8.694000e-04 3.661310e+03 
2.077466e-03 7.871610e+03 
3.285532e-03 1.120323e+04 
4.493598e-03 1.381477e+04 
5.701664e-03 1.579141e+04 
6.909730e-03 1.722815e+04 
8.117797e-03 1.823755e+04 
9.325863e-03 1.887680e+04 
1.053393e-02 1.920370e+04 
1.174199e-02 1.927258e+04 
1.295006e-02 1.911774e+04 
1.415813e-02 1.878722e+04 
1.536619e-02 1.832374e+04 
1.657426e-02 1.775673e+04 
1.778233e-02 1.711210e+04 
1.899039e-02 1.642901e+04 
2.019846e-02 1.572896e+04 
2.140652e-02 1.503146e+04 
2.261459e-02 1.434706e+04 
2.382266e-02 1.368923e+04 
2.503072e-02 1.306808e+04 
2.623879e-02 1.248804e+04 
2.744685e-02 1.195074e+04 
2.865492e-02 1.145944e+04 
2.986299e-02 1.101297e+04 
3.100100e-02 1.063315e+04 
3.220400e-02 1.027212e+04 
3.288100e-02 1.008714e+04 
3.424300e-02 9.749909e+03 
3.555100e-02 9.464689e+03 
3.686000e-02 9.212572e+03 
3.795000e-02 9.023477e+03 
3.929100e-02 8.813439e+03 
4.039800e-02 8.653278e+03 
4.164000e-02 8.483566e+03 
4.294400e-02 8.310578e+03 
4.415000e-02 8.153466e+03 
4.542900e-02 7.982585e+03 
4.660900e-02 7.822757e+03 
4.782300e-02 7.647276e+03 
4.892900e-02 7.482474e+03 
5.031200e-02 7.266583e+03 
5.155900e-02 7.061664e+03 
5.238100e-02 6.922729e+03 
5.378200e-02 6.681202e+03 
5.513400e-02 6.444080e+03 
5.627600e-02 6.244157e+03 
5.735300e-02 6.059352e+03 
5.870100e-02 5.836780e+03 
5.988700e-02 5.652067e+03 
6.113500e-02 5.469698e+03 
6.225900e-02 5.316055e+03 
6.340100e-02 5.169074e+03 
6.480200e-02 4.999037e+03 
6.601100e-02 4.860136e+03 
6.725500e-02 4.723773e+03 
6.829100e-02 4.615610e+03 
6.958600e-02 4.487176e+03 
7.071100e-02 4.382773e+03 
7.192300e-02 4.277900e+03 
7.307400e-02 4.185750e+03 
7.412300e-02 4.107965e+03 
7.550400e-02 4.014814e+03 
7.663100e-02 3.945045e+03 
7.791200e-02 3.873240e+03 
7.912700e-02 3.810923e+03 
8.027600e-02 3.755824e+03 
8.138400e-02 3.705429e+03 
8.272200e-02 3.647339e+03 
8.406100e-02 3.591052e+03 
8.534100e-02 3.537586e+03 
8.653800e-02 3.486835e+03 
8.759800e-02 3.441268e+03 
8.900300e-02 3.379283e+03 
9.009000e-02 3.329489e+03 
9.113300e-02 3.279639e+03 
9.239600e-02 3.218050e+03 
9.358000e-02 3.158352e+03 
9.496100e-02 3.085873e+03 
9.608400e-02 3.026203e+03 
9.727500e-02 2.962797e+03 
9.852600e-02 2.894273e+03 
9.973800e-02 2.828773e+03 
1.009000e-01 2.766904e+03 
1.020900e-01 2.704016e+03 
1.034000e-01 2.636853e+03 
1.046000e-01 2.577182e+03 
1.057200e-01 2.523720e+03 
1.069100e-01 2.468934e+03 
1.082500e-01 2.410479e+03 
1.093900e-01 2.363495e+03 
1.105400e-01 2.318118e+03 
1.116900e-01 2.276066e+03 
1.129600e-01 2.231719e+03 
1.142000e-01 2.191858e+03 
1.153300e-01 2.157477e+03 
1.166400e-01 2.120205e+03 
1.177800e-01 2.090104e+03 
1.190000e-01 2.059379e+03 
1.201200e-01 2.033315e+03 
1.213400e-01 2.005860e+03 
1.227100e-01 1.977334e+03 
1.238900e-01 1.953563e+03 
1.250700e-01 1.930859e+03 
1.263200e-01 1.907387e+03 
1.275500e-01 1.884867e+03 
1.287500e-01 1.863171e+03 
1.299900e-01 1.840898e+03 
1.311300e-01 1.820396e+03 
1.323500e-01 1.798212e+03 
1.335900e-01 1.775485e+03 
1.347100e-01 1.754490e+03 
1.359800e-01 1.730555e+03 
1.372100e-01 1.706607e+03 
1.384300e-01 1.682862e+03 
1.395700e-01 1.659910e+03 
1.407700e-01 1.636124e+03 
1.420300e-01 1.610254e+03 
1.432800e-01 1.585179e+03 
1.444500e-01 1.561245e+03 
1.456300e-01 1.537625e+03 
1.468900e-01 1.512725e+03 
1.480500e-01 1.490232e+03 
1.491700e-01 1.469069e+03 
1.503800e-01 1.446819e+03 
1.516400e-01 1.424300e+03 
1.528200e-01 1.404292e+03 
1.540200e-01 1.384360e+03 
1.551900e-01 1.366122e+03 
1.564300e-01 1.347375e+03 
1.576600e-01 1.329630e+03 
1.588700e-01 1.313087e+03 
1.600900e-01 1.296776e+03 
1.612700e-01 1.282141e+03 
1.625400e-01 1.266688e+03 
1.637600e-01 1.252482e+03 
1.649500e-01 1.239085e+03 
1.662200e-01 1.225086e+03 
1.674000e-01 1.212509e+03 
1.685000e-01 1.200981e+03 
1.697500e-01 1.188057e+03 
1.710300e-01 1.175015e+03 
1.722200e-01 1.163107e+03 
1.734400e-01 1.150802e+03 
1.746400e-01 1.138894e+03 
1.758700e-01 1.126761e+03 
1.770900e-01 1.114652e+03 
1.782700e-01 1.103138e+03 
1.794600e-01 1.091473e+03 
1.807000e-01 1.079358e+03 
1.819100e-01 1.067739e+03 
1.830100e-01 1.057092e+03 
1.842200e-01 1.045525e+03 
1.855000e-01 1.033492e+03 
1.867000e-01 1.022231e+03 
1.879200e-01 1.010973e+03 
1.890900e-01 1.000344e+03 
1.902800e-01 9.896664e+02 
1.915200e-01 9.787225e+02 
1.926900e-01 9.685819e+02 
1.939000e-01 9.583217e+02 
1.951700e-01 9.477291e+02 
1.963100e-01 9.384118e+02 
1.975100e-01 9.288617e+02 
1.987800e-01 9.189157e+02 
2.000100e-01 9.094936e+02 
2.012500e-01 9.002739e+02 
2.023400e-01 8.922888e+02 
2.036100e-01 8.831585e+02 
2.048900e-01 8.742409e+02 
2.060400e-01 8.663491e+02 
2.072200e-01 8.583772e+02 
2.084200e-01 8.505098e+02 
2.096900e-01 8.423076e+02 
2.109200e-01 8.344829e+02 
2.121100e-01 8.270859e+02 
2.132700e-01 8.199790e+02 
2.145200e-01 8.124294e+02 
2.157200e-01 8.052919e+02 
2.168800e-01 7.984900e+02 
2.180700e-01 7.916071e+02 
2.193400e-01 7.843475e+02 
2.206000e-01 7.772159e+02 
2.217500e-01 7.707965e+02 
2.229500e-01 7.641873e+02 
2.241400e-01 7.576306e+02 
2.253500e-01 7.510516e+02 
2.264900e-01 7.449350e+02 
2.277100e-01 7.384182e+02 
2.289900e-01 7.316126e+02 
2.301500e-01 7.255286e+02 
2.313600e-01 7.192644e+02 
2.325600e-01 7.130125e+02 
2.337700e-01 7.067921e+02 
2.350000e-01 7.005533e+02 
2.362000e-01 6.944978e+02 
2.374100e-01 6.884132e+02 
2.386500e-01 6.822606e+02 
2.399100e-01 6.760932e+02 
2.410400e-01 6.705731e+02 
2.422500e-01 6.647289e+02 
2.435000e-01 6.587708e+02 
2.447300e-01 6.529795e+02 
2.458700e-01 6.476555e+02 
2.470600e-01 6.421663e+02 
2.483300e-01 6.363839e+02 
2.495600e-01 6.308628e+02 
2.507600e-01 6.255524e+02 
2.519600e-01 6.203081e+02 
2.532200e-01 6.148713e+02 
2.543700e-01 6.100012e+02 
2.555500e-01 6.050842e+02 
2.568000e-01 5.999397e+02 
2.580100e-01 5.950216e+02 
2.592400e-01 5.901359e+02 
2.604100e-01 5.855670e+02 
2.616100e-01 5.809361e+02 
2.628400e-01 5.762462e+02 
2.640600e-01 5.717152e+02 
2.652200e-01 5.674825e+02 
2.664300e-01 5.631179e+02 
2.676500e-01 5.587688e+02 
2.688400e-01 5.546252e+02 
2.700700e-01 5.504227e+02 
2.712400e-01 5.464705e+02 
2.724800e-01 5.423293e+02 
2.736700e-01 5.384357e+02 
2.748800e-01 5.345572e+02 
2.761000e-01 5.306905e+02 
2.773200e-01 5.268672e+02 
2.785400e-01 5.231029e+02 
2.797000e-01 5.195963e+02 
2.808900e-01 5.160372e+02 
2.821400e-01 5.123399e+02 
2.833900e-01 5.086853e+02 
2.845500e-01 5.053602e+02 
2.857800e-01 5.018718e+02 
2.870300e-01 4.983655e+02 
2.882100e-01 4.950910e+02 
2.893900e-01 4.918641e+02 
2.906300e-01 4.885161e+02 
2.918900e-01 4.851511e+02 
2.930500e-01 4.820855e+02 
2.942500e-01 4.789483e+02 
2.954200e-01 4.759262e+02 
2.966500e-01 4.727817e+02 
2.978900e-01 4.696449e+02 
2.990400e-01 4.667652e+02 
3.002700e-01 4.637172e+02 
3.015100e-01 4.606767e+02 
3.026800e-01 4.578368e+02 
3.038500e-01 4.550246e+02 
3.050300e-01 4.522160e+02 
3.062600e-01 4.493145e+02 
3.075000e-01 4.464191e+02 
3.087000e-01 4.436452e+02 
3.099100e-01 4.408757e+02 
3.111200e-01 4.381326e+02 
3.123100e-01 4.354596e+02 
3.135300e-01 4.327459e+02 
3.147300e-01 4.301027e+02 
3.159900e-01 4.273547e+02 
3.171800e-01 4.247836e+02 
3.183700e-01 4.222361e+02 
3.196300e-01 4.195649e+02 
3.208400e-01 4.170248e+02 
3.220300e-01 4.145504e+02 
3.232000e-01 4.121402e+02 
3.244300e-01 4.096303e+02 
3.256700e-01 4.071243e+02 
3.269200e-01 4.046226e+02 
3.280800e-01 4.023226e+02 
3.292500e-01 4.000264e+02 
3.304800e-01 3.976356e+02 
3.317100e-01 3.952673e+02 
3.328900e-01 3.930161e+02 
3.340700e-01 3.907852e+02 
3.353600e-01 3.883734e+02 
3.365300e-01 3.862079e+02 
3.377100e-01 3.840432e+02 
3.389200e-01 3.818433e+02 
3.401600e-01 3.796095e+02 
3.413700e-01 3.774556e+02 
3.425300e-01 3.754131e+02 
3.437700e-01 3.732489e+02 
3.449800e-01 3.711562e+02 
3.461800e-01 3.690991e+02 
3.473600e-01 3.670971e+02 
3.485800e-01 3.650533e+02 
3.498100e-01 3.630111e+02 
3.510200e-01 3.610197e+02 
3.522000e-01 3.590944e+02 
3.533900e-01 3.571693e+02 
3.546400e-01 3.551776e+02 
3.558400e-01 3.532831e+02 
3.570600e-01 3.513734e+02 
3.582700e-01 3.494957e+02 
3.595000e-01 3.476032e+02 
3.607100e-01 3.457659e+02 
3.618900e-01 3.439956e+02 
3.631200e-01 3.421658e+02 
3.643200e-01 3.403956e+02 
3.655500e-01 3.385964e+02 
3.667300e-01 3.368846e+02 
3.679500e-01 3.351452e+02 
3.691900e-01 3.333922e+02 
3.703600e-01 3.317516e+02 
3.715700e-01 3.300686e+02 
3.727700e-01 3.284132e+02 
3.739900e-01 3.267493e+02 
3.752000e-01 3.251224e+02 
3.763900e-01 3.235353e+02 
3.775800e-01 3.219607e+02 
3.788200e-01 3.203333e+02 
3.800300e-01 3.187580e+02 
3.812100e-01 3.172427e+02 
3.824200e-01 3.157070e+02 
3.836100e-01 3.142086e+02 
3.848600e-01 3.126471e+02 
3.860400e-01 3.111847e+02 
3.872400e-01 3.097090e+02 
3.884600e-01 3.082311e+02 
3.896500e-01 3.068048e+02 
3.908700e-01 3.053538e+02 
3.920600e-01 3.039494e+02 
3.933100e-01 3.024856e+02 
3.945300e-01 3.010681e+02 
3.957200e-01 2.997078e+02 
3.969300e-01 2.983383e+02 
3.981700e-01 2.969457e+02 
3.993500e-01 2.956305e+02 
4.094840e-01 2.847754e+02 
4.272360e-01 2.675963e+02 
4.454600e-01 2.519333e+02 
4.630560e-01 2.383862e+02 
4.804610e-01 2.262633e+02 
4.980690e-01 2.151014e+02 
5.159230e-01 2.047529e+02 
5.317440e-01 1.963046e+02 
5.489640e-01 1.877868e+02 
5.671990e-01 1.794647e+02 
5.838690e-01 1.724194e+02 
6.018840e-01 1.653593e+02 
6.202330e-01 1.587033e+02 
6.379250e-01 1.527417e+02 
6.545410e-01 1.475270e+02 
6.714560e-01 1.425610e+02 
6.892080e-01 1.376888e+02 
7.066010e-01 1.332333e+02 
7.240540e-01 1.290376e+02 
7.420450e-01 1.249926e+02 
7.593780e-01 1.213358e+02 
7.764720e-01 1.179380e+02 
7.942840e-01 1.146022e+02 
8.116170e-01 1.115437e+02 
8.288310e-01 1.086721e+02 
8.462240e-01 1.059257e+02 
8.631980e-01 1.033826e+02 
8.810700e-01 1.008402e+02 
8.989410e-01 9.842553e+01 
9.166330e-01 9.615171e+01 
9.345640e-01 9.396019e+01 
9.515980e-01 9.197194e+01 
9.688720e-01 9.004134e+01 
9.865640e-01 8.815132e+01 
1.031870e+00 8.365498e+01 
1.063490e+00 8.078132e+01 
1.097920e+00 7.787109e+01 
1.134370e+00 7.500121e+01 
1.167730e+00 7.254907e+01 
1.203830e+00 7.005697e+01 
1.240470e+00 6.768631e+01 
1.275790e+00 6.553522e+01 
1.309140e+00 6.361724e+01 
1.342970e+00 6.176260e+01 
1.378420e+00 5.992228e+01 
1.413200e+00 5.820607e+01 
1.448110e+00 5.656501e+01 
1.484090e+00 5.495311e+01 
1.518820e+00 5.346841e+01 
1.552880e+00 5.207411e+01 
1.588630e+00 5.067290e+01 
1.623230e+00 4.937374e+01 
1.657720e+00 4.813123e+01 
1.692450e+00 4.692987e+01 
1.726400e+00 4.579979e+01 
1.762200e+00 4.465186e+01 
1.797880e+00 4.355173e+01 
1.833270e+00 4.250216e+01 
1.869070e+00 4.147883e+01 
1.903200e+00 4.053703e+01 
1.937740e+00 3.961726e+01 
1.973190e+00 3.870567e+01 
2.007440e+00 3.785486e+01 
2.042160e+00 3.701953e+01 
2.077900e+00 3.618767e+01 
2.112390e+00 3.541233e+01 
2.146220e+00 3.467352e+01 
2.181600e+00 3.392546e+01 
2.216930e+00 3.320087e+01 
2.250760e+00 3.252839e+01 
2.286500e+00 3.183982e+01 
2.321770e+00 3.118075e+01 
2.355950e+00 3.056042e+01 
2.391280e+00 2.993626e+01 
2.426240e+00 2.933634e+01 
2.460670e+00 2.876285e+01 
2.495640e+00 2.819763e+01 
2.531080e+00 2.763924e+01 
2.566220e+00 2.710023e+01 
2.600830e+00 2.658403e+01 
2.635080e+00 2.608734e+01 
2.670340e+00 2.558875e+01 
2.705970e+00 2.509829e+01 
2.740040e+00 2.464175e+01 
2.774520e+00 2.419089e+01 
2.809730e+00 2.374161e+01 
2.844390e+00 2.331110e+01 
2.879960e+00 2.288067e+01 
2.914860e+00 2.246822e+01 
2.949410e+00 2.207030e+01 
2.984440e+00 2.167594e+01 
3.019760e+00 2.128799e+01 
3.054730e+00 2.091374e+01 
3.089030e+00 2.055425e+01 
3.124060e+00 2.019641e+01 
3.159560e+00 1.984254e+01 
3.194710e+00 1.949986e+01 
3.229010e+00 1.917373e+01 
3.263320e+00 1.885351e+01 
3.297930e+00 1.853835e+01 
3.332830e+00 1.822753e+01 
3.368040e+00 1.792109e+01 
3.403300e+00 1.762146e+01 
3.438450e+00 1.732887e+01 
3.473060e+00 1.704774e+01 
3.508440e+00 1.676550e+01 
3.543110e+00 1.649567e+01 
3.577470e+00 1.623369e+01 
3.613040e+00 1.596865e+01 
3.648120e+00 1.571220e+01 
3.682910e+00 1.546366e+01 
3.718050e+00 1.521795e+01 
3.753320e+00 1.497654e+01 
3.787980e+00 1.474389e+01 
3.822290e+00 1.451851e+01 
3.857020e+00 1.429499e+01 
3.891920e+00 1.407508e+01 
3.926650e+00 1.386040e+01 
3.961970e+00 1.364678e+01 
3.997360e+00 1.343692e+01 
4.031670e+00 1.323784e+01 
4.066330e+00 1.304032e+01 
4.101420e+00 1.284473e+01 
4.136200e+00 1.265412e+01 
4.170810e+00 1.246857e+01 
4.206250e+00 1.228205e+01 
4.241580e+00 1.210005e+01 
4.276300e+00 1.192454e+01 
4.310970e+00 1.175270e+01 
4.346120e+00 1.158187e+01 
4.380600e+00 1.141733e+01 
4.414730e+00 1.125778e+01 
4.450350e+00 1.109409e+01 
4.485320e+00 1.093672e+01 
4.519810e+00 1.078435e+01 
4.555430e+00 1.063005e+01 
4.590870e+00 1.047945e+01 
4.625480e+00 1.033487e+01 
4.659910e+00 1.019387e+01 
4.695230e+00 1.005185e+01 
4.729960e+00 9.914920e+00 
4.764450e+00 9.781440e+00 
4.799530e+00 9.648089e+00 
4.834910e+00 9.516211e+00 
4.869700e+00 9.388668e+00 
4.904370e+00 9.263911e+00 
4.939450e+00 9.140011e+00 
4.973940e+00 9.020338e+00 
5.008430e+00 8.902875e+00 
5.043810e+00 8.784432e+00 
5.078840e+00 8.669237e+00 
5.113500e+00 8.557345e+00 
5.148890e+00 8.445052e+00 
5.184210e+00 8.335034e+00 
5.219060e+00 8.228415e+00 
5.253660e+00 8.124360e+00 
5.288570e+00 8.021235e+00 
5.323420e+00 7.920016e+00 
5.358440e+00 7.819992e+00 
5.393590e+00 7.721364e+00 
5.428310e+00 7.625673e+00 
5.462800e+00 7.532265e+00 
5.497640e+00 7.439521e+00 
5.532670e+00 7.347832e+00 
5.567280e+00 7.258770e+00 
5.602000e+00 7.170926e+00 
5.637270e+00 7.083167e+00 
5.672410e+00 6.997201e+00 
5.707020e+00 6.913941e+00 
5.742040e+00 6.831152e+00 
5.777430e+00 6.748893e+00 
5.812210e+00 6.669382e+00 
5.846820e+00 6.591521e+00 
5.881610e+00 6.514512e+00 
5.916510e+00 6.438503e+00 
5.951600e+00 6.363367e+00 
5.986560e+00 6.289734e+00 
6.021830e+00 6.216634e+00 
6.056490e+00 6.145980e+00 
6.091160e+00 6.076445e+00 
6.125830e+00 6.007990e+00 
6.161090e+00 5.939476e+00 
6.195760e+00 5.873200e+00 
6.230420e+00 5.807955e+00 
6.265690e+00 5.742584e+00 
6.300950e+00 5.678375e+00 
6.335620e+00 5.616198e+00 
6.370880e+00 5.553917e+00 
6.405550e+00 5.493652e+00 
6.440220e+00 5.434302e+00 
6.475480e+00 5.374840e+00 
6.510150e+00 5.317284e+00 
6.544810e+00 5.260688e+00 
6.580080e+00 5.203939e+00 
6.614750e+00 5.148969e+00 
6.649410e+00 5.094886e+00 
6.684080e+00 5.041578e+00 
6.719340e+00 4.988142e+00 
6.754010e+00 4.936405e+00 
6.788680e+00 4.885525e+00 
6.823940e+00 4.834512e+00 
6.859800e+00 4.783373e+00 
6.894470e+00 4.734733e+00 
6.929140e+00 4.686804e+00 
6.963800e+00 4.639547e+00 
6.999070e+00 4.592132e+00 
7.033730e+00 4.546305e+00 
7.068400e+00 4.501086e+00 
7.103660e+00 4.455723e+00 
7.138330e+00 4.411766e+00 
7.173600e+00 4.367737e+00 
7.208260e+00 4.325050e+00 
7.243530e+00 4.282192e+00 
7.277600e+00 4.241418e+00 
7.312860e+00 4.199845e+00 
7.348120e+00 4.158824e+00 
7.382790e+00 4.119020e+00 
7.417460e+00 4.079842e+00 
7.452720e+00 4.040574e+00 
7.487390e+00 4.002462e+00 
7.522650e+00 3.964201e+00 
7.557320e+00 3.927159e+00 
7.591990e+00 3.890621e+00 
7.627250e+00 3.853933e+00 
7.662510e+00 3.817714e+00 
7.697180e+00 3.782670e+00 
7.731850e+00 3.748109e+00 
7.766510e+00 3.713985e+00 
7.801180e+00 3.680272e+00 
7.836440e+00 3.646490e+00 
7.871110e+00 3.613733e+00 
7.906380e+00 3.580818e+00 
7.941040e+00 3.548867e+00 
7.976310e+00 3.516813e+00 
8.011570e+00 3.485234e+00 
8.046240e+00 3.454558e+00 
8.080900e+00 3.424256e+00 
8.115570e+00 3.394335e+00 
8.150830e+00 3.364381e+00 
8.185500e+00 3.335278e+00 
8.220770e+00 3.306021e+00 
8.255430e+00 3.277608e+00 
8.290100e+00 3.249652e+00 
8.324770e+00 3.222035e+00 
8.359430e+00 3.194743e+00 
8.394700e+00 3.167292e+00 
8.429960e+00 3.140232e+00 
8.464630e+00 3.113995e+00 
8.499890e+00 3.087615e+00 
8.534560e+00 3.061972e+00 
8.569200e+00 3.036640e+00 
