# Parameters:
# omega_b = 0.022272, omega_m = 0.138465, n_s = 0.859449, h = 67.755906, w = -1.000000, sigma_8 = 0.777165
# z = 1.700000
#
# k[1/Mpc] # P(k):
8.694000e-04 5.477996e+03 
2.077466e-03 1.066007e+04 
3.285532e-03 1.435752e+04 
4.493598e-03 1.700603e+04 
5.701664e-03 1.883300e+04 
6.909730e-03 2.001290e+04 
8.117797e-03 2.071081e+04 
9.325863e-03 2.101181e+04 
1.053393e-02 2.099471e+04 
1.174199e-02 2.072816e+04 
1.295006e-02 2.025535e+04 
1.415813e-02 1.963096e+04 
1.536619e-02 1.890060e+04 
1.657426e-02 1.809434e+04 
1.778233e-02 1.723883e+04 
1.899039e-02 1.637329e+04 
2.019846e-02 1.551792e+04 
2.140652e-02 1.468990e+04 
2.261459e-02 1.389810e+04 
2.382266e-02 1.315356e+04 
2.503072e-02 1.246362e+04 
2.623879e-02 1.183010e+04 
2.744685e-02 1.125295e+04 
2.865492e-02 1.073212e+04 
2.986299e-02 1.026406e+04 
3.100100e-02 9.869698e+03 
3.220400e-02 9.497427e+03 
3.288100e-02 9.307463e+03 
3.424300e-02 8.961572e+03 
3.555100e-02 8.668565e+03 
3.686000e-02 8.408127e+03 
3.795000e-02 8.211248e+03 
3.929100e-02 7.989716e+03 
4.039800e-02 7.818569e+03 
4.164000e-02 7.635423e+03 
4.294400e-02 7.446552e+03 
4.415000e-02 7.274433e+03 
4.542900e-02 7.087495e+03 
4.660900e-02 6.913546e+03 
4.782300e-02 6.725048e+03 
4.892900e-02 6.550065e+03 
5.031200e-02 6.324367e+03 
5.155900e-02 6.114173e+03 
5.238100e-02 5.973551e+03 
5.378200e-02 5.732087e+03 
5.513400e-02 5.497997e+03 
5.627600e-02 5.301756e+03 
5.735300e-02 5.120028e+03 
5.870100e-02 4.899155e+03 
5.988700e-02 4.713026e+03 
6.113500e-02 4.526416e+03 
6.225900e-02 4.367607e+03 
6.340100e-02 4.215941e+03 
6.480200e-02 4.043001e+03 
6.601100e-02 3.906606e+03 
6.725500e-02 3.778179e+03 
6.829100e-02 3.681076e+03 
6.958600e-02 3.569965e+03 
7.071100e-02 3.483296e+03 
7.192300e-02 3.398842e+03 
7.307400e-02 3.326444e+03 
7.412300e-02 3.266338e+03 
7.550400e-02 3.195278e+03 
7.663100e-02 3.142270e+03 
7.791200e-02 3.087423e+03 
7.912700e-02 3.038971e+03 
8.027600e-02 2.995178e+03 
8.138400e-02 2.954149e+03 
8.272200e-02 2.905350e+03 
8.406100e-02 2.856422e+03 
8.534100e-02 2.808171e+03 
8.653800e-02 2.761168e+03 
8.759800e-02 2.718402e+03 
8.900300e-02 2.659571e+03 
9.009000e-02 2.612023e+03 
9.113300e-02 2.564453e+03 
9.239600e-02 2.505856e+03 
9.358000e-02 2.449420e+03 
9.496100e-02 2.381688e+03 
9.608400e-02 2.326508e+03 
9.727500e-02 2.268378e+03 
9.852600e-02 2.206804e+03 
9.973800e-02 2.148656e+03 
1.009000e-01 2.094319e+03 
1.020900e-01 2.040497e+03 
1.034000e-01 1.983785e+03 
1.046000e-01 1.934177e+03 
1.057200e-01 1.891036e+03 
1.069100e-01 1.847333e+03 
1.082500e-01 1.802087e+03 
1.093900e-01 1.766567e+03 
1.105400e-01 1.732758e+03 
1.116900e-01 1.702481e+03 
1.129600e-01 1.670877e+03 
1.142000e-01 1.643227e+03 
1.153300e-01 1.619539e+03 
1.166400e-01 1.594122e+03 
1.177800e-01 1.573536e+03 
1.190000e-01 1.552493e+03 
1.201200e-01 1.534135e+03 
1.213400e-01 1.514698e+03 
1.227100e-01 1.493289e+03 
1.238900e-01 1.475145e+03 
1.250700e-01 1.456815e+03 
1.263200e-01 1.437468e+03 
1.275500e-01 1.418025e+03 
1.287500e-01 1.398920e+03 
1.299900e-01 1.378726e+03 
1.311300e-01 1.359965e+03 
1.323500e-01 1.339412e+03 
1.335900e-01 1.318400e+03 
1.347100e-01 1.299041e+03 
1.359800e-01 1.277155e+03 
1.372100e-01 1.255591e+03 
1.384300e-01 1.234442e+03 
1.395700e-01 1.214494e+03 
1.407700e-01 1.193924e+03 
1.420300e-01 1.172323e+03 
1.432800e-01 1.151415e+03 
1.444500e-01 1.132202e+03 
1.456300e-01 1.113260e+03 
1.468900e-01 1.093789e+03 
1.480500e-01 1.076354e+03 
1.491700e-01 1.060159e+03 
1.503800e-01 1.043397e+03 
1.516400e-01 1.026501e+03 
1.528200e-01 1.011764e+03 
1.540200e-01 9.970856e+02 
1.551900e-01 9.838063e+02 
1.564300e-01 9.701951e+02 
1.576600e-01 9.573367e+02 
1.588700e-01 9.453798e+02 
1.600900e-01 9.335866e+02 
1.612700e-01 9.229345e+02 
1.625400e-01 9.116875e+02 
1.637600e-01 9.012367e+02 
1.649500e-01 8.913155e+02 
1.662200e-01 8.809114e+02 
1.674000e-01 8.713545e+02 
1.685000e-01 8.625967e+02 
1.697500e-01 8.526514e+02 
1.710300e-01 8.424916e+02 
1.722200e-01 8.332177e+02 
1.734400e-01 8.234268e+02 
1.746400e-01 8.139489e+02 
1.758700e-01 8.042559e+02 
1.770900e-01 7.945070e+02 
1.782700e-01 7.852434e+02 
1.794600e-01 7.758426e+02 
1.807000e-01 7.660727e+02 
1.819100e-01 7.567092e+02 
1.830100e-01 7.481749e+02 
1.842200e-01 7.389162e+02 
1.855000e-01 7.292962e+02 
1.867000e-01 7.203996e+02 
1.879200e-01 7.115112e+02 
1.890900e-01 7.031461e+02 
1.902800e-01 6.948539e+02 
1.915200e-01 6.863602e+02 
1.926900e-01 6.785236e+02 
1.939000e-01 6.706930e+02 
1.951700e-01 6.626129e+02 
1.963100e-01 6.555347e+02 
1.975100e-01 6.483515e+02 
1.987800e-01 6.408736e+02 
2.000100e-01 6.338091e+02 
2.012500e-01 6.269378e+02 
2.023400e-01 6.209886e+02 
2.036100e-01 6.141917e+02 
2.048900e-01 6.075686e+02 
2.060400e-01 6.017091e+02 
2.072200e-01 5.957905e+02 
2.084200e-01 5.899362e+02 
2.096900e-01 5.838346e+02 
2.109200e-01 5.780157e+02 
2.121100e-01 5.724886e+02 
2.132700e-01 5.671785e+02 
2.145200e-01 5.615395e+02 
2.157200e-01 5.561915e+02 
2.168800e-01 5.510881e+02 
2.180700e-01 5.459257e+02 
2.193400e-01 5.404808e+02 
2.206000e-01 5.351305e+02 
2.217500e-01 5.303162e+02 
2.229500e-01 5.253613e+02 
2.241400e-01 5.204653e+02 
2.253500e-01 5.155548e+02 
2.264900e-01 5.109909e+02 
2.277100e-01 5.061535e+02 
2.289900e-01 5.011291e+02 
2.301500e-01 4.966390e+02 
2.313600e-01 4.920180e+02 
2.325600e-01 4.874714e+02 
2.337700e-01 4.829490e+02 
2.350000e-01 4.784146e+02 
2.362000e-01 4.740467e+02 
2.374100e-01 4.696966e+02 
2.386500e-01 4.652988e+02 
2.399100e-01 4.608915e+02 
2.410400e-01 4.570014e+02 
2.422500e-01 4.528902e+02 
2.435000e-01 4.486995e+02 
2.447300e-01 4.446354e+02 
2.458700e-01 4.409339e+02 
2.470600e-01 4.371180e+02 
2.483300e-01 4.330986e+02 
2.495600e-01 4.292701e+02 
2.507600e-01 4.256003e+02 
2.519600e-01 4.219764e+02 
2.532200e-01 4.182198e+02 
2.543700e-01 4.148533e+02 
2.555500e-01 4.114535e+02 
2.568000e-01 4.078965e+02 
2.580100e-01 4.044964e+02 
2.592400e-01 4.011030e+02 
2.604100e-01 3.979230e+02 
2.616100e-01 3.947000e+02 
2.628400e-01 3.914363e+02 
2.640600e-01 3.882583e+02 
2.652200e-01 3.852797e+02 
2.664300e-01 3.822087e+02 
2.676500e-01 3.791491e+02 
2.688400e-01 3.762104e+02 
2.700700e-01 3.732150e+02 
2.712400e-01 3.703986e+02 
2.724800e-01 3.674481e+02 
2.736700e-01 3.646564e+02 
2.748800e-01 3.618572e+02 
2.761000e-01 3.590672e+02 
2.773200e-01 3.563091e+02 
2.785400e-01 3.535848e+02 
2.797000e-01 3.510279e+02 
2.808900e-01 3.484334e+02 
2.821400e-01 3.457388e+02 
2.833900e-01 3.430752e+02 
2.845500e-01 3.406311e+02 
2.857800e-01 3.380679e+02 
2.870300e-01 3.354922e+02 
2.882100e-01 3.330875e+02 
2.893900e-01 3.307088e+02 
2.906300e-01 3.282366e+02 
2.918900e-01 3.257525e+02 
2.930500e-01 3.234903e+02 
2.942500e-01 3.211740e+02 
2.954200e-01 3.189377e+02 
2.966500e-01 3.166115e+02 
2.978900e-01 3.142918e+02 
2.990400e-01 3.121629e+02 
3.002700e-01 3.099085e+02 
3.015100e-01 3.076596e+02 
3.026800e-01 3.055597e+02 
3.038500e-01 3.034809e+02 
3.050300e-01 3.014055e+02 
3.062600e-01 2.992621e+02 
3.075000e-01 2.971239e+02 
3.087000e-01 2.950762e+02 
3.099100e-01 2.930324e+02 
3.111200e-01 2.910097e+02 
3.123100e-01 2.890411e+02 
3.135300e-01 2.870431e+02 
3.147300e-01 2.850977e+02 
3.159900e-01 2.830758e+02 
3.171800e-01 2.811872e+02 
3.183700e-01 2.793181e+02 
3.196300e-01 2.773589e+02 
3.208400e-01 2.754965e+02 
3.220300e-01 2.736827e+02 
3.232000e-01 2.719194e+02 
3.244300e-01 2.700848e+02 
3.256700e-01 2.682537e+02 
3.269200e-01 2.664262e+02 
3.280800e-01 2.647467e+02 
3.292500e-01 2.630734e+02 
3.304800e-01 2.613326e+02 
3.317100e-01 2.596088e+02 
3.328900e-01 2.579707e+02 
3.340700e-01 2.563478e+02 
3.353600e-01 2.545967e+02 
3.365300e-01 2.530260e+02 
3.377100e-01 2.514562e+02 
3.389200e-01 2.498615e+02 
3.401600e-01 2.482426e+02 
3.413700e-01 2.466838e+02 
3.425300e-01 2.452073e+02 
3.437700e-01 2.436434e+02 
3.449800e-01 2.421315e+02 
3.461800e-01 2.406457e+02 
3.473600e-01 2.392007e+02 
3.485800e-01 2.377274e+02 
3.498100e-01 2.362556e+02 
3.510200e-01 2.348209e+02 
3.522000e-01 2.334341e+02 
3.533900e-01 2.320479e+02 
3.546400e-01 2.306155e+02 
3.558400e-01 2.292534e+02 
3.570600e-01 2.278809e+02 
3.582700e-01 2.265316e+02 
3.595000e-01 2.251722e+02 
3.607100e-01 2.238528e+02 
3.618900e-01 2.225819e+02 
3.631200e-01 2.212687e+02 
3.643200e-01 2.199986e+02 
3.655500e-01 2.187080e+02 
3.667300e-01 2.174804e+02 
3.679500e-01 2.162336e+02 
3.691900e-01 2.149773e+02 
3.703600e-01 2.138020e+02 
3.715700e-01 2.125966e+02 
3.727700e-01 2.114111e+02 
3.739900e-01 2.102196e+02 
3.752000e-01 2.090543e+02 
3.763900e-01 2.079177e+02 
3.775800e-01 2.067904e+02 
3.788200e-01 2.056255e+02 
3.800300e-01 2.044983e+02 
3.812100e-01 2.034137e+02 
3.824200e-01 2.023145e+02 
3.836100e-01 2.012422e+02 
3.848600e-01 2.001251e+02 
3.860400e-01 1.990791e+02 
3.872400e-01 1.980239e+02 
3.884600e-01 1.969665e+02 
3.896500e-01 1.959460e+02 
3.908700e-01 1.949081e+02 
3.920600e-01 1.939037e+02 
3.933100e-01 1.928572e+02 
3.945300e-01 1.918440e+02 
3.957200e-01 1.908705e+02 
3.969300e-01 1.898904e+02 
3.981700e-01 1.888939e+02 
3.993500e-01 1.879531e+02 
4.094840e-01 1.801949e+02 
4.272360e-01 1.679199e+02 
4.454600e-01 1.567615e+02 
4.630560e-01 1.471516e+02 
4.804610e-01 1.386029e+02 
4.980690e-01 1.307860e+02 
5.159230e-01 1.235973e+02 
5.317440e-01 1.177719e+02 
5.489640e-01 1.119472e+02 
5.671990e-01 1.063017e+02 
5.838690e-01 1.015552e+02 
6.018840e-01 9.682676e+01 
6.202330e-01 9.239760e+01 
6.379250e-01 8.845003e+01 
6.545410e-01 8.501343e+01 
6.714560e-01 8.175070e+01 
6.892080e-01 7.856208e+01 
7.066010e-01 7.565320e+01 
7.240540e-01 7.292346e+01 
7.420450e-01 7.029676e+01 
7.593780e-01 6.792801e+01 
7.764720e-01 6.573176e+01 
7.942840e-01 6.358038e+01 
8.116170e-01 6.161165e+01 
8.288310e-01 5.976806e+01 
8.462240e-01 5.800813e+01 
8.631980e-01 5.638297e+01 
8.810700e-01 5.476264e+01 
8.989410e-01 5.322830e+01 
9.166330e-01 5.178795e+01 
9.345640e-01 5.040293e+01 
9.515980e-01 4.915069e+01 
9.688720e-01 4.793981e+01 
9.865640e-01 4.675815e+01 
1.031870e+00 4.396728e+01 
1.063490e+00 4.219983e+01 
1.097920e+00 4.042315e+01 
1.134370e+00 3.868774e+01 
1.167730e+00 3.721756e+01 
1.203830e+00 3.573932e+01 
1.240470e+00 3.434556e+01 
1.275790e+00 3.309345e+01 
1.309140e+00 3.198572e+01 
1.342970e+00 3.092760e+01 
1.378420e+00 2.988494e+01 
1.413200e+00 2.892176e+01 
1.448110e+00 2.800864e+01 
1.484090e+00 2.711930e+01 
1.518820e+00 2.630700e+01 
1.552880e+00 2.555067e+01 
1.588630e+00 2.479618e+01 
1.623230e+00 2.410196e+01 
1.657720e+00 2.344256e+01 
1.692450e+00 2.280935e+01 
1.726400e+00 2.221778e+01 
1.762200e+00 2.162100e+01 
1.797880e+00 2.105283e+01 
1.833270e+00 2.051374e+01 
1.869070e+00 1.999127e+01 
1.903200e+00 1.951347e+01 
1.937740e+00 1.904894e+01 
1.973190e+00 1.859069e+01 
2.007440e+00 1.816499e+01 
2.042160e+00 1.774935e+01 
2.077900e+00 1.733733e+01 
2.112390e+00 1.695450e+01 
2.146220e+00 1.659167e+01 
2.181600e+00 1.622560e+01 
2.216930e+00 1.587258e+01 
2.250760e+00 1.554594e+01 
2.286500e+00 1.521245e+01 
2.321770e+00 1.489436e+01 
2.355950e+00 1.459592e+01 
2.391280e+00 1.429691e+01 
2.426240e+00 1.401030e+01 
2.460670e+00 1.373685e+01 
2.495640e+00 1.346781e+01 
2.531080e+00 1.320299e+01 
2.566220e+00 1.294812e+01 
2.600830e+00 1.270453e+01 
2.635080e+00 1.247052e+01 
2.670340e+00 1.223604e+01 
2.705970e+00 1.200590e+01 
2.740040e+00 1.179204e+01 
2.774520e+00 1.158125e+01 
2.809730e+00 1.137163e+01 
2.844390e+00 1.117096e+01 
2.879960e+00 1.097050e+01 
2.914860e+00 1.077878e+01 
2.949410e+00 1.059400e+01 
2.984440e+00 1.041121e+01 
3.019760e+00 1.023160e+01 
3.054730e+00 1.005843e+01 
3.089030e+00 9.892288e+00 
3.124060e+00 9.726927e+00 
3.159560e+00 9.563464e+00 
3.194710e+00 9.405389e+00 
3.229010e+00 9.254998e+00 
3.263320e+00 9.107476e+00 
3.297930e+00 8.962309e+00 
3.332830e+00 8.819242e+00 
3.368040e+00 8.678180e+00 
3.403300e+00 8.540228e+00 
3.438450e+00 8.405618e+00 
3.473060e+00 8.276274e+00 
3.508440e+00 8.146497e+00 
3.543110e+00 8.022375e+00 
3.577470e+00 7.901769e+00 
3.613040e+00 7.779766e+00 
3.648120e+00 7.661826e+00 
3.682910e+00 7.547440e+00 
3.718050e+00 7.434221e+00 
3.753320e+00 7.323008e+00 
3.787980e+00 7.215875e+00 
3.822290e+00 7.112024e+00 
3.857020e+00 7.008944e+00 
3.891920e+00 6.907497e+00 
3.926650e+00 6.808430e+00 
3.961970e+00 6.709784e+00 
3.997360e+00 6.612772e+00 
4.031670e+00 6.520706e+00 
4.066330e+00 6.429335e+00 
4.101420e+00 6.338818e+00 
4.136200e+00 6.250482e+00 
4.170810e+00 6.164449e+00 
4.206250e+00 6.077885e+00 
4.241580e+00 5.993372e+00 
4.276300e+00 5.911784e+00 
4.310970e+00 5.831842e+00 
4.346120e+00 5.752315e+00 
4.380600e+00 5.675647e+00 
4.414730e+00 5.601265e+00 
4.450350e+00 5.524840e+00 
4.485320e+00 5.451334e+00 
4.519810e+00 5.380031e+00 
4.555430e+00 5.307748e+00 
4.590870e+00 5.237165e+00 
4.625480e+00 5.169367e+00 
4.659910e+00 5.103218e+00 
4.695230e+00 5.036426e+00 
4.729960e+00 4.971976e+00 
4.764450e+00 4.909081e+00 
4.799530e+00 4.846149e+00 
4.834910e+00 4.783885e+00 
4.869700e+00 4.723583e+00 
4.904370e+00 4.664564e+00 
4.939450e+00 4.605893e+00 
4.973940e+00 4.549123e+00 
5.008430e+00 4.493377e+00 
5.043810e+00 4.437092e+00 
5.078840e+00 4.382296e+00 
5.113500e+00 4.329050e+00 
5.148890e+00 4.275462e+00 
5.184210e+00 4.222932e+00 
5.219060e+00 4.171985e+00 
5.253660e+00 4.122190e+00 
5.288570e+00 4.072819e+00 
5.323420e+00 4.024309e+00 
5.358440e+00 3.976317e+00 
5.393590e+00 3.928976e+00 
5.428310e+00 3.882938e+00 
5.462800e+00 3.837935e+00 
5.497640e+00 3.793235e+00 
5.532670e+00 3.748963e+00 
5.567280e+00 3.705922e+00 
5.602000e+00 3.663455e+00 
5.637270e+00 3.620954e+00 
5.672410e+00 3.579292e+00 
5.707020e+00 3.538927e+00 
5.742040e+00 3.498697e+00 
5.777430e+00 3.458693e+00 
5.812210e+00 3.420013e+00 
5.846820e+00 3.382073e+00 
5.881610e+00 3.344524e+00 
5.916510e+00 3.307448e+00 
5.951600e+00 3.270728e+00 
5.986560e+00 3.234704e+00 
6.021830e+00 3.198928e+00 
6.056490e+00 3.164300e+00 
6.091160e+00 3.130178e+00 
6.125830e+00 3.096574e+00 
6.161090e+00 3.062914e+00 
6.195760e+00 3.030307e+00 
6.230420e+00 2.998198e+00 
6.265690e+00 2.966013e+00 
6.300950e+00 2.934318e+00 
6.335620e+00 2.903617e+00 
6.370880e+00 2.872856e+00 
6.405550e+00 2.843052e+00 
6.440220e+00 2.813681e+00 
6.475480e+00 2.784245e+00 
6.510150e+00 2.755727e+00 
6.544810e+00 2.727638e+00 
6.580080e+00 2.699464e+00 
6.614750e+00 2.672166e+00 
6.649410e+00 2.645273e+00 
6.684080e+00 2.618752e+00 
6.719340e+00 2.592160e+00 
6.754010e+00 2.566389e+00 
6.788680e+00 2.540998e+00 
6.823940e+00 2.515534e+00 
6.859800e+00 2.490000e+00 
6.894470e+00 2.465683e+00 
6.929140e+00 2.441706e+00 
6.963800e+00 2.418059e+00 
6.999070e+00 2.394326e+00 
7.033730e+00 2.371357e+00 
7.068400e+00 2.348687e+00 
7.103660e+00 2.325940e+00 
7.138330e+00 2.303884e+00 
7.173600e+00 2.281769e+00 
7.208260e+00 2.260323e+00 
7.243530e+00 2.238786e+00 
7.277600e+00 2.218278e+00 
7.312860e+00 2.197352e+00 
7.348120e+00 2.176699e+00 
7.382790e+00 2.156653e+00 
7.417460e+00 2.136899e+00 
7.452720e+00 2.117084e+00 
7.487390e+00 2.097848e+00 
7.522650e+00 2.078533e+00 
7.557320e+00 2.059825e+00 
7.591990e+00 2.041367e+00 
7.627250e+00 2.022829e+00 
7.662510e+00 2.004523e+00 
7.697180e+00 1.986793e+00 
7.731850e+00 1.969296e+00 
7.766510e+00 1.952018e+00 
7.801180e+00 1.934944e+00 
7.836440e+00 1.917826e+00 
7.871110e+00 1.901221e+00 
7.906380e+00 1.884532e+00 
7.941040e+00 1.868329e+00 
7.976310e+00 1.852064e+00 
8.011570e+00 1.836032e+00 
8.046240e+00 1.820454e+00 
8.080900e+00 1.805063e+00 
8.115570e+00 1.789863e+00 
8.150830e+00 1.774642e+00 
8.185500e+00 1.759850e+00 
8.220770e+00 1.744978e+00 
8.255430e+00 1.730531e+00 
8.290100e+00 1.716302e+00 
8.324770e+00 1.702242e+00 
8.359430e+00 1.688344e+00 
8.394700e+00 1.674363e+00 
8.429960e+00 1.660579e+00 
8.464630e+00 1.647211e+00 
8.499890e+00 1.633768e+00 
8.534560e+00 1.620698e+00 
8.569200e+00 1.607784e+00 
