# Parameters:
# omega_b = 0.022035, omega_m = 0.141496, n_s = 0.914567, h = 68.464567, w = -1.000000, sigma_8 = 0.873228
# z = 1.700000
#
# k[1/Mpc] # P(k):
8.694000e-04 4.867083e+03 
2.077466e-03 9.956873e+03 
3.285532e-03 1.378022e+04 
4.493598e-03 1.664622e+04 
5.701664e-03 1.872238e+04 
6.909730e-03 2.015435e+04 
8.117797e-03 2.109248e+04 
9.325863e-03 2.161432e+04 
1.053393e-02 2.179408e+04 
1.174199e-02 2.169835e+04 
1.295006e-02 2.136952e+04 
1.415813e-02 2.086342e+04 
1.536619e-02 2.022717e+04 
1.657426e-02 1.949240e+04 
1.778233e-02 1.868792e+04 
1.899039e-02 1.785638e+04 
2.019846e-02 1.702055e+04 
2.140652e-02 1.620027e+04 
2.261459e-02 1.540628e+04 
2.382266e-02 1.465192e+04 
2.503072e-02 1.394678e+04 
2.623879e-02 1.329426e+04 
2.744685e-02 1.269521e+04 
2.865492e-02 1.215118e+04 
2.986299e-02 1.165949e+04 
3.100100e-02 1.124301e+04 
3.220400e-02 1.084806e+04 
3.288100e-02 1.064583e+04 
3.424300e-02 1.027653e+04 
3.555100e-02 9.962749e+03 
3.686000e-02 9.683185e+03 
3.795000e-02 9.471557e+03 
3.929100e-02 9.233241e+03 
4.039800e-02 9.049090e+03 
4.164000e-02 8.851928e+03 
4.294400e-02 8.648522e+03 
4.415000e-02 8.463029e+03 
4.542900e-02 8.261227e+03 
4.660900e-02 8.073134e+03 
4.782300e-02 7.868740e+03 
4.892900e-02 7.678501e+03 
5.031200e-02 7.432330e+03 
5.155900e-02 7.202148e+03 
5.238100e-02 7.047646e+03 
5.378200e-02 6.781272e+03 
5.513400e-02 6.521371e+03 
5.627600e-02 6.301954e+03 
5.735300e-02 6.097198e+03 
5.870100e-02 5.845858e+03 
5.988700e-02 5.631754e+03 
6.113500e-02 5.414933e+03 
6.225900e-02 5.228883e+03 
6.340100e-02 5.050258e+03 
6.480200e-02 4.846111e+03 
6.601100e-02 4.685176e+03 
6.725500e-02 4.534114e+03 
6.829100e-02 4.420341e+03 
6.958600e-02 4.290623e+03 
7.071100e-02 4.189824e+03 
7.192300e-02 4.091866e+03 
7.307400e-02 4.008087e+03 
7.412300e-02 3.938662e+03 
7.550400e-02 3.856771e+03 
7.663100e-02 3.795804e+03 
7.791200e-02 3.732915e+03 
7.912700e-02 3.677526e+03 
8.027600e-02 3.627577e+03 
8.138400e-02 3.580861e+03 
8.272200e-02 3.525367e+03 
8.406100e-02 3.469737e+03 
8.534100e-02 3.414804e+03 
8.653800e-02 3.361155e+03 
8.759800e-02 3.312224e+03 
8.900300e-02 3.244695e+03 
9.009000e-02 3.189912e+03 
9.113300e-02 3.134908e+03 
9.239600e-02 3.066976e+03 
9.358000e-02 3.001334e+03 
9.496100e-02 2.922283e+03 
9.608400e-02 2.857733e+03 
9.727500e-02 2.789606e+03 
9.852600e-02 2.717248e+03 
9.973800e-02 2.648809e+03 
1.009000e-01 2.584762e+03 
1.020900e-01 2.521187e+03 
1.034000e-01 2.454104e+03 
1.046000e-01 2.395336e+03 
1.057200e-01 2.344109e+03 
1.069100e-01 2.292148e+03 
1.082500e-01 2.238215e+03 
1.093900e-01 2.195776e+03 
1.105400e-01 2.155317e+03 
1.116900e-01 2.118954e+03 
1.129600e-01 2.080942e+03 
1.142000e-01 2.047572e+03 
1.153300e-01 2.018945e+03 
1.166400e-01 1.988167e+03 
1.177800e-01 1.963218e+03 
1.190000e-01 1.937704e+03 
1.201200e-01 1.915459e+03 
1.213400e-01 1.891910e+03 
1.227100e-01 1.866064e+03 
1.238900e-01 1.844186e+03 
1.250700e-01 1.822168e+03 
1.263200e-01 1.798966e+03 
1.275500e-01 1.775732e+03 
1.287500e-01 1.752944e+03 
1.299900e-01 1.728917e+03 
1.311300e-01 1.706622e+03 
1.323500e-01 1.682237e+03 
1.335900e-01 1.657318e+03 
1.347100e-01 1.634375e+03 
1.359800e-01 1.608431e+03 
1.372100e-01 1.582867e+03 
1.384300e-01 1.557776e+03 
1.395700e-01 1.534086e+03 
1.407700e-01 1.509638e+03 
1.420300e-01 1.483911e+03 
1.432800e-01 1.458992e+03 
1.444500e-01 1.436025e+03 
1.456300e-01 1.413369e+03 
1.468900e-01 1.390005e+03 
1.480500e-01 1.369054e+03 
1.491700e-01 1.349550e+03 
1.503800e-01 1.329308e+03 
1.516400e-01 1.308877e+03 
1.528200e-01 1.290976e+03 
1.540200e-01 1.273139e+03 
1.551900e-01 1.256933e+03 
1.564300e-01 1.240299e+03 
1.576600e-01 1.224551e+03 
1.588700e-01 1.209868e+03 
1.600900e-01 1.195380e+03 
1.612700e-01 1.182252e+03 
1.625400e-01 1.168389e+03 
1.637600e-01 1.155499e+03 
1.649500e-01 1.143257e+03 
1.662200e-01 1.130422e+03 
1.674000e-01 1.118651e+03 
1.685000e-01 1.107862e+03 
1.697500e-01 1.095630e+03 
1.710300e-01 1.083153e+03 
1.722200e-01 1.071761e+03 
1.734400e-01 1.059783e+03 
1.746400e-01 1.048187e+03 
1.758700e-01 1.036338e+03 
1.770900e-01 1.024444e+03 
1.782700e-01 1.013139e+03 
1.794600e-01 1.001680e+03 
1.807000e-01 9.897776e+02 
1.819100e-01 9.783664e+02 
1.830100e-01 9.679702e+02 
1.842200e-01 9.566887e+02 
1.855000e-01 9.449620e+02 
1.867000e-01 9.341105e+02 
1.879200e-01 9.232645e+02 
1.890900e-01 9.130509e+02 
1.902800e-01 9.029112e+02 
1.915200e-01 8.925209e+02 
1.926900e-01 8.829263e+02 
1.939000e-01 8.733207e+02 
1.951700e-01 8.634055e+02 
1.963100e-01 8.547111e+02 
1.975100e-01 8.458699e+02 
1.987800e-01 8.366631e+02 
2.000100e-01 8.279573e+02 
2.012500e-01 8.194754e+02 
2.023400e-01 8.121295e+02 
2.036100e-01 8.037316e+02 
2.048900e-01 7.955341e+02 
2.060400e-01 7.882799e+02 
2.072200e-01 7.809501e+02 
2.084200e-01 7.736897e+02 
2.096900e-01 7.661207e+02 
2.109200e-01 7.589006e+02 
2.121100e-01 7.520334e+02 
2.132700e-01 7.454339e+02 
2.145200e-01 7.384238e+02 
2.157200e-01 7.317702e+02 
2.168800e-01 7.254176e+02 
2.180700e-01 7.189901e+02 
2.193400e-01 7.122049e+02 
2.206000e-01 7.055278e+02 
2.217500e-01 6.995183e+02 
2.229500e-01 6.933318e+02 
2.241400e-01 6.872043e+02 
2.253500e-01 6.810568e+02 
2.264900e-01 6.753421e+02 
2.277100e-01 6.692733e+02 
2.289900e-01 6.629574e+02 
2.301500e-01 6.573118e+02 
2.313600e-01 6.515000e+02 
2.325600e-01 6.457586e+02 
2.337700e-01 6.400464e+02 
2.350000e-01 6.343178e+02 
2.362000e-01 6.287878e+02 
2.374100e-01 6.232668e+02 
2.386500e-01 6.176842e+02 
2.399100e-01 6.120881e+02 
2.410400e-01 6.071305e+02 
2.422500e-01 6.018879e+02 
2.435000e-01 5.965430e+02 
2.447300e-01 5.913559e+02 
2.458700e-01 5.866208e+02 
2.470600e-01 5.817385e+02 
2.483300e-01 5.765949e+02 
2.495600e-01 5.716926e+02 
2.507600e-01 5.669897e+02 
2.519600e-01 5.623449e+02 
2.532200e-01 5.575291e+02 
2.543700e-01 5.532144e+02 
2.555500e-01 5.488575e+02 
2.568000e-01 5.442985e+02 
2.580100e-01 5.399397e+02 
2.592400e-01 5.355959e+02 
2.604100e-01 5.315276e+02 
2.616100e-01 5.274037e+02 
2.628400e-01 5.232271e+02 
2.640600e-01 5.191693e+02 
2.652200e-01 5.153697e+02 
2.664300e-01 5.114514e+02 
2.676500e-01 5.075469e+02 
2.688400e-01 5.038054e+02 
2.700700e-01 4.999970e+02 
2.712400e-01 4.964154e+02 
2.724800e-01 4.926625e+02 
2.736700e-01 4.891178e+02 
2.748800e-01 4.855701e+02 
2.761000e-01 4.820333e+02 
2.773200e-01 4.785362e+02 
2.785400e-01 4.750848e+02 
2.797000e-01 4.718523e+02 
2.808900e-01 4.685716e+02 
2.821400e-01 4.651635e+02 
2.833900e-01 4.617943e+02 
2.845500e-01 4.587109e+02 
2.857800e-01 4.554764e+02 
2.870300e-01 4.522255e+02 
2.882100e-01 4.491897e+02 
2.893900e-01 4.461905e+02 
2.906300e-01 4.430749e+02 
2.918900e-01 4.399438e+02 
2.930500e-01 4.370914e+02 
2.942500e-01 4.341713e+02 
2.954200e-01 4.313546e+02 
2.966500e-01 4.284240e+02 
2.978900e-01 4.255008e+02 
2.990400e-01 4.228174e+02 
3.002700e-01 4.199768e+02 
3.015100e-01 4.171432e+02 
3.026800e-01 4.144967e+02 
3.038500e-01 4.118762e+02 
3.050300e-01 4.092593e+02 
3.062600e-01 4.065579e+02 
3.075000e-01 4.038624e+02 
3.087000e-01 4.012803e+02 
3.099100e-01 3.987025e+02 
3.111200e-01 3.961507e+02 
3.123100e-01 3.936666e+02 
3.135300e-01 3.911449e+02 
3.147300e-01 3.886888e+02 
3.159900e-01 3.861357e+02 
3.171800e-01 3.837496e+02 
3.183700e-01 3.813874e+02 
3.196300e-01 3.789107e+02 
3.208400e-01 3.765556e+02 
3.220300e-01 3.742616e+02 
3.232000e-01 3.720301e+02 
3.244300e-01 3.697075e+02 
3.256700e-01 3.673887e+02 
3.269200e-01 3.650740e+02 
3.280800e-01 3.629461e+02 
3.292500e-01 3.608245e+02 
3.304800e-01 3.586163e+02 
3.317100e-01 3.564291e+02 
3.328900e-01 3.543501e+02 
3.340700e-01 3.522900e+02 
3.353600e-01 3.500649e+02 
3.365300e-01 3.480678e+02 
3.377100e-01 3.460715e+02 
3.389200e-01 3.440430e+02 
3.401600e-01 3.419832e+02 
3.413700e-01 3.399981e+02 
3.425300e-01 3.381161e+02 
3.437700e-01 3.361223e+02 
3.449800e-01 3.341944e+02 
3.461800e-01 3.322994e+02 
3.473600e-01 3.304553e+02 
3.485800e-01 3.285729e+02 
3.498100e-01 3.266921e+02 
3.510200e-01 3.248581e+02 
3.522000e-01 3.230852e+02 
3.533900e-01 3.213124e+02 
3.546400e-01 3.194777e+02 
3.558400e-01 3.177324e+02 
3.570600e-01 3.159734e+02 
3.582700e-01 3.142438e+02 
3.595000e-01 3.125008e+02 
3.607100e-01 3.108076e+02 
3.618900e-01 3.091755e+02 
3.631200e-01 3.074885e+02 
3.643200e-01 3.058566e+02 
3.655500e-01 3.041981e+02 
3.667300e-01 3.026203e+02 
3.679500e-01 3.010147e+02 
3.691900e-01 2.993966e+02 
3.703600e-01 2.978825e+02 
3.715700e-01 2.963293e+02 
3.727700e-01 2.948016e+02 
3.739900e-01 2.932651e+02 
3.752000e-01 2.917610e+02 
3.763900e-01 2.902936e+02 
3.775800e-01 2.888380e+02 
3.788200e-01 2.873335e+02 
3.800300e-01 2.858774e+02 
3.812100e-01 2.844750e+02 
3.824200e-01 2.830527e+02 
3.836100e-01 2.816649e+02 
3.848600e-01 2.802188e+02 
3.860400e-01 2.788646e+02 
3.872400e-01 2.774981e+02 
3.884600e-01 2.761275e+02 
3.896500e-01 2.748039e+02 
3.908700e-01 2.734575e+02 
3.920600e-01 2.721544e+02 
3.933100e-01 2.707963e+02 
3.945300e-01 2.694813e+02 
3.957200e-01 2.682167e+02 
3.969300e-01 2.669429e+02 
3.981700e-01 2.656476e+02 
3.993500e-01 2.644244e+02 
4.094840e-01 2.543228e+02 
4.272360e-01 2.382851e+02 
4.454600e-01 2.236484e+02 
4.630560e-01 2.109979e+02 
4.804610e-01 1.997052e+02 
4.980690e-01 1.893455e+02 
5.159230e-01 1.797839e+02 
5.317440e-01 1.720110e+02 
5.489640e-01 1.642108e+02 
5.671990e-01 1.566249e+02 
5.838690e-01 1.502263e+02 
6.018840e-01 1.438351e+02 
6.202330e-01 1.378297e+02 
6.379250e-01 1.324624e+02 
6.545410e-01 1.277782e+02 
6.714560e-01 1.233227e+02 
6.892080e-01 1.189576e+02 
7.066010e-01 1.149693e+02 
7.240540e-01 1.112171e+02 
7.420450e-01 1.076016e+02 
7.593780e-01 1.043347e+02 
7.764720e-01 1.013005e+02 
7.942840e-01 9.832284e+01 
8.116170e-01 9.559350e+01 
8.288310e-01 9.303204e+01 
8.462240e-01 9.058300e+01 
8.631980e-01 8.831637e+01 
8.810700e-01 8.605152e+01 
8.989410e-01 8.390170e+01 
9.166330e-01 8.187855e+01 
9.345640e-01 7.992961e+01 
9.515980e-01 7.816278e+01 
9.688720e-01 7.644883e+01 
9.865640e-01 7.477222e+01 
1.031870e+00 7.079080e+01 
1.063490e+00 6.825238e+01 
1.097920e+00 6.568675e+01 
1.134370e+00 6.316325e+01 
1.167730e+00 6.101223e+01 
1.203830e+00 5.883281e+01 
1.240470e+00 5.676473e+01 
1.275790e+00 5.489371e+01 
1.309140e+00 5.322913e+01 
1.342970e+00 5.162512e+01 
1.378420e+00 5.003670e+01 
1.413200e+00 4.855947e+01 
1.448110e+00 4.715047e+01 
1.484090e+00 4.576971e+01 
1.518820e+00 4.450102e+01 
1.552880e+00 4.331252e+01 
1.588630e+00 4.212062e+01 
1.623230e+00 4.101785e+01 
1.657720e+00 3.996519e+01 
1.692450e+00 3.894936e+01 
1.726400e+00 3.799568e+01 
1.762200e+00 3.702875e+01 
1.797880e+00 3.610373e+01 
1.833270e+00 3.522257e+01 
1.869070e+00 3.436485e+01 
1.903200e+00 3.357676e+01 
1.937740e+00 3.280808e+01 
1.973190e+00 3.204721e+01 
2.007440e+00 3.133796e+01 
2.042160e+00 3.064258e+01 
2.077900e+00 2.995092e+01 
2.112390e+00 2.930684e+01 
2.146220e+00 2.869393e+01 
2.181600e+00 2.807392e+01 
2.216930e+00 2.747401e+01 
2.250760e+00 2.691768e+01 
2.286500e+00 2.634847e+01 
2.321770e+00 2.580411e+01 
2.355950e+00 2.529215e+01 
2.391280e+00 2.477756e+01 
2.426240e+00 2.428328e+01 
2.460670e+00 2.381099e+01 
2.495640e+00 2.334571e+01 
2.531080e+00 2.288646e+01 
2.566220e+00 2.244343e+01 
2.600830e+00 2.201934e+01 
2.635080e+00 2.161144e+01 
2.670340e+00 2.120215e+01 
2.705970e+00 2.079972e+01 
2.740040e+00 2.042524e+01 
2.774520e+00 2.005559e+01 
2.809730e+00 1.968739e+01 
2.844390e+00 1.933463e+01 
2.879960e+00 1.898200e+01 
2.914860e+00 1.864423e+01 
2.949410e+00 1.831841e+01 
2.984440e+00 1.799562e+01 
3.019760e+00 1.767813e+01 
3.054730e+00 1.737188e+01 
3.089030e+00 1.707777e+01 
3.124060e+00 1.678500e+01 
3.159560e+00 1.649548e+01 
3.194710e+00 1.621517e+01 
3.229010e+00 1.594841e+01 
3.263320e+00 1.568650e+01 
3.297930e+00 1.542872e+01 
3.332830e+00 1.517451e+01 
3.368040e+00 1.492385e+01 
3.403300e+00 1.467874e+01 
3.438450e+00 1.443939e+01 
3.473060e+00 1.420941e+01 
3.508440e+00 1.397851e+01 
3.543110e+00 1.375772e+01 
3.577470e+00 1.354330e+01 
3.613040e+00 1.332636e+01 
3.648120e+00 1.311645e+01 
3.682910e+00 1.291298e+01 
3.718050e+00 1.271174e+01 
3.753320e+00 1.251403e+01 
3.787980e+00 1.232347e+01 
3.822290e+00 1.213882e+01 
3.857020e+00 1.195563e+01 
3.891920e+00 1.177538e+01 
3.926650e+00 1.159937e+01 
3.961970e+00 1.142419e+01 
3.997360e+00 1.125204e+01 
4.031670e+00 1.108869e+01 
4.066330e+00 1.092659e+01 
4.101420e+00 1.076605e+01 
4.136200e+00 1.060951e+01 
4.170810e+00 1.045710e+01 
4.206250e+00 1.030384e+01 
4.241580e+00 1.015426e+01 
4.276300e+00 1.000996e+01 
4.310970e+00 9.868639e+00 
4.346120e+00 9.728114e+00 
4.380600e+00 9.592711e+00 
4.414730e+00 9.461389e+00 
4.450350e+00 9.326586e+00 
4.485320e+00 9.196972e+00 
4.519810e+00 9.071401e+00 
4.555430e+00 8.944196e+00 
4.590870e+00 8.820017e+00 
4.625480e+00 8.700768e+00 
4.659910e+00 8.584455e+00 
4.695230e+00 8.467212e+00 
4.729960e+00 8.354141e+00 
4.764450e+00 8.243882e+00 
4.799530e+00 8.133678e+00 
4.834910e+00 8.024675e+00 
4.869700e+00 7.919196e+00 
4.904370e+00 7.816000e+00 
4.939450e+00 7.713481e+00 
4.973940e+00 7.614404e+00 
5.008430e+00 7.517142e+00 
5.043810e+00 7.419025e+00 
5.078840e+00 7.323566e+00 
5.113500e+00 7.230832e+00 
5.148890e+00 7.137691e+00 
5.184210e+00 7.046420e+00 
5.219060e+00 6.957945e+00 
5.253660e+00 6.871552e+00 
5.288570e+00 6.785920e+00 
5.323420e+00 6.701839e+00 
5.358440e+00 6.618716e+00 
5.393590e+00 6.536743e+00 
5.428310e+00 6.457158e+00 
5.462800e+00 6.379440e+00 
5.497640e+00 6.302266e+00 
5.532670e+00 6.225927e+00 
5.567280e+00 6.151756e+00 
5.602000e+00 6.078590e+00 
5.637270e+00 6.005451e+00 
5.672410e+00 5.933789e+00 
5.707020e+00 5.864373e+00 
5.742040e+00 5.795302e+00 
5.777430e+00 5.726656e+00 
5.812210e+00 5.660296e+00 
5.846820e+00 5.595280e+00 
5.881610e+00 5.530962e+00 
5.916510e+00 5.467470e+00 
5.951600e+00 5.404670e+00 
5.986560e+00 5.343104e+00 
6.021830e+00 5.281976e+00 
6.056490e+00 5.222870e+00 
6.091160e+00 5.164680e+00 
6.125830e+00 5.107387e+00 
6.161090e+00 5.050027e+00 
6.195760e+00 4.994512e+00 
6.230420e+00 4.939855e+00 
6.265690e+00 4.885085e+00 
6.300950e+00 4.831253e+00 
6.335620e+00 4.779118e+00 
6.370880e+00 4.726891e+00 
6.405550e+00 4.676333e+00 
6.440220e+00 4.626530e+00 
6.475480e+00 4.576627e+00 
6.510150e+00 4.528310e+00 
6.544810e+00 4.480773e+00 
6.580080e+00 4.433104e+00 
6.614750e+00 4.386923e+00 
6.649410e+00 4.341468e+00 
6.684080e+00 4.296657e+00 
6.719340e+00 4.251733e+00 
6.754010e+00 4.208226e+00 
6.788680e+00 4.165416e+00 
6.823940e+00 4.122491e+00 
6.859800e+00 4.079455e+00 
6.894470e+00 4.038508e+00 
6.929140e+00 3.998150e+00 
6.963800e+00 3.958356e+00 
6.999070e+00 3.918424e+00 
7.033730e+00 3.879809e+00 
7.068400e+00 3.841704e+00 
7.103660e+00 3.803476e+00 
7.138330e+00 3.766423e+00 
7.173600e+00 3.729295e+00 
7.208260e+00 3.693298e+00 
7.243530e+00 3.657153e+00 
7.277600e+00 3.622755e+00 
7.312860e+00 3.587676e+00 
7.348120e+00 3.553059e+00 
7.382790e+00 3.519466e+00 
7.417460e+00 3.486390e+00 
7.452720e+00 3.453229e+00 
7.487390e+00 3.421042e+00 
7.522650e+00 3.388727e+00 
7.557320e+00 3.357434e+00 
7.591990e+00 3.326562e+00 
7.627250e+00 3.295563e+00 
7.662510e+00 3.264956e+00 
7.697180e+00 3.235333e+00 
7.731850e+00 3.206113e+00 
7.766510e+00 3.177260e+00 
7.801180e+00 3.148753e+00 
7.836440e+00 3.120182e+00 
7.871110e+00 3.092472e+00 
7.906380e+00 3.064626e+00 
7.941040e+00 3.037595e+00 
7.976310e+00 3.010470e+00 
8.011570e+00 2.983743e+00 
8.046240e+00 2.957778e+00 
8.080900e+00 2.932127e+00 
8.115570e+00 2.906797e+00 
8.150830e+00 2.881435e+00 
8.185500e+00 2.856791e+00 
8.220770e+00 2.832015e+00 
8.255430e+00 2.807952e+00 
8.290100e+00 2.784269e+00 
8.324770e+00 2.760872e+00 
8.359430e+00 2.737749e+00 
8.394700e+00 2.714489e+00 
8.429960e+00 2.691558e+00 
8.464630e+00 2.669321e+00 
8.499890e+00 2.646962e+00 
8.534560e+00 2.625226e+00 
8.569200e+00 2.603751e+00 
