# Parameters:
# omega_b = 0.023421, omega_m = 0.140669, n_s = 0.988583, h = 72.007874, w = -1.000000, sigma_8 = 0.841732
# z = 1.700000
#
# k[1/Mpc] # P(k):
8.694000e-04 3.285040e+03 
2.077466e-03 7.171139e+03 
3.285532e-03 1.025603e+04 
4.493598e-03 1.266838e+04 
5.701664e-03 1.448149e+04 
6.909730e-03 1.578725e+04 
8.117797e-03 1.669428e+04 
9.325863e-03 1.725750e+04 
1.053393e-02 1.753109e+04 
1.174199e-02 1.756484e+04 
1.295006e-02 1.739190e+04 
1.415813e-02 1.705802e+04 
1.536619e-02 1.660214e+04 
1.657426e-02 1.605145e+04 
1.778233e-02 1.543158e+04 
1.899039e-02 1.477996e+04 
2.019846e-02 1.411685e+04 
2.140652e-02 1.346029e+04 
2.261459e-02 1.282043e+04 
2.382266e-02 1.220964e+04 
2.503072e-02 1.163667e+04 
2.623879e-02 1.110503e+04 
2.744685e-02 1.061606e+04 
2.865492e-02 1.017179e+04 
2.986299e-02 9.770510e+03 
3.100100e-02 9.431285e+03 
3.220400e-02 9.110733e+03 
3.288100e-02 8.947388e+03 
3.424300e-02 8.651004e+03 
3.555100e-02 8.401669e+03 
3.686000e-02 8.182295e+03 
3.795000e-02 8.018231e+03 
3.929100e-02 7.836211e+03 
4.039800e-02 7.697113e+03 
4.164000e-02 7.549123e+03 
4.294400e-02 7.396822e+03 
4.415000e-02 7.257377e+03 
4.542900e-02 7.103830e+03 
4.660900e-02 6.959048e+03 
4.782300e-02 6.798539e+03 
4.892900e-02 6.647019e+03 
5.031200e-02 6.447545e+03 
5.155900e-02 6.257724e+03 
5.238100e-02 6.128799e+03 
5.378200e-02 5.904032e+03 
5.513400e-02 5.681620e+03 
5.627600e-02 5.491582e+03 
5.735300e-02 5.312533e+03 
5.870100e-02 5.090581e+03 
5.988700e-02 4.899992e+03 
6.113500e-02 4.706102e+03 
6.225900e-02 4.539621e+03 
6.340100e-02 4.380459e+03 
6.480200e-02 4.200052e+03 
6.601100e-02 4.059808e+03 
6.725500e-02 3.930113e+03 
6.829100e-02 3.834074e+03 
6.958600e-02 3.725974e+03 
7.071100e-02 3.643326e+03 
7.192300e-02 3.564087e+03 
7.307400e-02 3.497205e+03 
7.412300e-02 3.442406e+03 
7.550400e-02 3.378582e+03 
7.663100e-02 3.331460e+03 
7.791200e-02 3.283199e+03 
7.912700e-02 3.240664e+03 
8.027600e-02 3.202076e+03 
8.138400e-02 3.165652e+03 
8.272200e-02 3.121749e+03 
8.406100e-02 3.076904e+03 
8.534100e-02 3.031555e+03 
8.653800e-02 2.986345e+03 
8.759800e-02 2.944561e+03 
8.900300e-02 2.886075e+03 
9.009000e-02 2.837997e+03 
9.113300e-02 2.789232e+03 
9.239600e-02 2.728627e+03 
9.358000e-02 2.669658e+03 
9.496100e-02 2.598189e+03 
9.608400e-02 2.539643e+03 
9.727500e-02 2.477731e+03 
9.852600e-02 2.411812e+03 
9.973800e-02 2.349487e+03 
1.009000e-01 2.291189e+03 
1.020900e-01 2.233525e+03 
1.034000e-01 2.172870e+03 
1.046000e-01 2.119936e+03 
1.057200e-01 2.074262e+03 
1.069100e-01 2.028137e+03 
1.082500e-01 1.980899e+03 
1.093900e-01 1.944186e+03 
1.105400e-01 1.909460e+03 
1.116900e-01 1.878940e+03 
1.129600e-01 1.847275e+03 
1.142000e-01 1.820104e+03 
1.153300e-01 1.796999e+03 
1.166400e-01 1.772493e+03 
1.177800e-01 1.752797e+03 
1.190000e-01 1.732740e+03 
1.201200e-01 1.715163e+03 
1.213400e-01 1.696542e+03 
1.227100e-01 1.675627e+03 
1.238900e-01 1.657780e+03 
1.250700e-01 1.639340e+03 
1.263200e-01 1.619694e+03 
1.275500e-01 1.599547e+03 
1.287500e-01 1.579549e+03 
1.299900e-01 1.558098e+03 
1.311300e-01 1.538015e+03 
1.323500e-01 1.515793e+03 
1.335900e-01 1.492977e+03 
1.347100e-01 1.471837e+03 
1.359800e-01 1.447906e+03 
1.372100e-01 1.424273e+03 
1.384300e-01 1.401100e+03 
1.395700e-01 1.379262e+03 
1.407700e-01 1.356745e+03 
1.420300e-01 1.333205e+03 
1.432800e-01 1.310409e+03 
1.444500e-01 1.289623e+03 
1.456300e-01 1.269121e+03 
1.468900e-01 1.248179e+03 
1.480500e-01 1.229459e+03 
1.491700e-01 1.212147e+03 
1.503800e-01 1.194326e+03 
1.516400e-01 1.176382e+03 
1.528200e-01 1.160868e+03 
1.540200e-01 1.145406e+03 
1.551900e-01 1.131527e+03 
1.564300e-01 1.117323e+03 
1.576600e-01 1.103938e+03 
1.588700e-01 1.091537e+03 
1.600900e-01 1.079300e+03 
1.612700e-01 1.068260e+03 
1.625400e-01 1.056598e+03 
1.637600e-01 1.045712e+03 
1.649500e-01 1.035348e+03 
1.662200e-01 1.024455e+03 
1.674000e-01 1.014336e+03 
1.685000e-01 1.005061e+03 
1.697500e-01 9.944354e+02 
1.710300e-01 9.834904e+02 
1.722200e-01 9.734964e+02 
1.734400e-01 9.627811e+02 
1.746400e-01 9.523987e+02 
1.758700e-01 9.417353e+02 
1.770900e-01 9.309233e+02 
1.782700e-01 9.206464e+02 
1.794600e-01 9.101717e+02 
1.807000e-01 8.992547e+02 
1.819100e-01 8.887885e+02 
1.830100e-01 8.792310e+02 
1.842200e-01 8.688566e+02 
1.855000e-01 8.580749e+02 
1.867000e-01 8.481269e+02 
1.879200e-01 8.381846e+02 
1.890900e-01 8.288331e+02 
1.902800e-01 8.196050e+02 
1.915200e-01 8.101490e+02 
1.926900e-01 8.014361e+02 
1.939000e-01 7.927753e+02 
1.951700e-01 7.838348e+02 
1.963100e-01 7.760149e+02 
1.975100e-01 7.681163e+02 
1.987800e-01 7.598903e+02 
2.000100e-01 7.521279e+02 
2.012500e-01 7.446029e+02 
2.023400e-01 7.380852e+02 
2.036100e-01 7.306388e+02 
2.048900e-01 7.233905e+02 
2.060400e-01 7.169755e+02 
2.072200e-01 7.104928e+02 
2.084200e-01 7.040689e+02 
2.096900e-01 6.973714e+02 
2.109200e-01 6.909817e+02 
2.121100e-01 6.848833e+02 
2.132700e-01 6.790211e+02 
2.145200e-01 6.727935e+02 
2.157200e-01 6.668630e+02 
2.168800e-01 6.611917e+02 
2.180700e-01 6.554530e+02 
2.193400e-01 6.493856e+02 
2.206000e-01 6.433979e+02 
2.217500e-01 6.380084e+02 
2.229500e-01 6.324598e+02 
2.241400e-01 6.269501e+02 
2.253500e-01 6.214217e+02 
2.264900e-01 6.162821e+02 
2.277100e-01 6.108241e+02 
2.289900e-01 6.051435e+02 
2.301500e-01 6.000654e+02 
2.313600e-01 5.948377e+02 
2.325600e-01 5.896843e+02 
2.337700e-01 5.845568e+02 
2.350000e-01 5.794141e+02 
2.362000e-01 5.744582e+02 
2.374100e-01 5.695204e+02 
2.386500e-01 5.645270e+02 
2.399100e-01 5.595211e+02 
2.410400e-01 5.551025e+02 
2.422500e-01 5.504316e+02 
2.435000e-01 5.456690e+02 
2.447300e-01 5.410494e+02 
2.458700e-01 5.368436e+02 
2.470600e-01 5.325065e+02 
2.483300e-01 5.279368e+02 
2.495600e-01 5.235839e+02 
2.507600e-01 5.194116e+02 
2.519600e-01 5.152902e+02 
2.532200e-01 5.110167e+02 
2.543700e-01 5.071860e+02 
2.555500e-01 5.033164e+02 
2.568000e-01 4.992669e+02 
2.580100e-01 4.953948e+02 
2.592400e-01 4.915287e+02 
2.604100e-01 4.879043e+02 
2.616100e-01 4.842300e+02 
2.628400e-01 4.805084e+02 
2.640600e-01 4.768820e+02 
2.652200e-01 4.734818e+02 
2.664300e-01 4.699752e+02 
2.676500e-01 4.664806e+02 
2.688400e-01 4.631220e+02 
2.700700e-01 4.596972e+02 
2.712400e-01 4.564761e+02 
2.724800e-01 4.531008e+02 
2.736700e-01 4.499054e+02 
2.748800e-01 4.466999e+02 
2.761000e-01 4.435041e+02 
2.773200e-01 4.403440e+02 
2.785400e-01 4.372213e+02 
2.797000e-01 4.342887e+02 
2.808900e-01 4.313124e+02 
2.821400e-01 4.282203e+02 
2.833900e-01 4.251629e+02 
2.845500e-01 4.223576e+02 
2.857800e-01 4.194147e+02 
2.870300e-01 4.164568e+02 
2.882100e-01 4.136944e+02 
2.893900e-01 4.109621e+02 
2.906300e-01 4.081220e+02 
2.918900e-01 4.052676e+02 
2.930500e-01 4.026673e+02 
2.942500e-01 4.000045e+02 
2.954200e-01 3.974339e+02 
2.966500e-01 3.947593e+02 
2.978900e-01 3.920914e+02 
2.990400e-01 3.896424e+02 
3.002700e-01 3.870492e+02 
3.015100e-01 3.844621e+02 
3.026800e-01 3.820458e+02 
3.038500e-01 3.796532e+02 
3.050300e-01 3.772638e+02 
3.062600e-01 3.747977e+02 
3.075000e-01 3.723369e+02 
3.087000e-01 3.699795e+02 
3.099100e-01 3.676260e+02 
3.111200e-01 3.652968e+02 
3.123100e-01 3.630300e+02 
3.135300e-01 3.607289e+02 
3.147300e-01 3.584877e+02 
3.159900e-01 3.561577e+02 
3.171800e-01 3.539810e+02 
3.183700e-01 3.518265e+02 
3.196300e-01 3.495676e+02 
3.208400e-01 3.474195e+02 
3.220300e-01 3.453270e+02 
3.232000e-01 3.432927e+02 
3.244300e-01 3.411758e+02 
3.256700e-01 3.390622e+02 
3.269200e-01 3.369523e+02 
3.280800e-01 3.350126e+02 
3.292500e-01 3.330795e+02 
3.304800e-01 3.310677e+02 
3.317100e-01 3.290749e+02 
3.328900e-01 3.271808e+02 
3.340700e-01 3.253037e+02 
3.353600e-01 3.232767e+02 
3.365300e-01 3.214577e+02 
3.377100e-01 3.196394e+02 
3.389200e-01 3.177915e+02 
3.401600e-01 3.159152e+02 
3.413700e-01 3.141070e+02 
3.425300e-01 3.123930e+02 
3.437700e-01 3.105770e+02 
3.449800e-01 3.088209e+02 
3.461800e-01 3.070948e+02 
3.473600e-01 3.054149e+02 
3.485800e-01 3.036999e+02 
3.498100e-01 3.019863e+02 
3.510200e-01 3.003154e+02 
3.522000e-01 2.986999e+02 
3.533900e-01 2.970846e+02 
3.546400e-01 2.954122e+02 
3.558400e-01 2.938212e+02 
3.570600e-01 2.922176e+02 
3.582700e-01 2.906408e+02 
3.595000e-01 2.890517e+02 
3.607100e-01 2.875074e+02 
3.618900e-01 2.860182e+02 
3.631200e-01 2.844789e+02 
3.643200e-01 2.829899e+02 
3.655500e-01 2.814765e+02 
3.667300e-01 2.800367e+02 
3.679500e-01 2.785700e+02 
3.691900e-01 2.770918e+02 
3.703600e-01 2.757086e+02 
3.715700e-01 2.742896e+02 
3.727700e-01 2.728938e+02 
3.739900e-01 2.714895e+02 
3.752000e-01 2.701137e+02 
3.763900e-01 2.687715e+02 
3.775800e-01 2.674400e+02 
3.788200e-01 2.660638e+02 
3.800300e-01 2.647318e+02 
3.812100e-01 2.634478e+02 
3.824200e-01 2.621446e+02 
3.836100e-01 2.608731e+02 
3.848600e-01 2.595482e+02 
3.860400e-01 2.583074e+02 
3.872400e-01 2.570553e+02 
3.884600e-01 2.557981e+02 
3.896500e-01 2.545835e+02 
3.908700e-01 2.533479e+02 
3.920600e-01 2.521521e+02 
3.933100e-01 2.509057e+02 
3.945300e-01 2.496989e+02 
3.957200e-01 2.485365e+02 
3.969300e-01 2.473652e+02 
3.981700e-01 2.461742e+02 
3.993500e-01 2.450494e+02 
4.094840e-01 2.357533e+02 
4.272360e-01 2.209454e+02 
4.454600e-01 2.073954e+02 
4.630560e-01 1.956627e+02 
4.804610e-01 1.851787e+02 
4.980690e-01 1.755573e+02 
5.159230e-01 1.666791e+02 
5.317440e-01 1.594638e+02 
5.489640e-01 1.522281e+02 
5.671990e-01 1.451954e+02 
5.838690e-01 1.392659e+02 
6.018840e-01 1.333448e+02 
6.202330e-01 1.277834e+02 
6.379250e-01 1.228139e+02 
6.545410e-01 1.184779e+02 
6.714560e-01 1.143534e+02 
6.892080e-01 1.103135e+02 
7.066010e-01 1.066218e+02 
7.240540e-01 1.031493e+02 
7.420450e-01 9.980308e+01 
7.593780e-01 9.678015e+01 
7.764720e-01 9.397245e+01 
7.942840e-01 9.121765e+01 
8.116170e-01 8.869295e+01 
8.288310e-01 8.632439e+01 
8.462240e-01 8.406021e+01 
8.631980e-01 8.196542e+01 
8.810700e-01 7.987319e+01 
8.989410e-01 7.788814e+01 
9.166330e-01 7.602114e+01 
9.345640e-01 7.422283e+01 
9.515980e-01 7.259359e+01 
9.688720e-01 7.101441e+01 
9.865640e-01 6.947041e+01 
1.031870e+00 6.580770e+01 
1.063490e+00 6.347526e+01 
1.097920e+00 6.112074e+01 
1.134370e+00 5.880743e+01 
1.167730e+00 5.683772e+01 
1.203830e+00 5.484446e+01 
1.240470e+00 5.295472e+01 
1.275790e+00 5.124641e+01 
1.309140e+00 4.972767e+01 
1.342970e+00 4.826593e+01 
1.378420e+00 4.681887e+01 
1.413200e+00 4.547385e+01 
1.448110e+00 4.419130e+01 
1.484090e+00 4.293531e+01 
1.518820e+00 4.178137e+01 
1.552880e+00 4.070055e+01 
1.588630e+00 3.961671e+01 
1.623230e+00 3.861412e+01 
1.657720e+00 3.765718e+01 
1.692450e+00 3.673361e+01 
1.726400e+00 3.586618e+01 
1.762200e+00 3.498665e+01 
1.797880e+00 3.414525e+01 
1.833270e+00 3.334346e+01 
1.869070e+00 3.256261e+01 
1.903200e+00 3.184516e+01 
1.937740e+00 3.114502e+01 
1.973190e+00 3.045154e+01 
2.007440e+00 2.980477e+01 
2.042160e+00 2.917054e+01 
2.077900e+00 2.853939e+01 
2.112390e+00 2.795113e+01 
2.146220e+00 2.739116e+01 
2.181600e+00 2.682433e+01 
2.216930e+00 2.627563e+01 
2.250760e+00 2.576642e+01 
2.286500e+00 2.524503e+01 
2.321770e+00 2.474612e+01 
2.355950e+00 2.427662e+01 
2.391280e+00 2.380436e+01 
2.426240e+00 2.335045e+01 
2.460670e+00 2.291642e+01 
2.495640e+00 2.248848e+01 
2.531080e+00 2.206568e+01 
2.566220e+00 2.165766e+01 
2.600830e+00 2.126682e+01 
2.635080e+00 2.089060e+01 
2.670340e+00 2.051259e+01 
2.705970e+00 2.014074e+01 
2.740040e+00 1.979452e+01 
2.774520e+00 1.945242e+01 
2.809730e+00 1.911142e+01 
2.844390e+00 1.878448e+01 
2.879960e+00 1.845730e+01 
2.914860e+00 1.814363e+01 
2.949410e+00 1.784089e+01 
2.984440e+00 1.754071e+01 
3.019760e+00 1.724523e+01 
3.054730e+00 1.696003e+01 
3.089030e+00 1.668576e+01 
3.124060e+00 1.641253e+01 
3.159560e+00 1.614210e+01 
3.194710e+00 1.588005e+01 
3.229010e+00 1.563053e+01 
3.263320e+00 1.538525e+01 
3.297930e+00 1.514370e+01 
3.332830e+00 1.490528e+01 
3.368040e+00 1.466996e+01 
3.403300e+00 1.443966e+01 
3.438450e+00 1.421454e+01 
3.473060e+00 1.399813e+01 
3.508440e+00 1.378058e+01 
3.543110e+00 1.357247e+01 
3.577470e+00 1.337002e+01 
3.613040e+00 1.316511e+01 
3.648120e+00 1.296671e+01 
3.682910e+00 1.277422e+01 
3.718050e+00 1.258359e+01 
3.753320e+00 1.239620e+01 
3.787980e+00 1.221546e+01 
3.822290e+00 1.204018e+01 
3.857020e+00 1.186611e+01 
3.891920e+00 1.169471e+01 
3.926650e+00 1.152719e+01 
3.961970e+00 1.136033e+01 
3.997360e+00 1.119615e+01 
4.031670e+00 1.104030e+01 
4.066330e+00 1.088547e+01 
4.101420e+00 1.073209e+01 
4.136200e+00 1.058230e+01 
4.170810e+00 1.043643e+01 
4.206250e+00 1.028955e+01 
4.241580e+00 1.014614e+01 
4.276300e+00 1.000763e+01 
4.310970e+00 9.871902e+00 
4.346120e+00 9.736836e+00 
4.380600e+00 9.606560e+00 
4.414730e+00 9.480173e+00 
4.450350e+00 9.350266e+00 
4.485320e+00 9.225323e+00 
4.519810e+00 9.104120e+00 
4.555430e+00 8.981249e+00 
4.590870e+00 8.861237e+00 
4.625480e+00 8.745893e+00 
4.659910e+00 8.633357e+00 
4.695230e+00 8.519754e+00 
4.729960e+00 8.410143e+00 
4.764450e+00 8.303173e+00 
4.799530e+00 8.196134e+00 
4.834910e+00 8.090234e+00 
4.869700e+00 7.987652e+00 
4.904370e+00 7.887252e+00 
4.939450e+00 7.787450e+00 
4.973940e+00 7.690883e+00 
5.008430e+00 7.596062e+00 
5.043810e+00 7.500318e+00 
5.078840e+00 7.407106e+00 
5.113500e+00 7.316532e+00 
5.148890e+00 7.225410e+00 
5.184210e+00 7.136090e+00 
5.219060e+00 7.049465e+00 
5.253660e+00 6.964798e+00 
5.288570e+00 6.880856e+00 
5.323420e+00 6.798374e+00 
5.358440e+00 6.716768e+00 
5.393590e+00 6.636271e+00 
5.428310e+00 6.558026e+00 
5.462800e+00 6.481559e+00 
5.497640e+00 6.405609e+00 
5.532670e+00 6.330404e+00 
5.567280e+00 6.257298e+00 
5.602000e+00 6.185169e+00 
5.637270e+00 6.112980e+00 
5.672410e+00 6.042219e+00 
5.707020e+00 5.973662e+00 
5.742040e+00 5.905360e+00 
5.777430e+00 5.837447e+00 
5.812210e+00 5.771783e+00 
5.846820e+00 5.707387e+00 
5.881610e+00 5.643656e+00 
5.916510e+00 5.580733e+00 
5.951600e+00 5.518424e+00 
5.986560e+00 5.457304e+00 
6.021830e+00 5.396607e+00 
6.056490e+00 5.337868e+00 
6.091160e+00 5.279996e+00 
6.125830e+00 5.223006e+00 
6.161090e+00 5.165922e+00 
6.195760e+00 5.110626e+00 
6.230420e+00 5.056175e+00 
6.265690e+00 5.001600e+00 
6.300950e+00 4.947875e+00 
6.335620e+00 4.895836e+00 
6.370880e+00 4.843695e+00 
6.405550e+00 4.793178e+00 
6.440220e+00 4.743395e+00 
6.475480e+00 4.693504e+00 
6.510150e+00 4.645172e+00 
6.544810e+00 4.597571e+00 
6.580080e+00 4.549829e+00 
6.614750e+00 4.503572e+00 
6.649410e+00 4.457996e+00 
6.684080e+00 4.413052e+00 
6.719340e+00 4.367988e+00 
6.754010e+00 4.324322e+00 
6.788680e+00 4.281311e+00 
6.823940e+00 4.238176e+00 
6.859800e+00 4.194926e+00 
6.894470e+00 4.153731e+00 
6.929140e+00 4.113111e+00 
6.963800e+00 4.073052e+00 
6.999070e+00 4.032846e+00 
7.033730e+00 3.993926e+00 
7.068400e+00 3.955516e+00 
7.103660e+00 3.916975e+00 
7.138330e+00 3.879604e+00 
7.173600e+00 3.842129e+00 
7.208260e+00 3.805790e+00 
7.243530e+00 3.769298e+00 
7.277600e+00 3.734543e+00 
7.312860e+00 3.699072e+00 
7.348120e+00 3.664067e+00 
7.382790e+00 3.630093e+00 
7.417460e+00 3.596609e+00 
7.452720e+00 3.563022e+00 
7.487390e+00 3.530418e+00 
7.522650e+00 3.497681e+00 
7.557320e+00 3.465956e+00 
7.591990e+00 3.434649e+00 
7.627250e+00 3.403209e+00 
7.662510e+00 3.372164e+00 
7.697180e+00 3.342088e+00 
7.731850e+00 3.312408e+00 
7.766510e+00 3.283099e+00 
7.801180e+00 3.254138e+00 
7.836440e+00 3.225090e+00 
7.871110e+00 3.196902e+00 
7.906380e+00 3.168575e+00 
7.941040e+00 3.141073e+00 
7.976310e+00 3.113461e+00 
8.011570e+00 3.086235e+00 
8.046240e+00 3.059784e+00 
8.080900e+00 3.033651e+00 
8.115570e+00 3.007838e+00 
8.150830e+00 2.981971e+00 
8.185500e+00 2.956835e+00 
8.220770e+00 2.931563e+00 
8.255430e+00 2.907016e+00 
8.290100e+00 2.882827e+00 
8.324770e+00 2.858924e+00 
8.359430e+00 2.835300e+00 
8.394700e+00 2.811535e+00 
8.429960e+00 2.788092e+00 
8.464630e+00 2.765346e+00 
8.499890e+00 2.742475e+00 
8.534560e+00 2.720238e+00 
8.569200e+00 2.698268e+00 
