# Parameters:
# omega_b = 0.021972, omega_m = 0.151142, n_s = 0.955512, h = 57.834646, w = -1.000000, sigma_8 = 0.762992
# z = 1.700000
#
# k[1/Mpc] # P(k):
8.694000e-04 2.725840e+03 
2.077466e-03 5.819255e+03 
3.285532e-03 8.269733e+03 
4.493598e-03 1.019357e+04 
5.701664e-03 1.166343e+04 
6.909730e-03 1.274494e+04 
8.117797e-03 1.351581e+04 
9.325863e-03 1.401669e+04 
1.053393e-02 1.429027e+04 
1.174199e-02 1.437746e+04 
1.295006e-02 1.430295e+04 
1.415813e-02 1.410087e+04 
1.536619e-02 1.380165e+04 
1.657426e-02 1.342526e+04 
1.778233e-02 1.298938e+04 
1.899039e-02 1.252149e+04 
2.019846e-02 1.203681e+04 
2.140652e-02 1.154923e+04 
2.261459e-02 1.106600e+04 
2.382266e-02 1.059720e+04 
2.503072e-02 1.015091e+04 
2.623879e-02 9.730963e+03 
2.744685e-02 9.338698e+03 
2.865492e-02 8.977272e+03 
2.986299e-02 8.646293e+03 
3.100100e-02 8.362342e+03 
3.220400e-02 8.090113e+03 
3.288100e-02 7.949424e+03 
3.424300e-02 7.690627e+03 
3.555100e-02 7.469002e+03 
3.686000e-02 7.270399e+03 
3.795000e-02 7.119628e+03 
3.929100e-02 6.949831e+03 
4.039800e-02 6.819102e+03 
4.164000e-02 6.679779e+03 
4.294400e-02 6.537481e+03 
4.415000e-02 6.408666e+03 
4.542900e-02 6.269946e+03 
4.660900e-02 6.141379e+03 
4.782300e-02 6.002443e+03 
4.892900e-02 5.873282e+03 
5.031200e-02 5.706144e+03 
5.155900e-02 5.549316e+03 
5.238100e-02 5.443680e+03 
5.378200e-02 5.260963e+03 
5.513400e-02 5.082271e+03 
5.627600e-02 4.931736e+03 
5.735300e-02 4.792224e+03 
5.870100e-02 4.623154e+03 
5.988700e-02 4.481375e+03 
6.113500e-02 4.339458e+03 
6.225900e-02 4.217940e+03 
6.340100e-02 4.099869e+03 
6.480200e-02 3.961449e+03 
6.601100e-02 3.847146e+03 
6.725500e-02 3.734438e+03 
6.829100e-02 3.644951e+03 
6.958600e-02 3.538885e+03 
7.071100e-02 3.452851e+03 
7.192300e-02 3.366629e+03 
7.307400e-02 3.291036e+03 
7.412300e-02 3.227353e+03 
7.550400e-02 3.151299e+03 
7.663100e-02 3.094516e+03 
7.791200e-02 3.036421e+03 
7.912700e-02 2.986436e+03 
8.027600e-02 2.942639e+03 
8.138400e-02 2.902955e+03 
8.272200e-02 2.857757e+03 
8.406100e-02 2.814542e+03 
8.534100e-02 2.774102e+03 
8.653800e-02 2.736116e+03 
8.759800e-02 2.702194e+03 
8.900300e-02 2.656251e+03 
9.009000e-02 2.619414e+03 
9.113300e-02 2.582473e+03 
9.239600e-02 2.536723e+03 
9.358000e-02 2.492176e+03 
9.496100e-02 2.437647e+03 
9.608400e-02 2.392443e+03 
9.727500e-02 2.344150e+03 
9.852600e-02 2.291247e+03 
9.973800e-02 2.240332e+03 
1.009000e-01 2.191959e+03 
1.020900e-01 2.142075e+03 
1.034000e-01 2.088484e+03 
1.046000e-01 2.040544e+03 
1.057200e-01 1.997089e+03 
1.069100e-01 1.952403e+03 
1.082500e-01 1.904284e+03 
1.093900e-01 1.865406e+03 
1.105400e-01 1.827746e+03 
1.116900e-01 1.792679e+03 
1.129600e-01 1.755683e+03 
1.142000e-01 1.722430e+03 
1.153300e-01 1.693833e+03 
1.166400e-01 1.662957e+03 
1.177800e-01 1.638266e+03 
1.190000e-01 1.613186e+03 
1.201200e-01 1.592343e+03 
1.213400e-01 1.570468e+03 
1.227100e-01 1.548435e+03 
1.238900e-01 1.530213e+03 
1.250700e-01 1.513253e+03 
1.263200e-01 1.495850e+03 
1.275500e-01 1.479446e+03 
1.287500e-01 1.463703e+03 
1.299900e-01 1.447637e+03 
1.311300e-01 1.432786e+03 
1.323500e-01 1.416623e+03 
1.335900e-01 1.399887e+03 
1.347100e-01 1.384199e+03 
1.359800e-01 1.366119e+03 
1.372100e-01 1.347647e+03 
1.384300e-01 1.329162e+03 
1.395700e-01 1.310901e+03 
1.407700e-01 1.291929e+03 
1.420300e-01 1.270818e+03 
1.432800e-01 1.250361e+03 
1.444500e-01 1.230486e+03 
1.456300e-01 1.210883e+03 
1.468900e-01 1.190099e+03 
1.480500e-01 1.171298e+03 
1.491700e-01 1.153618e+03 
1.503800e-01 1.135040e+03 
1.516400e-01 1.116275e+03 
1.528200e-01 1.099731e+03 
1.540200e-01 1.083257e+03 
1.551900e-01 1.068378e+03 
1.564300e-01 1.053137e+03 
1.576600e-01 1.038838e+03 
1.588700e-01 1.025663e+03 
1.600900e-01 1.012687e+03 
1.612700e-01 1.001294e+03 
1.625400e-01 9.892627e+02 
1.637600e-01 9.783149e+02 
1.649500e-01 9.680579e+02 
1.662200e-01 9.573515e+02 
1.674000e-01 9.478021e+02 
1.685000e-01 9.390489e+02 
1.697500e-01 9.292209e+02 
1.710300e-01 9.192899e+02 
1.722200e-01 9.102209e+02 
1.734400e-01 9.007463e+02 
1.746400e-01 8.915737e+02 
1.758700e-01 8.821793e+02 
1.770900e-01 8.727083e+02 
1.782700e-01 8.637031e+02 
1.794600e-01 8.544955e+02 
1.807000e-01 8.448786e+02 
1.819100e-01 8.356556e+02 
1.830100e-01 8.271126e+02 
1.842200e-01 8.178169e+02 
1.855000e-01 8.081447e+02 
1.867000e-01 7.990189e+02 
1.879200e-01 7.898968e+02 
1.890900e-01 7.812802e+02 
1.902800e-01 7.725935e+02 
1.915200e-01 7.636922e+02 
1.926900e-01 7.554447e+02 
1.939000e-01 7.470970e+02 
1.951700e-01 7.384808e+02 
1.963100e-01 7.309086e+02 
1.975100e-01 7.231618e+02 
1.987800e-01 7.150956e+02 
2.000100e-01 7.074657e+02 
2.012500e-01 7.000241e+02 
2.023400e-01 6.935801e+02 
2.036100e-01 6.862216e+02 
2.048900e-01 6.790688e+02 
2.060400e-01 6.727397e+02 
2.072200e-01 6.663500e+02 
2.084200e-01 6.600801e+02 
2.096900e-01 6.535441e+02 
2.109200e-01 6.473096e+02 
2.121100e-01 6.414487e+02 
2.132700e-01 6.358199e+02 
2.145200e-01 6.298409e+02 
2.157200e-01 6.242078e+02 
2.168800e-01 6.188487e+02 
2.180700e-01 6.134262e+02 
2.193400e-01 6.077174e+02 
2.206000e-01 6.021283e+02 
2.217500e-01 5.970975e+02 
2.229500e-01 5.919183e+02 
2.241400e-01 5.868059e+02 
2.253500e-01 5.816769e+02 
2.264900e-01 5.769085e+02 
2.277100e-01 5.718428e+02 
2.289900e-01 5.665687e+02 
2.301500e-01 5.618538e+02 
2.313600e-01 5.569996e+02 
2.325600e-01 5.521850e+02 
2.337700e-01 5.473944e+02 
2.350000e-01 5.425897e+02 
2.362000e-01 5.379398e+02 
2.374100e-01 5.332836e+02 
2.386500e-01 5.285752e+02 
2.399100e-01 5.238552e+02 
2.410400e-01 5.196505e+02 
2.422500e-01 5.152012e+02 
2.435000e-01 5.106649e+02 
2.447300e-01 5.062577e+02 
2.458700e-01 5.022159e+02 
2.470600e-01 4.980485e+02 
2.483300e-01 4.936580e+02 
2.495600e-01 4.894654e+02 
2.507600e-01 4.854324e+02 
2.519600e-01 4.814492e+02 
2.532200e-01 4.773195e+02 
2.543700e-01 4.736118e+02 
2.555500e-01 4.698627e+02 
2.568000e-01 4.659397e+02 
2.580100e-01 4.621892e+02 
2.592400e-01 4.584458e+02 
2.604100e-01 4.549373e+02 
2.616100e-01 4.513809e+02 
2.628400e-01 4.477792e+02 
2.640600e-01 4.442773e+02 
2.652200e-01 4.409973e+02 
2.664300e-01 4.376150e+02 
2.676500e-01 4.342446e+02 
2.688400e-01 4.310145e+02 
2.700700e-01 4.277265e+02 
2.712400e-01 4.246345e+02 
2.724800e-01 4.213946e+02 
2.736700e-01 4.183352e+02 
2.748800e-01 4.152738e+02 
2.761000e-01 4.122219e+02 
2.773200e-01 4.092045e+02 
2.785400e-01 4.062269e+02 
2.797000e-01 4.034391e+02 
2.808900e-01 4.006099e+02 
2.821400e-01 3.976709e+02 
2.833900e-01 3.947655e+02 
2.845500e-01 3.921080e+02 
2.857800e-01 3.893203e+02 
2.870300e-01 3.865186e+02 
2.882100e-01 3.839023e+02 
2.893900e-01 3.813176e+02 
2.906300e-01 3.786327e+02 
2.918900e-01 3.759343e+02 
2.930500e-01 3.734764e+02 
2.942500e-01 3.709597e+02 
2.954200e-01 3.685308e+02 
2.966500e-01 3.660038e+02 
2.978900e-01 3.634834e+02 
2.990400e-01 3.611697e+02 
3.002700e-01 3.587185e+02 
3.015100e-01 3.562723e+02 
3.026800e-01 3.539878e+02 
3.038500e-01 3.517258e+02 
3.050300e-01 3.494669e+02 
3.062600e-01 3.471309e+02 
3.075000e-01 3.448002e+02 
3.087000e-01 3.425675e+02 
3.099100e-01 3.403386e+02 
3.111200e-01 3.381309e+02 
3.123100e-01 3.359791e+02 
3.135300e-01 3.337949e+02 
3.147300e-01 3.316677e+02 
3.159900e-01 3.294564e+02 
3.171800e-01 3.273875e+02 
3.183700e-01 3.253376e+02 
3.196300e-01 3.231885e+02 
3.208400e-01 3.211451e+02 
3.220300e-01 3.191547e+02 
3.232000e-01 3.172165e+02 
3.244300e-01 3.151984e+02 
3.256700e-01 3.131837e+02 
3.269200e-01 3.111727e+02 
3.280800e-01 3.093241e+02 
3.292500e-01 3.074792e+02 
3.304800e-01 3.055586e+02 
3.317100e-01 3.036564e+02 
3.328900e-01 3.018484e+02 
3.340700e-01 3.000569e+02 
3.353600e-01 2.981213e+02 
3.365300e-01 2.963840e+02 
3.377100e-01 2.946475e+02 
3.389200e-01 2.928829e+02 
3.401600e-01 2.910914e+02 
3.413700e-01 2.893651e+02 
3.425300e-01 2.877289e+02 
3.437700e-01 2.859956e+02 
3.449800e-01 2.843196e+02 
3.461800e-01 2.826723e+02 
3.473600e-01 2.810698e+02 
3.485800e-01 2.794352e+02 
3.498100e-01 2.778020e+02 
3.510200e-01 2.762097e+02 
3.522000e-01 2.746703e+02 
3.533900e-01 2.731313e+02 
3.546400e-01 2.715412e+02 
3.558400e-01 2.700289e+02 
3.570600e-01 2.685047e+02 
3.582700e-01 2.670062e+02 
3.595000e-01 2.654961e+02 
3.607100e-01 2.640309e+02 
3.618900e-01 2.626201e+02 
3.631200e-01 2.611620e+02 
3.643200e-01 2.597516e+02 
3.655500e-01 2.583181e+02 
3.667300e-01 2.569545e+02 
3.679500e-01 2.555709e+02 
3.691900e-01 2.541765e+02 
3.703600e-01 2.528717e+02 
3.715700e-01 2.515334e+02 
3.727700e-01 2.502170e+02 
3.739900e-01 2.488946e+02 
3.752000e-01 2.476028e+02 
3.763900e-01 2.463426e+02 
3.775800e-01 2.450926e+02 
3.788200e-01 2.438006e+02 
3.800300e-01 2.425502e+02 
3.812100e-01 2.413483e+02 
3.824200e-01 2.401308e+02 
3.836100e-01 2.389430e+02 
3.848600e-01 2.377052e+02 
3.860400e-01 2.365462e+02 
3.872400e-01 2.353766e+02 
3.884600e-01 2.342064e+02 
3.896500e-01 2.330774e+02 
3.908700e-01 2.319290e+02 
3.920600e-01 2.308176e+02 
3.933100e-01 2.296592e+02 
3.945300e-01 2.285376e+02 
3.957200e-01 2.274619e+02 
3.969300e-01 2.263794e+02 
3.981700e-01 2.252786e+02 
3.993500e-01 2.242390e+02 
4.094840e-01 2.156667e+02 
4.272360e-01 2.021232e+02 
4.454600e-01 1.897932e+02 
4.630560e-01 1.791379e+02 
4.804610e-01 1.696085e+02 
4.980690e-01 1.608370e+02 
5.159230e-01 1.527105e+02 
5.317440e-01 1.460796e+02 
5.489640e-01 1.394013e+02 
5.671990e-01 1.328817e+02 
5.838690e-01 1.273681e+02 
6.018840e-01 1.218461e+02 
6.202330e-01 1.166462e+02 
6.379250e-01 1.119944e+02 
6.545410e-01 1.079294e+02 
6.714560e-01 1.040609e+02 
6.892080e-01 1.002705e+02 
7.066010e-01 9.680628e+01 
7.240540e-01 9.354910e+01 
7.420450e-01 9.041099e+01 
7.593780e-01 8.757775e+01 
7.764720e-01 8.494762e+01 
7.942840e-01 8.236881e+01 
8.116170e-01 8.000697e+01 
8.288310e-01 7.779305e+01 
8.462240e-01 7.567808e+01 
8.631980e-01 7.372288e+01 
8.810700e-01 7.177163e+01 
8.989410e-01 6.992187e+01 
9.166330e-01 6.818354e+01 
9.345640e-01 6.651004e+01 
9.515980e-01 6.499509e+01 
9.688720e-01 6.352805e+01 
9.865640e-01 6.209453e+01 
1.031870e+00 5.869871e+01 
1.063490e+00 5.653960e+01 
1.097920e+00 5.436257e+01 
1.134370e+00 5.222713e+01 
1.167730e+00 5.041115e+01 
1.203830e+00 4.857641e+01 
1.240470e+00 4.683945e+01 
1.275790e+00 4.527137e+01 
1.309140e+00 4.387898e+01 
1.342970e+00 4.254156e+01 
1.378420e+00 4.121894e+01 
1.413200e+00 3.999137e+01 
1.448110e+00 3.882236e+01 
1.484090e+00 3.767934e+01 
1.518820e+00 3.663063e+01 
1.552880e+00 3.564976e+01 
1.588630e+00 3.466745e+01 
1.623230e+00 3.376010e+01 
1.657720e+00 3.289517e+01 
1.692450e+00 3.206144e+01 
1.726400e+00 3.127937e+01 
1.762200e+00 3.048754e+01 
1.797880e+00 2.973106e+01 
1.833270e+00 2.901099e+01 
1.869070e+00 2.831062e+01 
1.903200e+00 2.766806e+01 
1.937740e+00 2.704157e+01 
1.973190e+00 2.642171e+01 
2.007440e+00 2.584422e+01 
2.042160e+00 2.527873e+01 
2.077900e+00 2.471660e+01 
2.112390e+00 2.419301e+01 
2.146220e+00 2.369533e+01 
2.181600e+00 2.319201e+01 
2.216930e+00 2.270539e+01 
2.250760e+00 2.225417e+01 
2.286500e+00 2.179252e+01 
2.321770e+00 2.135121e+01 
2.355950e+00 2.093631e+01 
2.391280e+00 2.051948e+01 
2.426240e+00 2.011921e+01 
2.460670e+00 1.973674e+01 
2.495640e+00 1.935986e+01 
2.531080e+00 1.898792e+01 
2.566220e+00 1.862938e+01 
2.600830e+00 1.828618e+01 
2.635080e+00 1.795601e+01 
2.670340e+00 1.762453e+01 
2.705970e+00 1.729874e+01 
2.740040e+00 1.699563e+01 
2.774520e+00 1.669635e+01 
2.809730e+00 1.639828e+01 
2.844390e+00 1.611267e+01 
2.879960e+00 1.582699e+01 
2.914860e+00 1.555335e+01 
2.949410e+00 1.528940e+01 
2.984440e+00 1.502790e+01 
3.019760e+00 1.477067e+01 
3.054730e+00 1.452250e+01 
3.089030e+00 1.428403e+01 
3.124060e+00 1.404654e+01 
3.159560e+00 1.381160e+01 
3.194710e+00 1.358413e+01 
3.229010e+00 1.336762e+01 
3.263320e+00 1.315497e+01 
3.297930e+00 1.294562e+01 
3.332830e+00 1.273910e+01 
3.368040e+00 1.253537e+01 
3.403300e+00 1.233603e+01 
3.438450e+00 1.214133e+01 
3.473060e+00 1.195419e+01 
3.508440e+00 1.176625e+01 
3.543110e+00 1.158647e+01 
3.577470e+00 1.141167e+01 
3.613040e+00 1.123479e+01 
3.648120e+00 1.106367e+01 
3.682910e+00 1.089768e+01 
3.718050e+00 1.073333e+01 
3.753320e+00 1.057183e+01 
3.787980e+00 1.041617e+01 
3.822290e+00 1.026525e+01 
3.857020e+00 1.011542e+01 
3.891920e+00 9.967936e+00 
3.926650e+00 9.823843e+00 
3.961970e+00 9.680354e+00 
3.997360e+00 9.539212e+00 
4.031670e+00 9.405257e+00 
4.066330e+00 9.272256e+00 
4.101420e+00 9.140504e+00 
4.136200e+00 9.011909e+00 
4.170810e+00 8.886675e+00 
4.206250e+00 8.760637e+00 
4.241580e+00 8.637585e+00 
4.276300e+00 8.518786e+00 
4.310970e+00 8.402385e+00 
4.346120e+00 8.286581e+00 
4.380600e+00 8.174924e+00 
4.414730e+00 8.066607e+00 
4.450350e+00 7.955327e+00 
4.485320e+00 7.848305e+00 
4.519810e+00 7.744503e+00 
4.555430e+00 7.639282e+00 
4.590870e+00 7.536534e+00 
4.625480e+00 7.437827e+00 
4.659910e+00 7.341528e+00 
4.695230e+00 7.244332e+00 
4.729960e+00 7.150558e+00 
4.764450e+00 7.059052e+00 
4.799530e+00 6.967502e+00 
4.834910e+00 6.876929e+00 
4.869700e+00 6.789232e+00 
4.904370e+00 6.703410e+00 
4.939450e+00 6.618107e+00 
4.973940e+00 6.535587e+00 
5.008430e+00 6.454560e+00 
5.043810e+00 6.372764e+00 
5.078840e+00 6.293144e+00 
5.113500e+00 6.215780e+00 
5.148890e+00 6.137954e+00 
5.184210e+00 6.061671e+00 
5.219060e+00 5.987698e+00 
5.253660e+00 5.915418e+00 
5.288570e+00 5.843759e+00 
5.323420e+00 5.773363e+00 
5.358440e+00 5.703730e+00 
5.393590e+00 5.635047e+00 
5.428310e+00 5.568285e+00 
5.462800e+00 5.503041e+00 
5.497640e+00 5.438241e+00 
5.532670e+00 5.374081e+00 
5.567280e+00 5.311715e+00 
5.602000e+00 5.250183e+00 
5.637270e+00 5.188623e+00 
5.672410e+00 5.128286e+00 
5.707020e+00 5.069830e+00 
5.742040e+00 5.011598e+00 
5.777430e+00 4.953703e+00 
5.812210e+00 4.897725e+00 
5.846820e+00 4.842836e+00 
5.881610e+00 4.788518e+00 
5.916510e+00 4.734889e+00 
5.951600e+00 4.681796e+00 
5.986560e+00 4.629720e+00 
6.021830e+00 4.578007e+00 
6.056490e+00 4.527962e+00 
6.091160e+00 4.478657e+00 
6.125830e+00 4.430105e+00 
6.161090e+00 4.381480e+00 
6.195760e+00 4.334395e+00 
6.230420e+00 4.288030e+00 
6.265690e+00 4.241561e+00 
6.300950e+00 4.195810e+00 
6.335620e+00 4.151496e+00 
6.370880e+00 4.107098e+00 
6.405550e+00 4.064093e+00 
6.440220e+00 4.021717e+00 
6.475480e+00 3.979250e+00 
6.510150e+00 3.938115e+00 
6.544810e+00 3.897609e+00 
6.580080e+00 3.856986e+00 
6.614750e+00 3.817626e+00 
6.649410e+00 3.778856e+00 
6.684080e+00 3.740626e+00 
6.719340e+00 3.702295e+00 
6.754010e+00 3.665154e+00 
6.788680e+00 3.628572e+00 
6.823940e+00 3.591887e+00 
6.859800e+00 3.555103e+00 
6.894470e+00 3.520072e+00 
6.929140e+00 3.485532e+00 
6.963800e+00 3.451469e+00 
6.999070e+00 3.417284e+00 
7.033730e+00 3.384205e+00 
7.068400e+00 3.351560e+00 
7.103660e+00 3.318804e+00 
7.138330e+00 3.287046e+00 
7.173600e+00 3.255208e+00 
7.208260e+00 3.224335e+00 
7.243530e+00 3.193332e+00 
7.277600e+00 3.163809e+00 
7.312860e+00 3.133683e+00 
7.348120e+00 3.103951e+00 
7.382790e+00 3.075096e+00 
7.417460e+00 3.046662e+00 
7.452720e+00 3.018142e+00 
7.487390e+00 2.990458e+00 
7.522650e+00 2.962661e+00 
7.557320e+00 2.935734e+00 
7.591990e+00 2.909167e+00 
7.627250e+00 2.882486e+00 
7.662510e+00 2.856141e+00 
7.697180e+00 2.830623e+00 
7.731850e+00 2.805443e+00 
7.766510e+00 2.780577e+00 
7.801180e+00 2.756008e+00 
7.836440e+00 2.731371e+00 
7.871110e+00 2.707470e+00 
7.906380e+00 2.683450e+00 
7.941040e+00 2.660130e+00 
7.976310e+00 2.636721e+00 
8.011570e+00 2.613643e+00 
8.046240e+00 2.591221e+00 
8.080900e+00 2.569070e+00 
8.115570e+00 2.547192e+00 
8.150830e+00 2.525279e+00 
8.185500e+00 2.503985e+00 
8.220770e+00 2.482575e+00 
8.255430e+00 2.461780e+00 
8.290100e+00 2.441292e+00 
8.324770e+00 2.421046e+00 
8.359430e+00 2.401037e+00 
8.394700e+00 2.380908e+00 
8.429960e+00 2.361058e+00 
8.464630e+00 2.341805e+00 
8.499890e+00 2.322444e+00 
8.534560e+00 2.303622e+00 
8.569200e+00 2.285025e+00 
