# Parameters:
# omega_b = 0.021783, omega_m = 0.150039, n_s = 0.875197, h = 58.543307, w = -1.000000, sigma_8 = 0.767717
# z = 1.700000
#
# k[1/Mpc] # P(k):
8.694000e-04 4.105159e+03 
2.077466e-03 8.160583e+03 
3.285532e-03 1.116629e+04 
4.493598e-03 1.340405e+04 
5.701664e-03 1.502843e+04 
6.909730e-03 1.615322e+04 
8.117797e-03 1.689298e+04 
9.325863e-03 1.730817e+04 
1.053393e-02 1.745817e+04 
1.174199e-02 1.739718e+04 
1.295006e-02 1.715772e+04 
1.415813e-02 1.678204e+04 
1.536619e-02 1.630689e+04 
1.657426e-02 1.575588e+04 
1.778233e-02 1.514943e+04 
1.899039e-02 1.451900e+04 
2.019846e-02 1.388144e+04 
2.140652e-02 1.325177e+04 
2.261459e-02 1.263752e+04 
2.382266e-02 1.204913e+04 
2.503072e-02 1.149475e+04 
2.623879e-02 1.097762e+04 
2.744685e-02 1.049851e+04 
2.865492e-02 1.005972e+04 
2.986299e-02 9.659792e+03 
3.100100e-02 9.317922e+03 
3.220400e-02 8.990858e+03 
3.288100e-02 8.821936e+03 
3.424300e-02 8.511018e+03 
3.555100e-02 8.244216e+03 
3.686000e-02 8.004264e+03 
3.795000e-02 7.821357e+03 
3.929100e-02 7.614201e+03 
4.039800e-02 7.453960e+03 
4.164000e-02 7.282762e+03 
4.294400e-02 7.107654e+03 
4.415000e-02 6.949387e+03 
4.542900e-02 6.779860e+03 
4.660900e-02 6.623634e+03 
4.782300e-02 6.456594e+03 
4.892900e-02 6.302610e+03 
5.031200e-02 6.105436e+03 
5.155900e-02 5.922628e+03 
5.238100e-02 5.800537e+03 
5.378200e-02 5.591103e+03 
5.513400e-02 5.388373e+03 
5.627600e-02 5.218941e+03 
5.735300e-02 5.062799e+03 
5.870100e-02 4.874515e+03 
5.988700e-02 4.717200e+03 
6.113500e-02 4.560171e+03 
6.225900e-02 4.426049e+03 
6.340100e-02 4.296063e+03 
6.480200e-02 4.144109e+03 
6.601100e-02 4.019158e+03 
6.725500e-02 3.896426e+03 
6.829100e-02 3.799341e+03 
6.958600e-02 3.684563e+03 
7.071100e-02 3.591657e+03 
7.192300e-02 3.498623e+03 
7.307400e-02 3.417039e+03 
7.412300e-02 3.348219e+03 
7.550400e-02 3.265784e+03 
7.663100e-02 3.204028e+03 
7.791200e-02 3.140435e+03 
7.912700e-02 3.085309e+03 
8.027600e-02 3.036693e+03 
8.138400e-02 2.992385e+03 
8.272200e-02 2.941604e+03 
8.406100e-02 2.892799e+03 
8.534100e-02 2.846975e+03 
8.653800e-02 2.803966e+03 
8.759800e-02 2.765655e+03 
8.900300e-02 2.714000e+03 
9.009000e-02 2.672864e+03 
9.113300e-02 2.631944e+03 
9.239600e-02 2.581584e+03 
9.358000e-02 2.532963e+03 
9.496100e-02 2.474081e+03 
9.608400e-02 2.425630e+03 
9.727500e-02 2.374154e+03 
9.852600e-02 2.318396e+03 
9.973800e-02 2.265003e+03 
1.009000e-01 2.214493e+03 
1.020900e-01 2.162852e+03 
1.034000e-01 2.107551e+03 
1.046000e-01 2.058261e+03 
1.057200e-01 2.013799e+03 
1.069100e-01 1.968143e+03 
1.082500e-01 1.919123e+03 
1.093900e-01 1.879556e+03 
1.105400e-01 1.841254e+03 
1.116900e-01 1.805568e+03 
1.129600e-01 1.767900e+03 
1.142000e-01 1.733943e+03 
1.153300e-01 1.704667e+03 
1.166400e-01 1.672938e+03 
1.177800e-01 1.647397e+03 
1.190000e-01 1.621370e+03 
1.201200e-01 1.599500e+03 
1.213400e-01 1.576505e+03 
1.227100e-01 1.552984e+03 
1.238900e-01 1.533465e+03 
1.250700e-01 1.515087e+03 
1.263200e-01 1.496175e+03 
1.275500e-01 1.478225e+03 
1.287500e-01 1.460990e+03 
1.299900e-01 1.443388e+03 
1.311300e-01 1.427179e+03 
1.323500e-01 1.409632e+03 
1.335900e-01 1.391587e+03 
1.347100e-01 1.374830e+03 
1.359800e-01 1.355641e+03 
1.372100e-01 1.336271e+03 
1.384300e-01 1.316990e+03 
1.395700e-01 1.298170e+03 
1.407700e-01 1.278650e+03 
1.420300e-01 1.257193e+03 
1.432800e-01 1.236407e+03 
1.444500e-01 1.216396e+03 
1.456300e-01 1.196661e+03 
1.468900e-01 1.175806e+03 
1.480500e-01 1.156964e+03 
1.491700e-01 1.139246e+03 
1.503800e-01 1.120629e+03 
1.516400e-01 1.101814e+03 
1.528200e-01 1.085172e+03 
1.540200e-01 1.068603e+03 
1.551900e-01 1.053549e+03 
1.564300e-01 1.038107e+03 
1.576600e-01 1.023564e+03 
1.588700e-01 1.010093e+03 
1.600900e-01 9.968225e+02 
1.612700e-01 9.850565e+02 
1.625400e-01 9.726355e+02 
1.637600e-01 9.612884e+02 
1.649500e-01 9.506311e+02 
1.662200e-01 9.395052e+02 
1.674000e-01 9.295619e+02 
1.685000e-01 9.204492e+02 
1.697500e-01 9.102383e+02 
1.710300e-01 8.999409e+02 
1.722200e-01 8.905392e+02 
1.734400e-01 8.807891e+02 
1.746400e-01 8.713545e+02 
1.758700e-01 8.617224e+02 
1.770900e-01 8.520714e+02 
1.782700e-01 8.428967e+02 
1.794600e-01 8.335632e+02 
1.807000e-01 8.238461e+02 
1.819100e-01 8.145288e+02 
1.830100e-01 8.059461e+02 
1.842200e-01 7.966163e+02 
1.855000e-01 7.869118e+02 
1.867000e-01 7.777883e+02 
1.879200e-01 7.686700e+02 
1.890900e-01 7.600602e+02 
1.902800e-01 7.513907e+02 
1.915200e-01 7.425083e+02 
1.926900e-01 7.342786e+02 
1.939000e-01 7.259464e+02 
1.951700e-01 7.173478e+02 
1.963100e-01 7.097884e+02 
1.975100e-01 7.020455e+02 
1.987800e-01 6.939848e+02 
2.000100e-01 6.863557e+02 
2.012500e-01 6.789030e+02 
2.023400e-01 6.724503e+02 
2.036100e-01 6.650797e+02 
2.048900e-01 6.579029e+02 
2.060400e-01 6.515536e+02 
2.072200e-01 6.451438e+02 
2.084200e-01 6.388451e+02 
2.096900e-01 6.322801e+02 
2.109200e-01 6.260190e+02 
2.121100e-01 6.201314e+02 
2.132700e-01 6.144776e+02 
2.145200e-01 6.084731e+02 
2.157200e-01 6.028190e+02 
2.168800e-01 5.974419e+02 
2.180700e-01 5.920019e+02 
2.193400e-01 5.862793e+02 
2.206000e-01 5.806842e+02 
2.217500e-01 5.756489e+02 
2.229500e-01 5.704657e+02 
2.241400e-01 5.653629e+02 
2.253500e-01 5.602446e+02 
2.264900e-01 5.554868e+02 
2.277100e-01 5.504405e+02 
2.289900e-01 5.451956e+02 
2.301500e-01 5.405074e+02 
2.313600e-01 5.356815e+02 
2.325600e-01 5.309104e+02 
2.337700e-01 5.261638e+02 
2.350000e-01 5.214037e+02 
2.362000e-01 5.168034e+02 
2.374100e-01 5.122042e+02 
2.386500e-01 5.075540e+02 
2.399100e-01 5.028929e+02 
2.410400e-01 4.987501e+02 
2.422500e-01 4.943677e+02 
2.435000e-01 4.899003e+02 
2.447300e-01 4.855618e+02 
2.458700e-01 4.815889e+02 
2.470600e-01 4.774928e+02 
2.483300e-01 4.731780e+02 
2.495600e-01 4.690598e+02 
2.507600e-01 4.651010e+02 
2.519600e-01 4.611916e+02 
2.532200e-01 4.571387e+02 
2.543700e-01 4.535011e+02 
2.555500e-01 4.498237e+02 
2.568000e-01 4.459762e+02 
2.580100e-01 4.422982e+02 
2.592400e-01 4.386267e+02 
2.604100e-01 4.351856e+02 
2.616100e-01 4.316979e+02 
2.628400e-01 4.281661e+02 
2.640600e-01 4.247306e+02 
2.652200e-01 4.215121e+02 
2.664300e-01 4.181937e+02 
2.676500e-01 4.148873e+02 
2.688400e-01 4.117166e+02 
2.700700e-01 4.084881e+02 
2.712400e-01 4.054522e+02 
2.724800e-01 4.022716e+02 
2.736700e-01 3.992666e+02 
2.748800e-01 3.962582e+02 
2.761000e-01 3.932595e+02 
2.773200e-01 3.902949e+02 
2.785400e-01 3.873689e+02 
2.797000e-01 3.846280e+02 
2.808900e-01 3.818465e+02 
2.821400e-01 3.789575e+02 
2.833900e-01 3.761017e+02 
2.845500e-01 3.734874e+02 
2.857800e-01 3.707453e+02 
2.870300e-01 3.679897e+02 
2.882100e-01 3.654168e+02 
2.893900e-01 3.628740e+02 
2.906300e-01 3.602324e+02 
2.918900e-01 3.575779e+02 
2.930500e-01 3.551601e+02 
2.942500e-01 3.526846e+02 
2.954200e-01 3.502952e+02 
2.966500e-01 3.478096e+02 
2.978900e-01 3.453307e+02 
2.990400e-01 3.430554e+02 
3.002700e-01 3.406449e+02 
3.015100e-01 3.382397e+02 
3.026800e-01 3.359936e+02 
3.038500e-01 3.337700e+02 
3.050300e-01 3.315496e+02 
3.062600e-01 3.292536e+02 
3.075000e-01 3.269630e+02 
3.087000e-01 3.247691e+02 
3.099100e-01 3.225791e+02 
3.111200e-01 3.204103e+02 
3.123100e-01 3.182969e+02 
3.135300e-01 3.161518e+02 
3.147300e-01 3.140629e+02 
3.159900e-01 3.118918e+02 
3.171800e-01 3.098611e+02 
3.183700e-01 3.078495e+02 
3.196300e-01 3.057409e+02 
3.208400e-01 3.037361e+02 
3.220300e-01 3.017837e+02 
3.232000e-01 2.998828e+02 
3.244300e-01 2.979040e+02 
3.256700e-01 2.959287e+02 
3.269200e-01 2.939572e+02 
3.280800e-01 2.921451e+02 
3.292500e-01 2.903374e+02 
3.304800e-01 2.884559e+02 
3.317100e-01 2.865926e+02 
3.328900e-01 2.848218e+02 
3.340700e-01 2.830673e+02 
3.353600e-01 2.811725e+02 
3.365300e-01 2.794722e+02 
3.377100e-01 2.777728e+02 
3.389200e-01 2.760463e+02 
3.401600e-01 2.742935e+02 
3.413700e-01 2.726051e+02 
3.425300e-01 2.710052e+02 
3.437700e-01 2.693106e+02 
3.449800e-01 2.676722e+02 
3.461800e-01 2.660620e+02 
3.473600e-01 2.644959e+02 
3.485800e-01 2.628992e+02 
3.498100e-01 2.613039e+02 
3.510200e-01 2.597487e+02 
3.522000e-01 2.582454e+02 
3.533900e-01 2.567426e+02 
3.546400e-01 2.551908e+02 
3.558400e-01 2.537150e+02 
3.570600e-01 2.522278e+02 
3.582700e-01 2.507658e+02 
3.595000e-01 2.492926e+02 
3.607100e-01 2.478637e+02 
3.618900e-01 2.464882e+02 
3.631200e-01 2.450667e+02 
3.643200e-01 2.436918e+02 
3.655500e-01 2.422947e+02 
3.667300e-01 2.409657e+02 
3.679500e-01 2.396181e+02 
3.691900e-01 2.382602e+02 
3.703600e-01 2.369896e+02 
3.715700e-01 2.356865e+02 
3.727700e-01 2.344049e+02 
3.739900e-01 2.331177e+02 
3.752000e-01 2.318606e+02 
3.763900e-01 2.306344e+02 
3.775800e-01 2.294181e+02 
3.788200e-01 2.281612e+02 
3.800300e-01 2.269448e+02 
3.812100e-01 2.257761e+02 
3.824200e-01 2.245927e+02 
3.836100e-01 2.234382e+02 
3.848600e-01 2.222353e+02 
3.860400e-01 2.211089e+02 
3.872400e-01 2.199725e+02 
3.884600e-01 2.188359e+02 
3.896500e-01 2.177396e+02 
3.908700e-01 2.166244e+02 
3.920600e-01 2.155453e+02 
3.933100e-01 2.144207e+02 
3.945300e-01 2.133319e+02 
3.957200e-01 2.122882e+02 
3.969300e-01 2.112380e+02 
3.981700e-01 2.101703e+02 
3.993500e-01 2.091620e+02 
4.094840e-01 2.008533e+02 
4.272360e-01 1.877528e+02 
4.454600e-01 1.758557e+02 
4.630560e-01 1.655999e+02 
4.804610e-01 1.564507e+02 
4.980690e-01 1.480499e+02 
5.159230e-01 1.402856e+02 
5.317440e-01 1.339640e+02 
5.489640e-01 1.276109e+02 
5.671990e-01 1.214220e+02 
5.838690e-01 1.161980e+02 
6.018840e-01 1.109750e+02 
6.202330e-01 1.060650e+02 
6.379250e-01 1.016786e+02 
6.545410e-01 9.785050e+01 
6.714560e-01 9.421107e+01 
6.892080e-01 9.064877e+01 
7.066010e-01 8.739565e+01 
7.240540e-01 8.433967e+01 
7.420450e-01 8.139714e+01 
7.593780e-01 7.874199e+01 
7.764720e-01 7.627880e+01 
7.942840e-01 7.386481e+01 
8.116170e-01 7.165489e+01 
8.288310e-01 6.958438e+01 
8.462240e-01 6.760716e+01 
8.631980e-01 6.578026e+01 
8.810700e-01 6.395784e+01 
8.989410e-01 6.223107e+01 
9.166330e-01 6.060905e+01 
9.345640e-01 5.904841e+01 
9.515980e-01 5.763634e+01 
9.688720e-01 5.626969e+01 
9.865640e-01 5.493498e+01 
1.031870e+00 5.177723e+01 
1.063490e+00 4.977290e+01 
1.097920e+00 4.775432e+01 
1.134370e+00 4.577800e+01 
1.167730e+00 4.410001e+01 
1.203830e+00 4.240824e+01 
1.240470e+00 4.080954e+01 
1.275790e+00 3.936947e+01 
1.309140e+00 3.809289e+01 
1.342970e+00 3.686977e+01 
1.378420e+00 3.566226e+01 
1.413200e+00 3.454402e+01 
1.448110e+00 3.348147e+01 
1.484090e+00 3.244445e+01 
1.518820e+00 3.149514e+01 
1.552880e+00 3.060923e+01 
1.588630e+00 2.972380e+01 
1.623230e+00 2.890754e+01 
1.657720e+00 2.813086e+01 
1.692450e+00 2.738368e+01 
1.726400e+00 2.668434e+01 
1.762200e+00 2.597763e+01 
1.797880e+00 2.530370e+01 
1.833270e+00 2.466334e+01 
1.869070e+00 2.404176e+01 
1.903200e+00 2.347246e+01 
1.937740e+00 2.291830e+01 
1.973190e+00 2.237096e+01 
2.007440e+00 2.186189e+01 
2.042160e+00 2.136421e+01 
2.077900e+00 2.087029e+01 
2.112390e+00 2.041094e+01 
2.146220e+00 1.997505e+01 
2.181600e+00 1.953486e+01 
2.216930e+00 1.910992e+01 
2.250760e+00 1.871643e+01 
2.286500e+00 1.831439e+01 
2.321770e+00 1.793059e+01 
2.355950e+00 1.757023e+01 
2.391280e+00 1.720880e+01 
2.426240e+00 1.686214e+01 
2.460670e+00 1.653126e+01 
2.495640e+00 1.620555e+01 
2.531080e+00 1.588467e+01 
2.566220e+00 1.557566e+01 
2.600830e+00 1.528020e+01 
2.635080e+00 1.499623e+01 
2.670340e+00 1.471156e+01 
2.705970e+00 1.443204e+01 
2.740040e+00 1.417220e+01 
2.774520e+00 1.391597e+01 
2.809730e+00 1.366105e+01 
2.844390e+00 1.341697e+01 
2.879960e+00 1.317308e+01 
2.914860e+00 1.293975e+01 
2.949410e+00 1.271483e+01 
2.984440e+00 1.249224e+01 
3.019760e+00 1.227348e+01 
3.054730e+00 1.206254e+01 
3.089030e+00 1.186012e+01 
3.124060e+00 1.165865e+01 
3.159560e+00 1.145949e+01 
3.194710e+00 1.126685e+01 
3.229010e+00 1.108357e+01 
3.263320e+00 1.090377e+01 
3.297930e+00 1.072684e+01 
3.332830e+00 1.055245e+01 
3.368040e+00 1.038053e+01 
3.403300e+00 1.021241e+01 
3.438450e+00 1.004835e+01 
3.473060e+00 9.890717e+00 
3.508440e+00 9.732565e+00 
3.543110e+00 9.581326e+00 
3.577470e+00 9.434410e+00 
3.613040e+00 9.285801e+00 
3.648120e+00 9.142132e+00 
3.682910e+00 9.002825e+00 
3.718050e+00 8.864988e+00 
3.753320e+00 8.729601e+00 
3.787980e+00 8.599186e+00 
3.822290e+00 8.472798e+00 
3.857020e+00 8.347387e+00 
3.891920e+00 8.223985e+00 
3.926650e+00 8.103498e+00 
3.961970e+00 7.983552e+00 
3.997360e+00 7.865638e+00 
4.031670e+00 7.753754e+00 
4.066330e+00 7.642742e+00 
4.101420e+00 7.532784e+00 
4.136200e+00 7.425534e+00 
4.170810e+00 7.321094e+00 
4.206250e+00 7.216052e+00 
4.241580e+00 7.113517e+00 
4.276300e+00 7.014571e+00 
4.310970e+00 6.917650e+00 
4.346120e+00 6.821257e+00 
4.380600e+00 6.728360e+00 
4.414730e+00 6.638249e+00 
4.450350e+00 6.545721e+00 
4.485320e+00 6.456739e+00 
4.519810e+00 6.370474e+00 
4.555430e+00 6.283050e+00 
4.590870e+00 6.197702e+00 
4.625480e+00 6.115746e+00 
4.659910e+00 6.035796e+00 
4.695230e+00 5.955131e+00 
4.729960e+00 5.877315e+00 
4.764450e+00 5.801402e+00 
4.799530e+00 5.725482e+00 
4.834910e+00 5.650378e+00 
4.869700e+00 5.577684e+00 
4.904370e+00 5.506550e+00 
4.939450e+00 5.435860e+00 
4.973940e+00 5.367500e+00 
5.008430e+00 5.300382e+00 
5.043810e+00 5.232647e+00 
5.078840e+00 5.166727e+00 
5.113500e+00 5.102679e+00 
5.148890e+00 5.038275e+00 
5.184210e+00 4.975153e+00 
5.219060e+00 4.913950e+00 
5.253660e+00 4.854164e+00 
5.288570e+00 4.794896e+00 
5.323420e+00 4.736684e+00 
5.358440e+00 4.679119e+00 
5.393590e+00 4.622341e+00 
5.428310e+00 4.567165e+00 
5.462800e+00 4.513251e+00 
5.497640e+00 4.459707e+00 
5.532670e+00 4.406705e+00 
5.567280e+00 4.355191e+00 
5.602000e+00 4.304369e+00 
5.637270e+00 4.253540e+00 
5.672410e+00 4.203728e+00 
5.707020e+00 4.155471e+00 
5.742040e+00 4.107412e+00 
5.777430e+00 4.059635e+00 
5.812210e+00 4.013443e+00 
5.846820e+00 3.968160e+00 
5.881610e+00 3.923353e+00 
5.916510e+00 3.879116e+00 
5.951600e+00 3.835333e+00 
5.986560e+00 3.792394e+00 
6.021830e+00 3.749757e+00 
6.056490e+00 3.708504e+00 
6.091160e+00 3.667869e+00 
6.125830e+00 3.627855e+00 
6.161090e+00 3.587786e+00 
6.195760e+00 3.548994e+00 
6.230420e+00 3.510798e+00 
6.265690e+00 3.472517e+00 
6.300950e+00 3.434844e+00 
6.335620e+00 3.398356e+00 
6.370880e+00 3.361799e+00 
6.405550e+00 3.326398e+00 
6.440220e+00 3.291519e+00 
6.475480e+00 3.256567e+00 
6.510150e+00 3.222715e+00 
6.544810e+00 3.189391e+00 
6.580080e+00 3.155970e+00 
6.614750e+00 3.123590e+00 
6.649410e+00 3.091707e+00 
6.684080e+00 3.060270e+00 
6.719340e+00 3.028751e+00 
6.754010e+00 2.998215e+00 
6.788680e+00 2.968146e+00 
6.823940e+00 2.937992e+00 
6.859800e+00 2.907758e+00 
6.894470e+00 2.878977e+00 
6.929140e+00 2.850603e+00 
6.963800e+00 2.822623e+00 
6.999070e+00 2.794543e+00 
7.033730e+00 2.767382e+00 
7.068400e+00 2.740578e+00 
7.103660e+00 2.713684e+00 
7.138330e+00 2.687613e+00 
7.173600e+00 2.661482e+00 
7.208260e+00 2.636144e+00 
7.243530e+00 2.610700e+00 
7.277600e+00 2.586479e+00 
7.312860e+00 2.561770e+00 
7.348120e+00 2.537385e+00 
7.382790e+00 2.513719e+00 
7.417460e+00 2.490406e+00 
7.452720e+00 2.467028e+00 
7.487390e+00 2.444334e+00 
7.522650e+00 2.421549e+00 
7.557320e+00 2.399486e+00 
7.591990e+00 2.377720e+00 
7.627250e+00 2.355861e+00 
7.662510e+00 2.334279e+00 
7.697180e+00 2.313381e+00 
7.731850e+00 2.292763e+00 
7.766510e+00 2.272404e+00 
7.801180e+00 2.252286e+00 
7.836440e+00 2.232122e+00 
7.871110e+00 2.212565e+00 
7.906380e+00 2.192911e+00 
7.941040e+00 2.173830e+00 
7.976310e+00 2.154680e+00 
8.011570e+00 2.135808e+00 
8.046240e+00 2.117472e+00 
8.080900e+00 2.099358e+00 
8.115570e+00 2.081469e+00 
8.150830e+00 2.063560e+00 
8.185500e+00 2.046158e+00 
8.220770e+00 2.028660e+00 
8.255430e+00 2.011665e+00 
8.290100e+00 1.994932e+00 
8.324770e+00 1.978397e+00 
8.359430e+00 1.962055e+00 
8.394700e+00 1.945616e+00 
8.429960e+00 1.929410e+00 
8.464630e+00 1.913697e+00 
8.499890e+00 1.897896e+00 
8.534560e+00 1.882535e+00 
8.569200e+00 1.867357e+00 
