# Parameters:
# omega_b = 0.023500, omega_m = 0.143150, n_s = 0.895669, h = 82.637795, w = -1.000000, sigma_8 = 0.808661
# z = 1.700000
#
# k[1/Mpc] # P(k):
8.694000e-04 4.251345e+03 
2.077466e-03 8.560323e+03 
3.285532e-03 1.175917e+04 
4.493598e-03 1.413250e+04 
5.701664e-03 1.582717e+04 
6.909730e-03 1.697557e+04 
8.117797e-03 1.771070e+04 
9.325863e-03 1.810037e+04 
1.053393e-02 1.820741e+04 
1.174199e-02 1.808667e+04 
1.295006e-02 1.777472e+04 
1.415813e-02 1.731886e+04 
1.536619e-02 1.675735e+04 
1.657426e-02 1.611611e+04 
1.778233e-02 1.542007e+04 
1.899039e-02 1.470519e+04 
2.019846e-02 1.399015e+04 
2.140652e-02 1.329100e+04 
2.261459e-02 1.261652e+04 
2.382266e-02 1.197754e+04 
2.503072e-02 1.138151e+04 
2.623879e-02 1.083081e+04 
2.744685e-02 1.032582e+04 
2.865492e-02 9.867680e+03 
2.986299e-02 9.453919e+03 
3.100100e-02 9.103624e+03 
3.220400e-02 8.771728e+03 
3.288100e-02 8.601955e+03 
3.424300e-02 8.292466e+03 
3.555100e-02 8.030257e+03 
3.686000e-02 7.797608e+03 
3.795000e-02 7.622303e+03 
3.929100e-02 7.426192e+03 
4.039800e-02 7.275578e+03 
4.164000e-02 7.115155e+03 
4.294400e-02 6.950685e+03 
4.415000e-02 6.801107e+03 
4.542900e-02 6.638659e+03 
4.660900e-02 6.487223e+03 
4.782300e-02 6.322439e+03 
4.892900e-02 6.168765e+03 
5.031200e-02 5.969280e+03 
5.155900e-02 5.782158e+03 
5.238100e-02 5.656135e+03 
5.378200e-02 5.437826e+03 
5.513400e-02 5.222553e+03 
5.627600e-02 5.038071e+03 
5.735300e-02 4.862724e+03 
5.870100e-02 4.642026e+03 
5.988700e-02 4.448913e+03 
6.113500e-02 4.249078e+03 
6.225900e-02 4.075331e+03 
6.340100e-02 3.908543e+03 
6.480200e-02 3.720360e+03 
6.601100e-02 3.576371e+03 
6.725500e-02 3.446191e+03 
6.829100e-02 3.352482e+03 
6.958600e-02 3.249590e+03 
7.071100e-02 3.173197e+03 
7.192300e-02 3.101655e+03 
7.307400e-02 3.042511e+03 
7.412300e-02 2.994790e+03 
7.550400e-02 2.939993e+03 
7.663100e-02 2.899837e+03 
7.791200e-02 2.858815e+03 
7.912700e-02 2.822427e+03 
8.027600e-02 2.789065e+03 
8.138400e-02 2.757187e+03 
8.272200e-02 2.718143e+03 
8.406100e-02 2.677576e+03 
8.534100e-02 2.635816e+03 
8.653800e-02 2.593694e+03 
8.759800e-02 2.554539e+03 
8.900300e-02 2.499476e+03 
9.009000e-02 2.454098e+03 
9.113300e-02 2.408080e+03 
9.239600e-02 2.350957e+03 
9.358000e-02 2.295512e+03 
9.496100e-02 2.228601e+03 
9.608400e-02 2.174006e+03 
9.727500e-02 2.116467e+03 
9.852600e-02 2.055631e+03 
9.973800e-02 1.998372e+03 
1.009000e-01 1.945029e+03 
1.020900e-01 1.892727e+03 
1.034000e-01 1.837979e+03 
1.046000e-01 1.790468e+03 
1.057200e-01 1.749897e+03 
1.069100e-01 1.709106e+03 
1.082500e-01 1.667800e+03 
1.093900e-01 1.636007e+03 
1.105400e-01 1.606123e+03 
1.116900e-01 1.580279e+03 
1.129600e-01 1.553614e+03 
1.142000e-01 1.531102e+03 
1.153300e-01 1.512073e+03 
1.166400e-01 1.492079e+03 
1.177800e-01 1.476084e+03 
1.190000e-01 1.459836e+03 
1.201200e-01 1.445510e+03 
1.213400e-01 1.430318e+03 
1.227100e-01 1.412910e+03 
1.238900e-01 1.397960e+03 
1.250700e-01 1.382198e+03 
1.263200e-01 1.365267e+03 
1.275500e-01 1.347611e+03 
1.287500e-01 1.329940e+03 
1.299900e-01 1.310766e+03 
1.311300e-01 1.292711e+03 
1.323500e-01 1.272585e+03 
1.335900e-01 1.251863e+03 
1.347100e-01 1.232587e+03 
1.359800e-01 1.210757e+03 
1.372100e-01 1.189169e+03 
1.384300e-01 1.168024e+03 
1.395700e-01 1.148126e+03 
1.407700e-01 1.127638e+03 
1.420300e-01 1.106321e+03 
1.432800e-01 1.085698e+03 
1.444500e-01 1.067046e+03 
1.456300e-01 1.048665e+03 
1.468900e-01 1.030051e+03 
1.480500e-01 1.013469e+03 
1.491700e-01 9.982324e+02 
1.503800e-01 9.826718e+02 
1.516400e-01 9.670548e+02 
1.528200e-01 9.537431e+02 
1.540200e-01 9.404799e+02 
1.551900e-01 9.287465e+02 
1.564300e-01 9.167838e+02 
1.576600e-01 9.055889e+02 
1.588700e-01 8.953119e+02 
1.600900e-01 8.851769e+02 
1.612700e-01 8.761264e+02 
1.625400e-01 8.665667e+02 
1.637600e-01 8.576454e+02 
1.649500e-01 8.491526e+02 
1.662200e-01 8.402147e+02 
1.674000e-01 8.318408e+02 
1.685000e-01 8.241651e+02 
1.697500e-01 8.153028e+02 
1.710300e-01 8.061065e+02 
1.722200e-01 7.977099e+02 
1.734400e-01 7.885596e+02 
1.746400e-01 7.796894e+02 
1.758700e-01 7.705414e+02 
1.770900e-01 7.611893e+02 
1.782700e-01 7.523027e+02 
1.794600e-01 7.432018e+02 
1.807000e-01 7.336900e+02 
1.819100e-01 7.245751e+02 
1.830100e-01 7.162331e+02 
1.842200e-01 7.071787e+02 
1.855000e-01 6.977739e+02 
1.867000e-01 6.891122e+02 
1.879200e-01 6.804596e+02 
1.890900e-01 6.723314e+02 
1.902800e-01 6.643468e+02 
1.915200e-01 6.561685e+02 
1.926900e-01 6.486482e+02 
1.939000e-01 6.412148e+02 
1.951700e-01 6.335441e+02 
1.963100e-01 6.268502e+02 
1.975100e-01 6.201260e+02 
1.987800e-01 6.131251e+02 
2.000100e-01 6.065312e+02 
2.012500e-01 6.001656e+02 
2.023400e-01 5.946532e+02 
2.036100e-01 5.883608e+02 
2.048900e-01 5.822528e+02 
2.060400e-01 5.768481e+02 
2.072200e-01 5.713875e+02 
2.084200e-01 5.659800e+02 
2.096900e-01 5.603432e+02 
2.109200e-01 5.549665e+02 
2.121100e-01 5.498309e+02 
2.132700e-01 5.448949e+02 
2.145200e-01 5.396522e+02 
2.157200e-01 5.346565e+02 
2.168800e-01 5.298782e+02 
2.180700e-01 5.250440e+02 
2.193400e-01 5.199352e+02 
2.206000e-01 5.148969e+02 
2.217500e-01 5.103630e+02 
2.229500e-01 5.056962e+02 
2.241400e-01 5.010759e+02 
2.253500e-01 4.964414e+02 
2.264900e-01 4.921337e+02 
2.277100e-01 4.875731e+02 
2.289900e-01 4.828422e+02 
2.301500e-01 4.786138e+02 
2.313600e-01 4.742619e+02 
2.325600e-01 4.700074e+02 
2.337700e-01 4.657748e+02 
2.350000e-01 4.615304e+02 
2.362000e-01 4.574581e+02 
2.374100e-01 4.534215e+02 
2.386500e-01 4.493399e+02 
2.399100e-01 4.452486e+02 
2.410400e-01 4.416669e+02 
2.422500e-01 4.378846e+02 
2.435000e-01 4.340283e+02 
2.447300e-01 4.302927e+02 
2.458700e-01 4.269106e+02 
2.470600e-01 4.234231e+02 
2.483300e-01 4.197486e+02 
2.495600e-01 4.162534e+02 
2.507600e-01 4.129097e+02 
2.519600e-01 4.096071e+02 
2.532200e-01 4.061825e+02 
2.543700e-01 4.031115e+02 
2.555500e-01 4.000084e+02 
2.568000e-01 3.967612e+02 
2.580100e-01 3.936563e+02 
2.592400e-01 3.905467e+02 
2.604100e-01 3.876274e+02 
2.616100e-01 3.846681e+02 
2.628400e-01 3.816707e+02 
2.640600e-01 3.787355e+02 
2.652200e-01 3.759778e+02 
2.664300e-01 3.731339e+02 
2.676500e-01 3.702999e+02 
2.688400e-01 3.675628e+02 
2.700700e-01 3.647632e+02 
2.712400e-01 3.621305e+02 
2.724800e-01 3.593719e+02 
2.736700e-01 3.567506e+02 
2.748800e-01 3.541108e+02 
2.761000e-01 3.514794e+02 
2.773200e-01 3.488777e+02 
2.785400e-01 3.463019e+02 
2.797000e-01 3.438726e+02 
2.808900e-01 3.414073e+02 
2.821400e-01 3.388466e+02 
2.833900e-01 3.363145e+02 
2.845500e-01 3.339801e+02 
2.857800e-01 3.315316e+02 
2.870300e-01 3.290710e+02 
2.882100e-01 3.267735e+02 
2.893900e-01 3.244963e+02 
2.906300e-01 3.221269e+02 
2.918900e-01 3.197460e+02 
2.930500e-01 3.175774e+02 
2.942500e-01 3.153562e+02 
2.954200e-01 3.132093e+02 
2.966500e-01 3.109759e+02 
2.978900e-01 3.087486e+02 
2.990400e-01 3.067043e+02 
3.002700e-01 3.045392e+02 
3.015100e-01 3.023792e+02 
3.026800e-01 3.003622e+02 
3.038500e-01 2.983654e+02 
3.050300e-01 2.963715e+02 
3.062600e-01 2.943141e+02 
3.075000e-01 2.922616e+02 
3.087000e-01 2.902957e+02 
3.099100e-01 2.883334e+02 
3.111200e-01 2.863923e+02 
3.123100e-01 2.845046e+02 
3.135300e-01 2.825886e+02 
3.147300e-01 2.807228e+02 
3.159900e-01 2.787836e+02 
3.171800e-01 2.769737e+02 
3.183700e-01 2.751834e+02 
3.196300e-01 2.733067e+02 
3.208400e-01 2.715225e+02 
3.220300e-01 2.697847e+02 
3.232000e-01 2.680972e+02 
3.244300e-01 2.663420e+02 
3.256700e-01 2.645899e+02 
3.269200e-01 2.628412e+02 
3.280800e-01 2.612338e+02 
3.292500e-01 2.596338e+02 
3.304800e-01 2.579696e+02 
3.317100e-01 2.563214e+02 
3.328900e-01 2.547550e+02 
3.340700e-01 2.532029e+02 
3.353600e-01 2.515289e+02 
3.365300e-01 2.500274e+02 
3.377100e-01 2.485268e+02 
3.389200e-01 2.470020e+02 
3.401600e-01 2.454540e+02 
3.413700e-01 2.439635e+02 
3.425300e-01 2.425514e+02 
3.437700e-01 2.410557e+02 
3.449800e-01 2.396095e+02 
3.461800e-01 2.381882e+02 
3.473600e-01 2.368055e+02 
3.485800e-01 2.353949e+02 
3.498100e-01 2.339857e+02 
3.510200e-01 2.326118e+02 
3.522000e-01 2.312837e+02 
3.533900e-01 2.299559e+02 
3.546400e-01 2.285822e+02 
3.558400e-01 2.272756e+02 
3.570600e-01 2.259589e+02 
3.582700e-01 2.246644e+02 
3.595000e-01 2.233600e+02 
3.607100e-01 2.220925e+02 
3.618900e-01 2.208706e+02 
3.631200e-01 2.196077e+02 
3.643200e-01 2.183863e+02 
3.655500e-01 2.171450e+02 
3.667300e-01 2.159642e+02 
3.679500e-01 2.147618e+02 
3.691900e-01 2.135500e+02 
3.703600e-01 2.124163e+02 
3.715700e-01 2.112534e+02 
3.727700e-01 2.101097e+02 
3.739900e-01 2.089590e+02 
3.752000e-01 2.078315e+02 
3.763900e-01 2.067317e+02 
3.775800e-01 2.056407e+02 
3.788200e-01 2.045133e+02 
3.800300e-01 2.034223e+02 
3.812100e-01 2.023705e+02 
3.824200e-01 2.013029e+02 
3.836100e-01 2.002615e+02 
3.848600e-01 1.991764e+02 
3.860400e-01 1.981603e+02 
3.872400e-01 1.971352e+02 
3.884600e-01 1.961056e+02 
3.896500e-01 1.951108e+02 
3.908700e-01 1.940990e+02 
3.920600e-01 1.931199e+02 
3.933100e-01 1.920996e+02 
3.945300e-01 1.911118e+02 
3.957200e-01 1.901597e+02 
3.969300e-01 1.892003e+02 
3.981700e-01 1.882249e+02 
3.993500e-01 1.873038e+02 
4.094840e-01 1.796958e+02 
4.272360e-01 1.675805e+02 
4.454600e-01 1.565161e+02 
4.630560e-01 1.469614e+02 
4.804610e-01 1.384545e+02 
4.980690e-01 1.306796e+02 
5.159230e-01 1.235396e+02 
5.317440e-01 1.177622e+02 
5.489640e-01 1.119966e+02 
5.671990e-01 1.064187e+02 
5.838690e-01 1.017348e+02 
6.018840e-01 9.707374e+01 
6.202330e-01 9.271228e+01 
6.379250e-01 8.882626e+01 
6.545410e-01 8.544505e+01 
6.714560e-01 8.223452e+01 
6.892080e-01 7.909700e+01 
7.066010e-01 7.623403e+01 
7.240540e-01 7.354656e+01 
7.420450e-01 7.095974e+01 
7.593780e-01 6.862620e+01 
7.764720e-01 6.646157e+01 
7.942840e-01 6.434050e+01 
8.116170e-01 6.239881e+01 
8.288310e-01 6.058002e+01 
8.462240e-01 5.884323e+01 
8.631980e-01 5.723900e+01 
8.810700e-01 5.563921e+01 
8.989410e-01 5.412401e+01 
9.166330e-01 5.270146e+01 
9.345640e-01 5.133311e+01 
9.515980e-01 5.009585e+01 
9.688720e-01 4.889945e+01 
9.865640e-01 4.773186e+01 
1.031870e+00 4.497354e+01 
1.063490e+00 4.322622e+01 
1.097920e+00 4.146984e+01 
1.134370e+00 3.975363e+01 
1.167730e+00 3.829948e+01 
1.203830e+00 3.683699e+01 
1.240470e+00 3.545751e+01 
1.275790e+00 3.421766e+01 
1.309140e+00 3.312034e+01 
1.342970e+00 3.207170e+01 
1.378420e+00 3.103776e+01 
1.413200e+00 3.008203e+01 
1.448110e+00 2.917523e+01 
1.484090e+00 2.829160e+01 
1.518820e+00 2.748376e+01 
1.552880e+00 2.673091e+01 
1.588630e+00 2.597922e+01 
1.623230e+00 2.528700e+01 
1.657720e+00 2.462898e+01 
1.692450e+00 2.399648e+01 
1.726400e+00 2.340482e+01 
1.762200e+00 2.280737e+01 
1.797880e+00 2.223806e+01 
1.833270e+00 2.169732e+01 
1.869070e+00 2.117258e+01 
1.903200e+00 2.069227e+01 
1.937740e+00 2.022481e+01 
1.973190e+00 1.976308e+01 
2.007440e+00 1.933365e+01 
2.042160e+00 1.891396e+01 
2.077900e+00 1.849746e+01 
2.112390e+00 1.810998e+01 
2.146220e+00 1.774234e+01 
2.181600e+00 1.737099e+01 
2.216930e+00 1.701246e+01 
2.250760e+00 1.668035e+01 
2.286500e+00 1.634089e+01 
2.321770e+00 1.601674e+01 
2.355950e+00 1.571230e+01 
2.391280e+00 1.540684e+01 
2.426240e+00 1.511375e+01 
2.460670e+00 1.483382e+01 
2.495640e+00 1.455810e+01 
2.531080e+00 1.428630e+01 
2.566220e+00 1.402447e+01 
2.600830e+00 1.377399e+01 
2.635080e+00 1.353309e+01 
2.670340e+00 1.329132e+01 
2.705970e+00 1.305380e+01 
2.740040e+00 1.283289e+01 
2.774520e+00 1.261486e+01 
2.809730e+00 1.239780e+01 
2.844390e+00 1.218982e+01 
2.879960e+00 1.198178e+01 
2.914860e+00 1.178256e+01 
2.949410e+00 1.159040e+01 
2.984440e+00 1.140009e+01 
3.019760e+00 1.121288e+01 
3.054730e+00 1.103225e+01 
3.089030e+00 1.085865e+01 
3.124060e+00 1.068573e+01 
3.159560e+00 1.051461e+01 
3.194710e+00 1.034894e+01 
3.229010e+00 1.019122e+01 
3.263320e+00 1.003627e+01 
3.297930e+00 9.883688e+00 
3.332830e+00 9.733143e+00 
3.368040e+00 9.584546e+00 
3.403300e+00 9.439096e+00 
3.438450e+00 9.296985e+00 
3.473060e+00 9.160364e+00 
3.508440e+00 9.023073e+00 
3.543110e+00 8.891699e+00 
3.577470e+00 8.763831e+00 
3.613040e+00 8.634415e+00 
3.648120e+00 8.509182e+00 
3.682910e+00 8.387623e+00 
3.718050e+00 8.267143e+00 
3.753320e+00 8.148716e+00 
3.787980e+00 8.034528e+00 
3.822290e+00 7.923747e+00 
3.857020e+00 7.813664e+00 
3.891920e+00 7.705248e+00 
3.926650e+00 7.599257e+00 
3.961970e+00 7.493645e+00 
3.997360e+00 7.389651e+00 
4.031670e+00 7.290911e+00 
4.066330e+00 7.192792e+00 
4.101420e+00 7.095562e+00 
4.136200e+00 7.000529e+00 
4.170810e+00 6.907951e+00 
4.206250e+00 6.814673e+00 
4.241580e+00 6.723562e+00 
4.276300e+00 6.635512e+00 
4.310970e+00 6.549179e+00 
4.346120e+00 6.463231e+00 
4.380600e+00 6.380282e+00 
4.414730e+00 6.299788e+00 
4.450350e+00 6.216964e+00 
4.485320e+00 6.137285e+00 
4.519810e+00 6.059899e+00 
4.555430e+00 5.981397e+00 
4.590870e+00 5.904696e+00 
4.625480e+00 5.830950e+00 
4.659910e+00 5.758982e+00 
4.695230e+00 5.686213e+00 
4.729960e+00 5.615967e+00 
4.764450e+00 5.547365e+00 
4.799530e+00 5.478649e+00 
4.834910e+00 5.410646e+00 
4.869700e+00 5.344713e+00 
4.904370e+00 5.280159e+00 
4.939450e+00 5.215951e+00 
4.973940e+00 5.153751e+00 
5.008430e+00 5.092660e+00 
5.043810e+00 5.030920e+00 
5.078840e+00 4.970777e+00 
5.113500e+00 4.912321e+00 
5.148890e+00 4.853403e+00 
5.184210e+00 4.795632e+00 
5.219060e+00 4.739576e+00 
5.253660e+00 4.684734e+00 
5.288570e+00 4.630349e+00 
5.323420e+00 4.576873e+00 
5.358440e+00 4.523925e+00 
5.393590e+00 4.471684e+00 
5.428310e+00 4.420829e+00 
5.462800e+00 4.371085e+00 
5.497640e+00 4.321666e+00 
5.532670e+00 4.272674e+00 
5.567280e+00 4.225024e+00 
5.602000e+00 4.178000e+00 
5.637270e+00 4.130884e+00 
5.672410e+00 4.084678e+00 
5.707020e+00 4.039902e+00 
5.742040e+00 3.995225e+00 
5.777430e+00 3.950782e+00 
5.812210e+00 3.907801e+00 
5.846820e+00 3.865605e+00 
5.881610e+00 3.823828e+00 
5.916510e+00 3.782572e+00 
5.951600e+00 3.741667e+00 
5.986560e+00 3.701515e+00 
6.021830e+00 3.661633e+00 
6.056490e+00 3.623002e+00 
6.091160e+00 3.584911e+00 
6.125830e+00 3.547392e+00 
6.161090e+00 3.509792e+00 
6.195760e+00 3.473336e+00 
6.230420e+00 3.437431e+00 
6.265690e+00 3.401435e+00 
6.300950e+00 3.365940e+00 
6.335620e+00 3.331552e+00 
6.370880e+00 3.297091e+00 
6.405550e+00 3.263676e+00 
6.440220e+00 3.230732e+00 
6.475480e+00 3.197710e+00 
6.510150e+00 3.165701e+00 
6.544810e+00 3.134143e+00 
6.580080e+00 3.102485e+00 
6.614750e+00 3.071807e+00 
6.649410e+00 3.041554e+00 
6.684080e+00 3.011711e+00 
6.719340e+00 2.981784e+00 
6.754010e+00 2.952768e+00 
6.788680e+00 2.924152e+00 
6.823940e+00 2.895450e+00 
6.859800e+00 2.866667e+00 
6.894470e+00 2.839228e+00 
6.929140e+00 2.812161e+00 
6.963800e+00 2.785464e+00 
6.999070e+00 2.758663e+00 
7.033730e+00 2.732698e+00 
7.068400e+00 2.707068e+00 
7.103660e+00 2.681347e+00 
7.138330e+00 2.656397e+00 
7.173600e+00 2.631362e+00 
7.208260e+00 2.607081e+00 
7.243530e+00 2.582695e+00 
7.277600e+00 2.559455e+00 
7.312860e+00 2.535726e+00 
7.348120e+00 2.512303e+00 
7.382790e+00 2.489568e+00 
7.417460e+00 2.467143e+00 
7.452720e+00 2.444637e+00 
7.487390e+00 2.422788e+00 
7.522650e+00 2.400846e+00 
7.557320e+00 2.379576e+00 
7.591990e+00 2.358582e+00 
7.627250e+00 2.337497e+00 
7.662510e+00 2.316673e+00 
7.697180e+00 2.296485e+00 
7.731850e+00 2.276556e+00 
7.766510e+00 2.256873e+00 
7.801180e+00 2.237422e+00 
7.836440e+00 2.217905e+00 
7.871110e+00 2.198960e+00 
7.906380e+00 2.179920e+00 
7.941040e+00 2.161432e+00 
7.976310e+00 2.142863e+00 
8.011570e+00 2.124547e+00 
8.046240e+00 2.106749e+00 
8.080900e+00 2.089164e+00 
8.115570e+00 2.071791e+00 
8.150830e+00 2.054379e+00 
8.185500e+00 2.037457e+00 
8.220770e+00 2.020440e+00 
8.255430e+00 2.003911e+00 
8.290100e+00 1.987610e+00 
8.324770e+00 1.971500e+00 
8.359430e+00 1.955576e+00 
8.394700e+00 1.939555e+00 
8.429960e+00 1.923748e+00 
8.464630e+00 1.908410e+00 
8.499890e+00 1.892985e+00 
8.534560e+00 1.877987e+00 
8.569200e+00 1.863166e+00 
