# Parameters:
# omega_b = 0.021531, omega_m = 0.133780, n_s = 0.897244, h = 79.330709, w = -1.000000, sigma_8 = 0.748819
# z = 1.700000
#
# k[1/Mpc] # P(k):
8.694000e-04 4.348361e+03 
2.077466e-03 8.681575e+03 
3.285532e-03 1.184933e+04 
4.493598e-03 1.414891e+04 
5.701664e-03 1.575599e+04 
6.909730e-03 1.681047e+04 
8.117797e-03 1.744906e+04 
9.325863e-03 1.774289e+04 
1.053393e-02 1.775879e+04 
1.174199e-02 1.755556e+04 
1.295006e-02 1.717078e+04 
1.415813e-02 1.665246e+04 
1.536619e-02 1.603989e+04 
1.657426e-02 1.535898e+04 
1.778233e-02 1.463383e+04 
1.899039e-02 1.389921e+04 
2.019846e-02 1.317330e+04 
2.140652e-02 1.247120e+04 
2.261459e-02 1.180099e+04 
2.382266e-02 1.117242e+04 
2.503072e-02 1.059184e+04 
2.623879e-02 1.006074e+04 
2.744685e-02 9.579219e+03 
2.865492e-02 9.146595e+03 
2.986299e-02 8.759508e+03 
3.100100e-02 8.434998e+03 
3.220400e-02 8.129981e+03 
3.288100e-02 7.974937e+03 
3.424300e-02 7.693315e+03 
3.555100e-02 7.455144e+03 
3.686000e-02 7.243351e+03 
3.795000e-02 7.082833e+03 
3.929100e-02 6.901061e+03 
4.039800e-02 6.759373e+03 
4.164000e-02 6.606308e+03 
4.294400e-02 6.446001e+03 
4.415000e-02 6.298413e+03 
4.542900e-02 6.136014e+03 
4.660900e-02 5.983772e+03 
4.782300e-02 5.817520e+03 
4.892900e-02 5.662618e+03 
5.031200e-02 5.462346e+03 
5.155900e-02 5.275793e+03 
5.238100e-02 5.151014e+03 
5.378200e-02 4.936674e+03 
5.513400e-02 4.728363e+03 
5.627600e-02 4.552743e+03 
5.735300e-02 4.388522e+03 
5.870100e-02 4.185814e+03 
5.988700e-02 4.011787e+03 
6.113500e-02 3.834427e+03 
6.225900e-02 3.681925e+03 
6.340100e-02 3.536213e+03 
6.480200e-02 3.371680e+03 
6.601100e-02 3.245233e+03 
6.725500e-02 3.130065e+03 
6.829100e-02 3.046517e+03 
6.958600e-02 2.954185e+03 
7.071100e-02 2.885203e+03 
7.192300e-02 2.820330e+03 
7.307400e-02 2.766517e+03 
7.412300e-02 2.722983e+03 
7.550400e-02 2.672827e+03 
7.663100e-02 2.635955e+03 
7.791200e-02 2.598083e+03 
7.912700e-02 2.564278e+03 
8.027600e-02 2.533120e+03 
8.138400e-02 2.503214e+03 
8.272200e-02 2.466426e+03 
8.406100e-02 2.428079e+03 
8.534100e-02 2.388530e+03 
8.653800e-02 2.348642e+03 
8.759800e-02 2.311597e+03 
8.900300e-02 2.259584e+03 
9.009000e-02 2.216821e+03 
9.113300e-02 2.173577e+03 
9.239600e-02 2.120024e+03 
9.358000e-02 2.068209e+03 
9.496100e-02 2.005937e+03 
9.608400e-02 1.955290e+03 
9.727500e-02 1.902045e+03 
9.852600e-02 1.846050e+03 
9.973800e-02 1.793494e+03 
1.009000e-01 1.744655e+03 
1.020900e-01 1.697033e+03 
1.034000e-01 1.647312e+03 
1.046000e-01 1.604290e+03 
1.057200e-01 1.567741e+03 
1.069100e-01 1.531061e+03 
1.082500e-01 1.494096e+03 
1.093900e-01 1.465736e+03 
1.105400e-01 1.439137e+03 
1.116900e-01 1.416233e+03 
1.129600e-01 1.392627e+03 
1.142000e-01 1.372739e+03 
1.153300e-01 1.355916e+03 
1.166400e-01 1.338219e+03 
1.177800e-01 1.323983e+03 
1.190000e-01 1.309482e+03 
1.201200e-01 1.296539e+03 
1.213400e-01 1.282786e+03 
1.227100e-01 1.266769e+03 
1.238900e-01 1.252967e+03 
1.250700e-01 1.238271e+03 
1.263200e-01 1.222450e+03 
1.275500e-01 1.205873e+03 
1.287500e-01 1.189272e+03 
1.299900e-01 1.171247e+03 
1.311300e-01 1.154302e+03 
1.323500e-01 1.135452e+03 
1.335900e-01 1.116102e+03 
1.347100e-01 1.098172e+03 
1.359800e-01 1.077929e+03 
1.372100e-01 1.058023e+03 
1.384300e-01 1.038580e+03 
1.395700e-01 1.020402e+03 
1.407700e-01 1.001704e+03 
1.420300e-01 9.823989e+02 
1.432800e-01 9.637275e+02 
1.444500e-01 9.469608e+02 
1.456300e-01 9.304390e+02 
1.468900e-01 9.137687e+02 
1.480500e-01 8.989372e+02 
1.491700e-01 8.853229e+02 
1.503800e-01 8.714374e+02 
1.516400e-01 8.575008e+02 
1.528200e-01 8.456157e+02 
1.540200e-01 8.337745e+02 
1.551900e-01 8.232678e+02 
1.564300e-01 8.125482e+02 
1.576600e-01 8.024912e+02 
1.588700e-01 7.932270e+02 
1.600900e-01 7.840882e+02 
1.612700e-01 7.758689e+02 
1.625400e-01 7.671877e+02 
1.637600e-01 7.590578e+02 
1.649500e-01 7.513018e+02 
1.662200e-01 7.431362e+02 
1.674000e-01 7.354657e+02 
1.685000e-01 7.284356e+02 
1.697500e-01 7.203219e+02 
1.710300e-01 7.119060e+02 
1.722200e-01 7.042232e+02 
1.734400e-01 6.958752e+02 
1.746400e-01 6.877850e+02 
1.758700e-01 6.794545e+02 
1.770900e-01 6.709626e+02 
1.782700e-01 6.628949e+02 
1.794600e-01 6.546550e+02 
1.807000e-01 6.460583e+02 
1.819100e-01 6.378218e+02 
1.830100e-01 6.303102e+02 
1.842200e-01 6.221625e+02 
1.855000e-01 6.137023e+02 
1.867000e-01 6.059349e+02 
1.879200e-01 5.981768e+02 
1.890900e-01 5.908926e+02 
1.902800e-01 5.837518e+02 
1.915200e-01 5.764387e+02 
1.926900e-01 5.697169e+02 
1.939000e-01 5.630802e+02 
1.951700e-01 5.562325e+02 
1.963100e-01 5.502579e+02 
1.975100e-01 5.442583e+02 
1.987800e-01 5.380123e+02 
2.000100e-01 5.321287e+02 
2.012500e-01 5.264462e+02 
2.023400e-01 5.215258e+02 
2.036100e-01 5.159079e+02 
2.048900e-01 5.104483e+02 
2.060400e-01 5.056178e+02 
2.072200e-01 5.007370e+02 
2.084200e-01 4.958942e+02 
2.096900e-01 4.908464e+02 
2.109200e-01 4.860320e+02 
2.121100e-01 4.814234e+02 
2.132700e-01 4.769937e+02 
2.145200e-01 4.722893e+02 
2.157200e-01 4.677986e+02 
2.168800e-01 4.634999e+02 
2.180700e-01 4.591515e+02 
2.193400e-01 4.545523e+02 
2.206000e-01 4.500090e+02 
2.217500e-01 4.459211e+02 
2.229500e-01 4.417141e+02 
2.241400e-01 4.375358e+02 
2.253500e-01 4.333449e+02 
2.264900e-01 4.294502e+02 
2.277100e-01 4.253202e+02 
2.289900e-01 4.210287e+02 
2.301500e-01 4.171937e+02 
2.313600e-01 4.132474e+02 
2.325600e-01 4.093738e+02 
2.337700e-01 4.055211e+02 
2.350000e-01 4.016584e+02 
2.362000e-01 3.979459e+02 
2.374100e-01 3.942585e+02 
2.386500e-01 3.905308e+02 
2.399100e-01 3.867952e+02 
2.410400e-01 3.835155e+02 
2.422500e-01 3.800518e+02 
2.435000e-01 3.765212e+02 
2.447300e-01 3.731006e+02 
2.458700e-01 3.699990e+02 
2.470600e-01 3.668015e+02 
2.483300e-01 3.634334e+02 
2.495600e-01 3.602304e+02 
2.507600e-01 3.571670e+02 
2.519600e-01 3.541418e+02 
2.532200e-01 3.510058e+02 
2.543700e-01 3.481981e+02 
2.555500e-01 3.453645e+02 
2.568000e-01 3.423998e+02 
2.580100e-01 3.395657e+02 
2.592400e-01 3.367359e+02 
2.604100e-01 3.340834e+02 
2.616100e-01 3.313950e+02 
2.628400e-01 3.286726e+02 
2.640600e-01 3.260169e+02 
2.652200e-01 3.235261e+02 
2.664300e-01 3.209579e+02 
2.676500e-01 3.183992e+02 
2.688400e-01 3.159362e+02 
2.700700e-01 3.134224e+02 
2.712400e-01 3.110587e+02 
2.724800e-01 3.085825e+02 
2.736700e-01 3.062351e+02 
2.748800e-01 3.038767e+02 
2.761000e-01 3.015262e+02 
2.773200e-01 2.992026e+02 
2.785400e-01 2.969048e+02 
2.797000e-01 2.947430e+02 
2.808900e-01 2.925495e+02 
2.821400e-01 2.902714e+02 
2.833900e-01 2.880193e+02 
2.845500e-01 2.859473e+02 
2.857800e-01 2.837742e+02 
2.870300e-01 2.815908e+02 
2.882100e-01 2.795523e+02 
2.893900e-01 2.775336e+02 
2.906300e-01 2.754342e+02 
2.918900e-01 2.733248e+02 
2.930500e-01 2.714039e+02 
2.942500e-01 2.694367e+02 
2.954200e-01 2.675364e+02 
2.966500e-01 2.655598e+02 
2.978900e-01 2.635888e+02 
2.990400e-01 2.617800e+02 
3.002700e-01 2.598649e+02 
3.015100e-01 2.579547e+02 
3.026800e-01 2.561711e+02 
3.038500e-01 2.544055e+02 
3.050300e-01 2.526429e+02 
3.062600e-01 2.508243e+02 
3.075000e-01 2.490102e+02 
3.087000e-01 2.472728e+02 
3.099100e-01 2.455389e+02 
3.111200e-01 2.438240e+02 
3.123100e-01 2.421566e+02 
3.135300e-01 2.404645e+02 
3.147300e-01 2.388169e+02 
3.159900e-01 2.371047e+02 
3.171800e-01 2.355070e+02 
3.183700e-01 2.339271e+02 
3.196300e-01 2.322710e+02 
3.208400e-01 2.306968e+02 
3.220300e-01 2.291638e+02 
3.232000e-01 2.276755e+02 
3.244300e-01 2.261278e+02 
3.256700e-01 2.245832e+02 
3.269200e-01 2.230416e+02 
3.280800e-01 2.216249e+02 
3.292500e-01 2.202152e+02 
3.304800e-01 2.187493e+02 
3.317100e-01 2.172976e+02 
3.328900e-01 2.159181e+02 
3.340700e-01 2.145515e+02 
3.353600e-01 2.130782e+02 
3.365300e-01 2.117571e+02 
3.377100e-01 2.104369e+02 
3.389200e-01 2.090957e+02 
3.401600e-01 2.077341e+02 
3.413700e-01 2.064238e+02 
3.425300e-01 2.051829e+02 
3.437700e-01 2.038687e+02 
3.449800e-01 2.025981e+02 
3.461800e-01 2.013495e+02 
3.473600e-01 2.001352e+02 
3.485800e-01 1.988972e+02 
3.498100e-01 1.976604e+02 
3.510200e-01 1.964548e+02 
3.522000e-01 1.952895e+02 
3.533900e-01 1.941246e+02 
3.546400e-01 1.929204e+02 
3.558400e-01 1.917753e+02 
3.570600e-01 1.906213e+02 
3.582700e-01 1.894870e+02 
3.595000e-01 1.883441e+02 
3.607100e-01 1.872341e+02 
3.618900e-01 1.861643e+02 
3.631200e-01 1.850589e+02 
3.643200e-01 1.839898e+02 
3.655500e-01 1.829034e+02 
3.667300e-01 1.818702e+02 
3.679500e-01 1.808188e+02 
3.691900e-01 1.797595e+02 
3.703600e-01 1.787685e+02 
3.715700e-01 1.777521e+02 
3.727700e-01 1.767526e+02 
3.739900e-01 1.757473e+02 
3.752000e-01 1.747626e+02 
3.763900e-01 1.738023e+02 
3.775800e-01 1.728498e+02 
3.788200e-01 1.718656e+02 
3.800300e-01 1.709132e+02 
3.812100e-01 1.699955e+02 
3.824200e-01 1.690644e+02 
3.836100e-01 1.681561e+02 
3.848600e-01 1.672099e+02 
3.860400e-01 1.663240e+02 
3.872400e-01 1.654302e+02 
3.884600e-01 1.645330e+02 
3.896500e-01 1.636664e+02 
3.908700e-01 1.627850e+02 
3.920600e-01 1.619322e+02 
3.933100e-01 1.610436e+02 
3.945300e-01 1.601833e+02 
3.957200e-01 1.593546e+02 
3.969300e-01 1.585197e+02 
3.981700e-01 1.576709e+02 
3.993500e-01 1.568695e+02 
4.094840e-01 1.502548e+02 
4.272360e-01 1.397399e+02 
4.454600e-01 1.301571e+02 
4.630560e-01 1.218974e+02 
4.804610e-01 1.145571e+02 
4.980690e-01 1.078600e+02 
5.159230e-01 1.017214e+02 
5.317440e-01 9.676245e+01 
5.489640e-01 9.182289e+01 
5.671990e-01 8.705252e+01 
5.838690e-01 8.305342e+01 
6.018840e-01 7.907938e+01 
6.202330e-01 7.536679e+01 
6.379250e-01 7.206374e+01 
6.545410e-01 6.919352e+01 
6.714560e-01 6.647095e+01 
6.892080e-01 6.381376e+01 
7.066010e-01 6.139124e+01 
7.240540e-01 5.912024e+01 
7.420450e-01 5.693607e+01 
7.593780e-01 5.496788e+01 
7.764720e-01 5.314388e+01 
7.942840e-01 5.135840e+01 
8.116170e-01 4.972543e+01 
8.288310e-01 4.819760e+01 
8.462240e-01 4.673995e+01 
8.631980e-01 4.539515e+01 
8.810700e-01 4.405562e+01 
8.989410e-01 4.278852e+01 
9.166330e-01 4.160043e+01 
9.345640e-01 4.045871e+01 
9.515980e-01 3.942779e+01 
9.688720e-01 3.843249e+01 
9.865640e-01 3.746235e+01 
1.031870e+00 3.517666e+01 
1.063490e+00 3.373352e+01 
1.097920e+00 3.228680e+01 
1.134370e+00 3.087792e+01 
1.167730e+00 2.968774e+01 
1.203830e+00 2.849512e+01 
1.240470e+00 2.737367e+01 
1.275790e+00 2.636914e+01 
1.309140e+00 2.548250e+01 
1.342970e+00 2.463873e+01 
1.378420e+00 2.380879e+01 
1.413200e+00 2.304410e+01 
1.448110e+00 2.232070e+01 
1.484090e+00 2.161787e+01 
1.518820e+00 2.097718e+01 
1.552880e+00 2.038186e+01 
1.588630e+00 1.978900e+01 
1.623230e+00 1.924452e+01 
1.657720e+00 1.872819e+01 
1.692450e+00 1.823307e+01 
1.726400e+00 1.777105e+01 
1.762200e+00 1.730565e+01 
1.797880e+00 1.686323e+01 
1.833270e+00 1.644384e+01 
1.869070e+00 1.603773e+01 
1.903200e+00 1.566689e+01 
1.937740e+00 1.530655e+01 
1.973190e+00 1.495122e+01 
2.007440e+00 1.462133e+01 
2.042160e+00 1.429959e+01 
2.077900e+00 1.398084e+01 
2.112390e+00 1.368462e+01 
2.146220e+00 1.340415e+01 
2.181600e+00 1.312122e+01 
2.216930e+00 1.284854e+01 
2.250760e+00 1.259623e+01 
2.286500e+00 1.233861e+01 
2.321770e+00 1.209295e+01 
2.355950e+00 1.186251e+01 
2.391280e+00 1.163168e+01 
2.426240e+00 1.141043e+01 
2.460670e+00 1.119928e+01 
2.495640e+00 1.099144e+01 
2.531080e+00 1.078684e+01 
2.566220e+00 1.059001e+01 
2.600830e+00 1.040185e+01 
2.635080e+00 1.022100e+01 
2.670340e+00 1.003962e+01 
2.705970e+00 9.861594e+00 
2.740040e+00 9.696142e+00 
2.774520e+00 9.532974e+00 
2.809730e+00 9.370663e+00 
2.844390e+00 9.215207e+00 
2.879960e+00 9.059756e+00 
2.914860e+00 8.911019e+00 
2.949410e+00 8.767619e+00 
2.984440e+00 8.625705e+00 
3.019760e+00 8.486176e+00 
3.054730e+00 8.351589e+00 
3.089030e+00 8.222298e+00 
3.124060e+00 8.093525e+00 
3.159560e+00 7.966110e+00 
3.194710e+00 7.842828e+00 
3.229010e+00 7.725487e+00 
3.263320e+00 7.610255e+00 
3.297930e+00 7.496798e+00 
3.332830e+00 7.384891e+00 
3.368040e+00 7.274428e+00 
3.403300e+00 7.166300e+00 
3.438450e+00 7.060691e+00 
3.473060e+00 6.959163e+00 
3.508440e+00 6.857169e+00 
3.543110e+00 6.759557e+00 
3.577470e+00 6.664515e+00 
3.613040e+00 6.568332e+00 
3.648120e+00 6.475303e+00 
3.682910e+00 6.384975e+00 
3.718050e+00 6.295404e+00 
3.753320e+00 6.207371e+00 
3.787980e+00 6.122510e+00 
3.822290e+00 6.040163e+00 
3.857020e+00 5.958308e+00 
3.891920e+00 5.877684e+00 
3.926650e+00 5.798855e+00 
3.961970e+00 5.720288e+00 
3.997360e+00 5.642890e+00 
4.031670e+00 5.569394e+00 
4.066330e+00 5.496355e+00 
4.101420e+00 5.423966e+00 
4.136200e+00 5.353174e+00 
4.170810e+00 5.284201e+00 
4.206250e+00 5.214678e+00 
4.241580e+00 5.146758e+00 
4.276300e+00 5.081092e+00 
4.310970e+00 5.016687e+00 
4.346120e+00 4.952553e+00 
4.380600e+00 4.890636e+00 
4.414730e+00 4.830541e+00 
4.450350e+00 4.768670e+00 
4.485320e+00 4.709139e+00 
4.519810e+00 4.651277e+00 
4.555430e+00 4.592555e+00 
4.590870e+00 4.535171e+00 
4.625480e+00 4.479989e+00 
4.659910e+00 4.426129e+00 
4.695230e+00 4.371612e+00 
4.729960e+00 4.318970e+00 
4.764450e+00 4.267537e+00 
4.799530e+00 4.215984e+00 
4.834910e+00 4.164959e+00 
4.869700e+00 4.115460e+00 
4.904370e+00 4.066987e+00 
4.939450e+00 4.018756e+00 
4.973940e+00 3.971997e+00 
5.008430e+00 3.926066e+00 
5.043810e+00 3.879623e+00 
5.078840e+00 3.834363e+00 
5.113500e+00 3.790367e+00 
5.148890e+00 3.745969e+00 
5.184210e+00 3.702428e+00 
5.219060e+00 3.660166e+00 
5.253660e+00 3.618795e+00 
5.288570e+00 3.577763e+00 
5.323420e+00 3.537401e+00 
5.358440e+00 3.497419e+00 
5.393590e+00 3.457967e+00 
5.428310e+00 3.419522e+00 
5.462800e+00 3.381895e+00 
5.497640e+00 3.344510e+00 
5.532670e+00 3.307419e+00 
5.567280e+00 3.271332e+00 
5.602000e+00 3.235715e+00 
5.637270e+00 3.200002e+00 
5.672410e+00 3.164971e+00 
5.707020e+00 3.131019e+00 
5.742040e+00 3.097109e+00 
5.777430e+00 3.063367e+00 
5.812210e+00 3.030730e+00 
5.846820e+00 2.998669e+00 
5.881610e+00 2.966917e+00 
5.916510e+00 2.935558e+00 
5.951600e+00 2.904441e+00 
5.986560e+00 2.873884e+00 
6.021830e+00 2.843528e+00 
6.056490e+00 2.814107e+00 
6.091160e+00 2.785082e+00 
6.125830e+00 2.756490e+00 
6.161090e+00 2.727827e+00 
6.195760e+00 2.700021e+00 
6.230420e+00 2.672632e+00 
6.265690e+00 2.645170e+00 
6.300950e+00 2.618058e+00 
6.335620e+00 2.591790e+00 
6.370880e+00 2.565464e+00 
6.405550e+00 2.539923e+00 
6.440220e+00 2.514736e+00 
6.475480e+00 2.489486e+00 
6.510150e+00 2.465003e+00 
6.544810e+00 2.440847e+00 
6.580080e+00 2.416614e+00 
6.614750e+00 2.393127e+00 
6.649410e+00 2.369954e+00 
6.684080e+00 2.347090e+00 
6.719340e+00 2.324160e+00 
6.754010e+00 2.301919e+00 
6.788680e+00 2.279968e+00 
6.823940e+00 2.257949e+00 
6.859800e+00 2.235865e+00 
6.894470e+00 2.214801e+00 
6.929140e+00 2.194017e+00 
6.963800e+00 2.173516e+00 
6.999070e+00 2.152932e+00 
7.033730e+00 2.132980e+00 
7.068400e+00 2.113284e+00 
7.103660e+00 2.093517e+00 
7.138330e+00 2.074337e+00 
7.173600e+00 2.055083e+00 
7.208260e+00 2.036409e+00 
7.243530e+00 2.017652e+00 
7.277600e+00 1.999770e+00 
7.312860e+00 1.981505e+00 
7.348120e+00 1.963475e+00 
7.382790e+00 1.945972e+00 
7.417460e+00 1.928699e+00 
7.452720e+00 1.911359e+00 
7.487390e+00 1.894522e+00 
7.522650e+00 1.877614e+00 
7.557320e+00 1.861221e+00 
7.591990e+00 1.845039e+00 
7.627250e+00 1.828785e+00 
7.662510e+00 1.812733e+00 
7.697180e+00 1.797162e+00 
7.731850e+00 1.781788e+00 
7.766510e+00 1.766603e+00 
7.801180e+00 1.751595e+00 
7.836440e+00 1.736533e+00 
7.871110e+00 1.721911e+00 
7.906380e+00 1.707213e+00 
7.941040e+00 1.692941e+00 
7.976310e+00 1.678604e+00 
8.011570e+00 1.664458e+00 
8.046240e+00 1.650712e+00 
8.080900e+00 1.637129e+00 
8.115570e+00 1.623708e+00 
8.150830e+00 1.610257e+00 
8.185500e+00 1.597182e+00 
8.220770e+00 1.584035e+00 
8.255430e+00 1.571262e+00 
8.290100e+00 1.558661e+00 
8.324770e+00 1.546204e+00 
8.359430e+00 1.533891e+00 
8.394700e+00 1.521503e+00 
8.429960e+00 1.509279e+00 
8.464630e+00 1.497417e+00 
8.499890e+00 1.485487e+00 
8.534560e+00 1.473886e+00 
8.569200e+00 1.462422e+00 
