# Parameters:
# omega_b = 0.023201, omega_m = 0.128819, n_s = 1.035827, h = 80.984252, w = -1.000000, sigma_8 = 0.890551
# z = 1.700000
#
# k[1/Mpc] # P(k):
8.694000e-04 3.677298e+03 
2.077466e-03 8.250052e+03 
3.285532e-03 1.193510e+04 
4.493598e-03 1.481352e+04 
5.701664e-03 1.696027e+04 
6.909730e-03 1.848333e+04 
8.117797e-03 1.951537e+04 
9.325863e-03 2.012394e+04 
1.053393e-02 2.037656e+04 
1.174199e-02 2.033593e+04 
1.295006e-02 2.004457e+04 
1.415813e-02 1.956132e+04 
1.536619e-02 1.893585e+04 
1.657426e-02 1.820342e+04 
1.778233e-02 1.739735e+04 
1.899039e-02 1.656461e+04 
2.019846e-02 1.573084e+04 
2.140652e-02 1.491775e+04 
2.261459e-02 1.413798e+04 
2.382266e-02 1.340549e+04 
2.503072e-02 1.272915e+04 
2.623879e-02 1.211169e+04 
2.744685e-02 1.155439e+04 
2.865492e-02 1.105662e+04 
2.986299e-02 1.061462e+04 
3.100100e-02 1.024804e+04 
3.220400e-02 9.907709e+03 
3.288100e-02 9.737130e+03 
3.424300e-02 9.431837e+03 
3.555100e-02 9.178894e+03 
3.686000e-02 8.958876e+03 
3.795000e-02 8.795090e+03 
3.929100e-02 8.612666e+03 
4.039800e-02 8.471260e+03 
4.164000e-02 8.317947e+03 
4.294400e-02 8.154253e+03 
4.415000e-02 8.000353e+03 
4.542900e-02 7.824796e+03 
4.660900e-02 7.655817e+03 
4.782300e-02 7.464124e+03 
4.892900e-02 7.281347e+03 
5.031200e-02 7.038990e+03 
5.155900e-02 6.807918e+03 
5.238100e-02 6.651250e+03 
5.378200e-02 6.379049e+03 
5.513400e-02 6.111619e+03 
5.627600e-02 5.884884e+03 
5.735300e-02 5.672627e+03 
5.870100e-02 5.411218e+03 
5.988700e-02 5.188158e+03 
6.113500e-02 4.962828e+03 
6.225900e-02 4.771293e+03 
6.340100e-02 4.590513e+03 
6.480200e-02 4.388883e+03 
6.601100e-02 4.236367e+03 
6.725500e-02 4.099388e+03 
6.829100e-02 4.001577e+03 
6.958600e-02 3.894733e+03 
7.071100e-02 3.816287e+03 
7.192300e-02 3.743679e+03 
7.307400e-02 3.684458e+03 
7.412300e-02 3.637278e+03 
7.550400e-02 3.583807e+03 
7.663100e-02 3.544845e+03 
7.791200e-02 3.504834e+03 
7.912700e-02 3.468482e+03 
8.027600e-02 3.434133e+03 
8.138400e-02 3.400248e+03 
8.272200e-02 3.357076e+03 
8.406100e-02 3.310376e+03 
8.534100e-02 3.260301e+03 
8.653800e-02 3.208378e+03 
8.759800e-02 3.159398e+03 
8.900300e-02 3.089588e+03 
9.009000e-02 3.031491e+03 
9.113300e-02 2.972313e+03 
9.239600e-02 2.898750e+03 
9.358000e-02 2.827354e+03 
9.496100e-02 2.741507e+03 
9.608400e-02 2.671779e+03 
9.727500e-02 2.598573e+03 
9.852600e-02 2.522079e+03 
9.973800e-02 2.450602e+03 
1.009000e-01 2.384437e+03 
1.020900e-01 2.320788e+03 
1.034000e-01 2.254795e+03 
1.046000e-01 2.198193e+03 
1.057200e-01 2.151087e+03 
1.069100e-01 2.104168e+03 
1.082500e-01 2.058034e+03 
1.093900e-01 2.023375e+03 
1.105400e-01 1.991318e+03 
1.116900e-01 1.964728e+03 
1.129600e-01 1.937655e+03 
1.142000e-01 1.915640e+03 
1.153300e-01 1.897182e+03 
1.166400e-01 1.878041e+03 
1.177800e-01 1.862509e+03 
1.190000e-01 1.846635e+03 
1.201200e-01 1.831679e+03 
1.213400e-01 1.815658e+03 
1.227100e-01 1.795378e+03 
1.238900e-01 1.777563e+03 
1.250700e-01 1.757499e+03 
1.263200e-01 1.735545e+03 
1.275500e-01 1.711788e+03 
1.287500e-01 1.687766e+03 
1.299900e-01 1.661336e+03 
1.311300e-01 1.636481e+03 
1.323500e-01 1.608817e+03 
1.335900e-01 1.580604e+03 
1.347100e-01 1.554692e+03 
1.359800e-01 1.525691e+03 
1.372100e-01 1.497660e+03 
1.384300e-01 1.470525e+03 
1.395700e-01 1.445726e+03 
1.407700e-01 1.420287e+03 
1.420300e-01 1.394820e+03 
1.432800e-01 1.370167e+03 
1.444500e-01 1.348737e+03 
1.456300e-01 1.327596e+03 
1.468900e-01 1.306633e+03 
1.480500e-01 1.288078e+03 
1.491700e-01 1.271150e+03 
1.503800e-01 1.254027e+03 
1.516400e-01 1.236829e+03 
1.528200e-01 1.222189e+03 
1.540200e-01 1.207589e+03 
1.551900e-01 1.194512e+03 
1.564300e-01 1.181132e+03 
1.576600e-01 1.168445e+03 
1.588700e-01 1.156595e+03 
1.600900e-01 1.144882e+03 
1.612700e-01 1.133998e+03 
1.625400e-01 1.122499e+03 
1.637600e-01 1.111510e+03 
1.649500e-01 1.100896e+03 
1.662200e-01 1.089679e+03 
1.674000e-01 1.078922e+03 
1.685000e-01 1.069062e+03 
1.697500e-01 1.057611e+03 
1.710300e-01 1.045666e+03 
1.722200e-01 1.034760e+03 
1.734400e-01 1.022897e+03 
1.746400e-01 1.011397e+03 
1.758700e-01 9.995788e+02 
1.770900e-01 9.875782e+02 
1.782700e-01 9.761743e+02 
1.794600e-01 9.645970e+02 
1.807000e-01 9.525618e+02 
1.819100e-01 9.410266e+02 
1.830100e-01 9.306131e+02 
1.842200e-01 9.193313e+02 
1.855000e-01 9.076166e+02 
1.867000e-01 8.969876e+02 
1.879200e-01 8.863654e+02 
1.890900e-01 8.764047e+02 
1.902800e-01 8.667302e+02 
1.915200e-01 8.568163e+02 
1.926900e-01 8.477181e+02 
1.939000e-01 8.387945e+02 
1.951700e-01 8.295816e+02 
1.963100e-01 8.215505e+02 
1.975100e-01 8.135141e+02 
1.987800e-01 8.051429e+02 
2.000100e-01 7.972555e+02 
2.012500e-01 7.896396e+02 
2.023400e-01 7.830418e+02 
2.036100e-01 7.754987e+02 
2.048900e-01 7.681394e+02 
2.060400e-01 7.616251e+02 
2.072200e-01 7.550362e+02 
2.084200e-01 7.484475e+02 
2.096900e-01 7.415772e+02 
2.109200e-01 7.350219e+02 
2.121100e-01 7.286836e+02 
2.132700e-01 7.225861e+02 
2.145200e-01 7.161081e+02 
2.157200e-01 7.098842e+02 
2.168800e-01 7.039069e+02 
2.180700e-01 6.978585e+02 
2.193400e-01 6.914408e+02 
2.206000e-01 6.850658e+02 
2.217500e-01 6.793277e+02 
2.229500e-01 6.734204e+02 
2.241400e-01 6.675218e+02 
2.253500e-01 6.616027e+02 
2.264900e-01 6.560999e+02 
2.277100e-01 6.502536e+02 
2.289900e-01 6.441662e+02 
2.301500e-01 6.387246e+02 
2.313600e-01 6.331229e+02 
2.325600e-01 6.276166e+02 
2.337700e-01 6.221381e+02 
2.350000e-01 6.166434e+02 
2.362000e-01 6.113609e+02 
2.374100e-01 6.061124e+02 
2.386500e-01 6.008048e+02 
2.399100e-01 5.954839e+02 
2.410400e-01 5.908136e+02 
2.422500e-01 5.858799e+02 
2.435000e-01 5.808492e+02 
2.447300e-01 5.759749e+02 
2.458700e-01 5.715589e+02 
2.470600e-01 5.670049e+02 
2.483300e-01 5.622064e+02 
2.495600e-01 5.576443e+02 
2.507600e-01 5.532837e+02 
2.519600e-01 5.489761e+02 
2.532200e-01 5.445091e+02 
2.543700e-01 5.405121e+02 
2.555500e-01 5.364793e+02 
2.568000e-01 5.322585e+02 
2.580100e-01 5.282224e+02 
2.592400e-01 5.241956e+02 
2.604100e-01 5.204218e+02 
2.616100e-01 5.165958e+02 
2.628400e-01 5.127200e+02 
2.640600e-01 5.089419e+02 
2.652200e-01 5.053988e+02 
2.664300e-01 5.017445e+02 
2.676500e-01 4.981023e+02 
2.688400e-01 4.945983e+02 
2.700700e-01 4.910227e+02 
2.712400e-01 4.876596e+02 
2.724800e-01 4.841352e+02 
2.736700e-01 4.807949e+02 
2.748800e-01 4.774400e+02 
2.761000e-01 4.740951e+02 
2.773200e-01 4.707874e+02 
2.785400e-01 4.675164e+02 
2.797000e-01 4.644399e+02 
2.808900e-01 4.613173e+02 
2.821400e-01 4.580730e+02 
2.833900e-01 4.548649e+02 
2.845500e-01 4.519164e+02 
2.857800e-01 4.488230e+02 
2.870300e-01 4.457138e+02 
2.882100e-01 4.428100e+02 
2.893900e-01 4.399360e+02 
2.906300e-01 4.369478e+02 
2.918900e-01 4.339442e+02 
2.930500e-01 4.312080e+02 
2.942500e-01 4.284059e+02 
2.954200e-01 4.257008e+02 
2.966500e-01 4.228862e+02 
2.978900e-01 4.200785e+02 
2.990400e-01 4.175009e+02 
3.002700e-01 4.147732e+02 
3.015100e-01 4.120526e+02 
3.026800e-01 4.095115e+02 
3.038500e-01 4.069951e+02 
3.050300e-01 4.044821e+02 
3.062600e-01 4.018925e+02 
3.075000e-01 3.993083e+02 
3.087000e-01 3.968326e+02 
3.099100e-01 3.943608e+02 
3.111200e-01 3.919161e+02 
3.123100e-01 3.895398e+02 
3.135300e-01 3.871273e+02 
3.147300e-01 3.847775e+02 
3.159900e-01 3.823345e+02 
3.171800e-01 3.800549e+02 
3.183700e-01 3.778002e+02 
3.196300e-01 3.754361e+02 
3.208400e-01 3.731879e+02 
3.220300e-01 3.709977e+02 
3.232000e-01 3.688711e+02 
3.244300e-01 3.666591e+02 
3.256700e-01 3.644505e+02 
3.269200e-01 3.622456e+02 
3.280800e-01 3.602184e+02 
3.292500e-01 3.582001e+02 
3.304800e-01 3.561002e+02 
3.317100e-01 3.540201e+02 
3.328900e-01 3.520427e+02 
3.340700e-01 3.500830e+02 
3.353600e-01 3.479677e+02 
3.365300e-01 3.460697e+02 
3.377100e-01 3.441722e+02 
3.389200e-01 3.422437e+02 
3.401600e-01 3.402855e+02 
3.413700e-01 3.383980e+02 
3.425300e-01 3.366086e+02 
3.437700e-01 3.347127e+02 
3.449800e-01 3.328791e+02 
3.461800e-01 3.310767e+02 
3.473600e-01 3.293220e+02 
3.485800e-01 3.275294e+02 
3.498100e-01 3.257380e+02 
3.510200e-01 3.239911e+02 
3.522000e-01 3.223022e+02 
3.533900e-01 3.206133e+02 
3.546400e-01 3.188615e+02 
3.558400e-01 3.171947e+02 
3.570600e-01 3.155146e+02 
3.582700e-01 3.138625e+02 
3.595000e-01 3.121975e+02 
3.607100e-01 3.105770e+02 
3.618900e-01 3.090127e+02 
3.631200e-01 3.073957e+02 
3.643200e-01 3.058313e+02 
3.655500e-01 3.042413e+02 
3.667300e-01 3.027285e+02 
3.679500e-01 3.011825e+02 
3.691900e-01 2.996242e+02 
3.703600e-01 2.981660e+02 
3.715700e-01 2.966701e+02 
3.727700e-01 2.951985e+02 
3.739900e-01 2.937161e+02 
3.752000e-01 2.922604e+02 
3.763900e-01 2.908403e+02 
3.775800e-01 2.894314e+02 
3.788200e-01 2.879751e+02 
3.800300e-01 2.865656e+02 
3.812100e-01 2.852037e+02 
3.824200e-01 2.838194e+02 
3.836100e-01 2.824686e+02 
3.848600e-01 2.810610e+02 
3.860400e-01 2.797428e+02 
3.872400e-01 2.784125e+02 
3.884600e-01 2.770731e+02 
3.896500e-01 2.757776e+02 
3.908700e-01 2.744598e+02 
3.920600e-01 2.731843e+02 
3.933100e-01 2.718549e+02 
3.945300e-01 2.705676e+02 
3.957200e-01 2.693235e+02 
3.969300e-01 2.680687e+02 
3.981700e-01 2.667928e+02 
3.993500e-01 2.655877e+02 
4.094840e-01 2.556109e+02 
4.272360e-01 2.396171e+02 
4.454600e-01 2.249235e+02 
4.630560e-01 2.121795e+02 
4.804610e-01 2.007969e+02 
4.980690e-01 1.903720e+02 
5.159230e-01 1.807791e+02 
5.317440e-01 1.730051e+02 
5.489640e-01 1.652330e+02 
5.671990e-01 1.577029e+02 
5.838690e-01 1.513679e+02 
6.018840e-01 1.450553e+02 
6.202330e-01 1.391376e+02 
6.379250e-01 1.338537e+02 
6.545410e-01 1.292488e+02 
6.714560e-01 1.248698e+02 
6.892080e-01 1.205813e+02 
7.066010e-01 1.166631e+02 
7.240540e-01 1.129760e+02 
7.420450e-01 1.094226e+02 
7.593780e-01 1.062108e+02 
7.764720e-01 1.032265e+02 
7.942840e-01 1.002967e+02 
8.116170e-01 9.761019e+01 
8.288310e-01 9.508810e+01 
8.462240e-01 9.267589e+01 
8.631980e-01 9.044266e+01 
8.810700e-01 8.821066e+01 
8.989410e-01 8.609154e+01 
9.166330e-01 8.409703e+01 
9.345640e-01 8.217508e+01 
9.515980e-01 8.043261e+01 
9.688720e-01 7.874228e+01 
9.865640e-01 7.708875e+01 
1.031870e+00 7.316120e+01 
1.063490e+00 7.065649e+01 
1.097920e+00 6.812539e+01 
1.134370e+00 6.563474e+01 
1.167730e+00 6.351153e+01 
1.203830e+00 6.135953e+01 
1.240470e+00 5.931653e+01 
1.275790e+00 5.746721e+01 
1.309140e+00 5.582118e+01 
1.342970e+00 5.423382e+01 
1.378420e+00 5.266081e+01 
1.413200e+00 5.119665e+01 
1.448110e+00 4.979866e+01 
1.484090e+00 4.842763e+01 
1.518820e+00 4.716630e+01 
1.552880e+00 4.598326e+01 
1.588630e+00 4.479541e+01 
1.623230e+00 4.369508e+01 
1.657720e+00 4.264359e+01 
1.692450e+00 4.162754e+01 
1.726400e+00 4.067209e+01 
1.762200e+00 3.970202e+01 
1.797880e+00 3.877279e+01 
1.833270e+00 3.788641e+01 
1.869070e+00 3.702212e+01 
1.903200e+00 3.622694e+01 
1.937740e+00 3.545027e+01 
1.973190e+00 3.468023e+01 
2.007440e+00 3.396132e+01 
2.042160e+00 3.325544e+01 
2.077900e+00 3.255229e+01 
2.112390e+00 3.189652e+01 
2.146220e+00 3.127145e+01 
2.181600e+00 3.063820e+01 
2.216930e+00 3.002452e+01 
2.250760e+00 2.945458e+01 
2.286500e+00 2.887058e+01 
2.321770e+00 2.831126e+01 
2.355950e+00 2.778446e+01 
2.391280e+00 2.725398e+01 
2.426240e+00 2.674371e+01 
2.460670e+00 2.625548e+01 
2.495640e+00 2.577384e+01 
2.531080e+00 2.529751e+01 
2.566220e+00 2.483740e+01 
2.600830e+00 2.439639e+01 
2.635080e+00 2.397164e+01 
2.670340e+00 2.354459e+01 
2.705970e+00 2.312417e+01 
2.740040e+00 2.273248e+01 
2.774520e+00 2.234521e+01 
2.809730e+00 2.195888e+01 
2.844390e+00 2.158832e+01 
2.879960e+00 2.121732e+01 
2.914860e+00 2.086136e+01 
2.949410e+00 2.051763e+01 
2.984440e+00 2.017657e+01 
3.019760e+00 1.984067e+01 
3.054730e+00 1.951634e+01 
3.089030e+00 1.920421e+01 
3.124060e+00 1.889318e+01 
3.159560e+00 1.858521e+01 
3.194710e+00 1.828659e+01 
3.229010e+00 1.800216e+01 
3.263320e+00 1.772237e+01 
3.297930e+00 1.744675e+01 
3.332830e+00 1.717457e+01 
3.368040e+00 1.690584e+01 
3.403300e+00 1.664276e+01 
3.438450e+00 1.638546e+01 
3.473060e+00 1.613807e+01 
3.508440e+00 1.588920e+01 
3.543110e+00 1.565110e+01 
3.577470e+00 1.541941e+01 
3.613040e+00 1.518483e+01 
3.648120e+00 1.495756e+01 
3.682910e+00 1.473705e+01 
3.718050e+00 1.451862e+01 
3.753320e+00 1.430383e+01 
3.787980e+00 1.409656e+01 
3.822290e+00 1.389553e+01 
3.857020e+00 1.369581e+01 
3.891920e+00 1.349913e+01 
3.926650e+00 1.330682e+01 
3.961970e+00 1.311527e+01 
3.997360e+00 1.292673e+01 
4.031670e+00 1.274774e+01 
4.066330e+00 1.256984e+01 
4.101420e+00 1.239359e+01 
4.136200e+00 1.222142e+01 
4.170810e+00 1.205374e+01 
4.206250e+00 1.188485e+01 
4.241580e+00 1.171993e+01 
4.276300e+00 1.156063e+01 
4.310970e+00 1.140448e+01 
4.346120e+00 1.124908e+01 
4.380600e+00 1.109916e+01 
4.414730e+00 1.095370e+01 
4.450350e+00 1.080414e+01 
4.485320e+00 1.066029e+01 
4.519810e+00 1.052074e+01 
4.555430e+00 1.037926e+01 
4.590870e+00 1.024105e+01 
4.625480e+00 1.010817e+01 
4.659910e+00 9.978517e+00 
4.695230e+00 9.847628e+00 
4.729960e+00 9.721335e+00 
4.764450e+00 9.598078e+00 
4.799530e+00 9.474731e+00 
4.834910e+00 9.352694e+00 
4.869700e+00 9.234446e+00 
4.904370e+00 9.118705e+00 
4.939450e+00 9.003647e+00 
4.973940e+00 8.892306e+00 
5.008430e+00 8.782976e+00 
5.043810e+00 8.672566e+00 
5.078840e+00 8.565065e+00 
5.113500e+00 8.460606e+00 
5.148890e+00 8.355513e+00 
5.184210e+00 8.252499e+00 
5.219060e+00 8.152583e+00 
5.253660e+00 8.054909e+00 
5.288570e+00 7.958070e+00 
5.323420e+00 7.862901e+00 
5.358440e+00 7.768727e+00 
5.393590e+00 7.675833e+00 
5.428310e+00 7.585541e+00 
5.462800e+00 7.497303e+00 
5.497640e+00 7.409661e+00 
5.532670e+00 7.322877e+00 
5.567280e+00 7.238515e+00 
5.602000e+00 7.155277e+00 
5.637270e+00 7.071953e+00 
5.672410e+00 6.990272e+00 
5.707020e+00 6.911133e+00 
5.742040e+00 6.832285e+00 
5.777430e+00 6.753886e+00 
5.812210e+00 6.678082e+00 
5.846820e+00 6.603736e+00 
5.881610e+00 6.530155e+00 
5.916510e+00 6.457506e+00 
5.951600e+00 6.385559e+00 
5.986560e+00 6.314980e+00 
6.021830e+00 6.244888e+00 
6.056490e+00 6.177060e+00 
6.091160e+00 6.110234e+00 
6.125830e+00 6.044426e+00 
6.161090e+00 5.978502e+00 
6.195760e+00 5.914629e+00 
6.230420e+00 5.851731e+00 
6.265690e+00 5.788689e+00 
6.300950e+00 5.726638e+00 
6.335620e+00 5.666532e+00 
6.370880e+00 5.606310e+00 
6.405550e+00 5.547953e+00 
6.440220e+00 5.490439e+00 
6.475480e+00 5.432800e+00 
6.510150e+00 5.376959e+00 
6.544810e+00 5.321957e+00 
6.580080e+00 5.266791e+00 
6.614750e+00 5.213341e+00 
6.649410e+00 5.160669e+00 
6.684080e+00 5.108724e+00 
6.719340e+00 5.056640e+00 
6.754010e+00 5.006172e+00 
6.788680e+00 4.956461e+00 
6.823940e+00 4.906608e+00 
6.859800e+00 4.856620e+00 
6.894470e+00 4.809004e+00 
6.929140e+00 4.762050e+00 
6.963800e+00 4.715745e+00 
6.999070e+00 4.669269e+00 
7.033730e+00 4.624268e+00 
7.068400e+00 4.579854e+00 
7.103660e+00 4.535289e+00 
7.138330e+00 4.492074e+00 
7.173600e+00 4.448733e+00 
7.208260e+00 4.406704e+00 
7.243530e+00 4.364499e+00 
7.277600e+00 4.324299e+00 
7.312860e+00 4.283268e+00 
7.348120e+00 4.242775e+00 
7.382790e+00 4.203475e+00 
7.417460e+00 4.164738e+00 
7.452720e+00 4.125880e+00 
7.487390e+00 4.088160e+00 
7.522650e+00 4.050285e+00 
7.557320e+00 4.013570e+00 
7.591990e+00 3.977334e+00 
7.627250e+00 3.940944e+00 
7.662510e+00 3.905011e+00 
7.697180e+00 3.870197e+00 
7.731850e+00 3.835839e+00 
7.766510e+00 3.801910e+00 
7.801180e+00 3.768385e+00 
7.836440e+00 3.734750e+00 
7.871110e+00 3.702108e+00 
7.906380e+00 3.669303e+00 
7.941040e+00 3.637454e+00 
7.976310e+00 3.605475e+00 
8.011570e+00 3.573938e+00 
8.046240e+00 3.543299e+00 
8.080900e+00 3.513029e+00 
8.115570e+00 3.483126e+00 
8.150830e+00 3.453152e+00 
8.185500e+00 3.424024e+00 
8.220770e+00 3.394738e+00 
8.255430e+00 3.366293e+00 
8.290100e+00 3.338260e+00 
8.324770e+00 3.310557e+00 
8.359430e+00 3.283178e+00 
8.394700e+00 3.255636e+00 
8.429960e+00 3.228460e+00 
8.464630e+00 3.202087e+00 
8.499890e+00 3.175568e+00 
8.534560e+00 3.149785e+00 
8.569200e+00 3.124312e+00 
