# Parameters:
# omega_b = 0.021909, omega_m = 0.131299, n_s = 0.892520, h = 76.496063, w = -1.000000, sigma_8 = 0.881102
# z = 1.700000
#
# k[1/Mpc] # P(k):
8.694000e-04 6.773394e+03 
2.077466e-03 1.346237e+04 
3.285532e-03 1.829559e+04 
4.493598e-03 2.176571e+04 
5.701664e-03 2.415334e+04 
6.909730e-03 2.568525e+04 
8.117797e-03 2.657953e+04 
9.325863e-03 2.694858e+04 
1.053393e-02 2.689634e+04 
1.174199e-02 2.651349e+04 
1.295006e-02 2.585825e+04 
1.415813e-02 2.500497e+04 
1.536619e-02 2.401465e+04 
1.657426e-02 2.292814e+04 
1.778233e-02 2.178246e+04 
1.899039e-02 2.063065e+04 
2.019846e-02 1.950016e+04 
2.140652e-02 1.841356e+04 
2.261459e-02 1.738290e+04 
2.382266e-02 1.642196e+04 
2.503072e-02 1.553919e+04 
2.623879e-02 1.473583e+04 
2.744685e-02 1.401154e+04 
2.865492e-02 1.336400e+04 
2.986299e-02 1.278735e+04 
3.100100e-02 1.230628e+04 
3.220400e-02 1.185610e+04 
3.288100e-02 1.162817e+04 
3.424300e-02 1.121547e+04 
3.555100e-02 1.086769e+04 
3.686000e-02 1.055925e+04 
3.795000e-02 1.032575e+04 
3.929100e-02 1.006123e+04 
4.039800e-02 9.854574e+03 
4.164000e-02 9.630682e+03 
4.294400e-02 9.394837e+03 
4.415000e-02 9.176817e+03 
4.542900e-02 8.935571e+03 
4.660900e-02 8.708709e+03 
4.782300e-02 8.460043e+03 
4.892900e-02 8.228113e+03 
5.031200e-02 7.928077e+03 
5.155900e-02 7.648718e+03 
5.238100e-02 7.462153e+03 
5.378200e-02 7.142453e+03 
5.513400e-02 6.833394e+03 
5.627600e-02 6.574644e+03 
5.735300e-02 6.334666e+03 
5.870100e-02 6.041705e+03 
5.988700e-02 5.793330e+03 
6.113500e-02 5.543186e+03 
6.225900e-02 5.330364e+03 
6.340100e-02 5.128449e+03 
6.480200e-02 4.901257e+03 
6.601100e-02 4.726723e+03 
6.725500e-02 4.567243e+03 
6.829100e-02 4.450870e+03 
6.958600e-02 4.321444e+03 
7.071100e-02 4.223951e+03 
7.192300e-02 4.131536e+03 
7.307400e-02 4.054216e+03 
7.412300e-02 3.991152e+03 
7.550400e-02 3.917691e+03 
7.663100e-02 3.863163e+03 
7.791200e-02 3.806380e+03 
7.912700e-02 3.755072e+03 
8.027600e-02 3.707397e+03 
8.138400e-02 3.661400e+03 
8.272200e-02 3.604621e+03 
8.406100e-02 3.545407e+03 
8.534100e-02 3.484516e+03 
8.653800e-02 3.423439e+03 
8.759800e-02 3.366985e+03 
8.900300e-02 3.288203e+03 
9.009000e-02 3.223889e+03 
9.113300e-02 3.159323e+03 
9.239600e-02 3.079784e+03 
9.358000e-02 3.003352e+03 
9.496100e-02 2.912284e+03 
9.608400e-02 2.838663e+03 
9.727500e-02 2.761607e+03 
9.852600e-02 2.681394e+03 
9.973800e-02 2.606433e+03 
1.009000e-01 2.537032e+03 
1.020900e-01 2.469990e+03 
1.034000e-01 2.400217e+03 
1.046000e-01 2.340085e+03 
1.057200e-01 2.289347e+03 
1.069100e-01 2.238507e+03 
1.082500e-01 2.187521e+03 
1.093900e-01 2.148473e+03 
1.105400e-01 2.111885e+03 
1.116900e-01 2.080338e+03 
1.129600e-01 2.047761e+03 
1.142000e-01 2.020079e+03 
1.153300e-01 1.996466e+03 
1.166400e-01 1.971311e+03 
1.177800e-01 1.950638e+03 
1.190000e-01 1.929364e+03 
1.201200e-01 1.909783e+03 
1.213400e-01 1.888866e+03 
1.227100e-01 1.863815e+03 
1.238900e-01 1.842144e+03 
1.250700e-01 1.818839e+03 
1.263200e-01 1.793761e+03 
1.275500e-01 1.767519e+03 
1.287500e-01 1.741387e+03 
1.299900e-01 1.713237e+03 
1.311300e-01 1.687036e+03 
1.323500e-01 1.658259e+03 
1.335900e-01 1.629063e+03 
1.347100e-01 1.602440e+03 
1.359800e-01 1.572680e+03 
1.372100e-01 1.543988e+03 
1.384300e-01 1.516187e+03 
1.395700e-01 1.490725e+03 
1.407700e-01 1.464583e+03 
1.420300e-01 1.438201e+03 
1.432800e-01 1.412663e+03 
1.444500e-01 1.390143e+03 
1.456300e-01 1.367932e+03 
1.468900e-01 1.345619e+03 
1.480500e-01 1.325785e+03 
1.491700e-01 1.307525e+03 
1.503800e-01 1.288836e+03 
1.516400e-01 1.270004e+03 
1.528200e-01 1.253670e+03 
1.540200e-01 1.237389e+03 
1.551900e-01 1.222568e+03 
1.564300e-01 1.207347e+03 
1.576600e-01 1.192836e+03 
1.588700e-01 1.179186e+03 
1.600900e-01 1.165698e+03 
1.612700e-01 1.153153e+03 
1.625400e-01 1.139903e+03 
1.637600e-01 1.127351e+03 
1.649500e-01 1.115291e+03 
1.662200e-01 1.102594e+03 
1.674000e-01 1.090660e+03 
1.685000e-01 1.079724e+03 
1.697500e-01 1.067205e+03 
1.710300e-01 1.054316e+03 
1.722200e-01 1.042553e+03 
1.734400e-01 1.030066e+03 
1.746400e-01 1.017977e+03 
1.758700e-01 1.005630e+03 
1.770900e-01 9.932449e+02 
1.782700e-01 9.814774e+02 
1.794600e-01 9.696072e+02 
1.807000e-01 9.573179e+02 
1.819100e-01 9.455405e+02 
1.830100e-01 9.349330e+02 
1.842200e-01 9.234461e+02 
1.855000e-01 9.115175e+02 
1.867000e-01 9.006471e+02 
1.879200e-01 8.897850e+02 
1.890900e-01 8.795847e+02 
1.902800e-01 8.695951e+02 
1.915200e-01 8.593602e+02 
1.926900e-01 8.499411e+02 
1.939000e-01 8.406130e+02 
1.951700e-01 8.309845e+02 
1.963100e-01 8.225643e+02 
1.975100e-01 8.140619e+02 
1.987800e-01 8.052079e+02 
2.000100e-01 7.968445e+02 
2.012500e-01 7.887169e+02 
2.023400e-01 7.816777e+02 
2.036100e-01 7.736260e+02 
2.048900e-01 7.657497e+02 
2.060400e-01 7.587795e+02 
2.072200e-01 7.517327e+02 
2.084200e-01 7.447034e+02 
2.096900e-01 7.373755e+02 
2.109200e-01 7.303855e+02 
2.121100e-01 7.236753e+02 
2.132700e-01 7.172238e+02 
2.145200e-01 7.103714e+02 
2.157200e-01 7.038288e+02 
2.168800e-01 6.975649e+02 
2.180700e-01 6.912277e+02 
2.193400e-01 6.845253e+02 
2.206000e-01 6.779063e+02 
2.217500e-01 6.719497e+02 
2.229500e-01 6.658185e+02 
2.241400e-01 6.597368e+02 
2.253500e-01 6.536359e+02 
2.264900e-01 6.479652e+02 
2.277100e-01 6.419522e+02 
2.289900e-01 6.357043e+02 
2.301500e-01 6.301203e+02 
2.313600e-01 6.243729e+02 
2.325600e-01 6.187304e+02 
2.337700e-01 6.131174e+02 
2.350000e-01 6.074887e+02 
2.362000e-01 6.020754e+02 
2.374100e-01 5.966945e+02 
2.386500e-01 5.912540e+02 
2.399100e-01 5.858009e+02 
2.410400e-01 5.810062e+02 
2.422500e-01 5.759407e+02 
2.435000e-01 5.707765e+02 
2.447300e-01 5.657716e+02 
2.458700e-01 5.612291e+02 
2.470600e-01 5.565454e+02 
2.483300e-01 5.516112e+02 
2.495600e-01 5.469175e+02 
2.507600e-01 5.424273e+02 
2.519600e-01 5.379924e+02 
2.532200e-01 5.333944e+02 
2.543700e-01 5.292792e+02 
2.555500e-01 5.251268e+02 
2.568000e-01 5.207818e+02 
2.580100e-01 5.166275e+02 
2.592400e-01 5.124848e+02 
2.604100e-01 5.086036e+02 
2.616100e-01 5.046693e+02 
2.628400e-01 5.006846e+02 
2.640600e-01 4.968044e+02 
2.652200e-01 4.931675e+02 
2.664300e-01 4.894171e+02 
2.676500e-01 4.856798e+02 
2.688400e-01 4.820885e+02 
2.700700e-01 4.784268e+02 
2.712400e-01 4.749832e+02 
2.724800e-01 4.713751e+02 
2.736700e-01 4.679589e+02 
2.748800e-01 4.645315e+02 
2.761000e-01 4.611148e+02 
2.773200e-01 4.577366e+02 
2.785400e-01 4.543982e+02 
2.797000e-01 4.512625e+02 
2.808900e-01 4.480803e+02 
2.821400e-01 4.447746e+02 
2.833900e-01 4.415063e+02 
2.845500e-01 4.385057e+02 
2.857800e-01 4.353581e+02 
2.870300e-01 4.321948e+02 
2.882100e-01 4.292409e+02 
2.893900e-01 4.263187e+02 
2.906300e-01 4.232813e+02 
2.918900e-01 4.202287e+02 
2.930500e-01 4.174482e+02 
2.942500e-01 4.146013e+02 
2.954200e-01 4.118536e+02 
2.966500e-01 4.089950e+02 
2.978900e-01 4.061438e+02 
2.990400e-01 4.035267e+02 
3.002700e-01 4.007570e+02 
3.015100e-01 3.979944e+02 
3.026800e-01 3.954145e+02 
3.038500e-01 3.928601e+02 
3.050300e-01 3.903095e+02 
3.062600e-01 3.876791e+02 
3.075000e-01 3.850548e+02 
3.087000e-01 3.825409e+02 
3.099100e-01 3.800314e+02 
3.111200e-01 3.775488e+02 
3.123100e-01 3.751345e+02 
3.135300e-01 3.726837e+02 
3.147300e-01 3.702970e+02 
3.159900e-01 3.678159e+02 
3.171800e-01 3.655000e+02 
3.183700e-01 3.632090e+02 
3.196300e-01 3.608071e+02 
3.208400e-01 3.585233e+02 
3.220300e-01 3.562987e+02 
3.232000e-01 3.541375e+02 
3.244300e-01 3.518892e+02 
3.256700e-01 3.496446e+02 
3.269200e-01 3.474041e+02 
3.280800e-01 3.453445e+02 
3.292500e-01 3.432934e+02 
3.304800e-01 3.411594e+02 
3.317100e-01 3.390458e+02 
3.328900e-01 3.370369e+02 
3.340700e-01 3.350463e+02 
3.353600e-01 3.328979e+02 
3.365300e-01 3.309703e+02 
3.377100e-01 3.290436e+02 
3.389200e-01 3.270858e+02 
3.401600e-01 3.250980e+02 
3.413700e-01 3.231827e+02 
3.425300e-01 3.213675e+02 
3.437700e-01 3.194444e+02 
3.449800e-01 3.175849e+02 
3.461800e-01 3.157572e+02 
3.473600e-01 3.139787e+02 
3.485800e-01 3.121632e+02 
3.498100e-01 3.103491e+02 
3.510200e-01 3.085805e+02 
3.522000e-01 3.068706e+02 
3.533900e-01 3.051611e+02 
3.546400e-01 3.033906e+02 
3.558400e-01 3.017064e+02 
3.570600e-01 3.000090e+02 
3.582700e-01 2.983401e+02 
3.595000e-01 2.966583e+02 
3.607100e-01 2.950235e+02 
3.618900e-01 2.934468e+02 
3.631200e-01 2.918172e+02 
3.643200e-01 2.902409e+02 
3.655500e-01 2.886390e+02 
3.667300e-01 2.871150e+02 
3.679500e-01 2.855617e+02 
3.691900e-01 2.839965e+02 
3.703600e-01 2.825318e+02 
3.715700e-01 2.810294e+02 
3.727700e-01 2.795518e+02 
3.739900e-01 2.780646e+02 
3.752000e-01 2.766067e+02 
3.763900e-01 2.751845e+02 
3.775800e-01 2.737738e+02 
3.788200e-01 2.723158e+02 
3.800300e-01 2.709048e+02 
3.812100e-01 2.695441e+02 
3.824200e-01 2.681629e+02 
3.836100e-01 2.668153e+02 
3.848600e-01 2.654112e+02 
3.860400e-01 2.640964e+02 
3.872400e-01 2.627697e+02 
3.884600e-01 2.614369e+02 
3.896500e-01 2.601490e+02 
3.908700e-01 2.588389e+02 
3.920600e-01 2.575711e+02 
3.933100e-01 2.562499e+02 
3.945300e-01 2.549706e+02 
3.957200e-01 2.537377e+02 
3.969300e-01 2.524953e+02 
3.981700e-01 2.512321e+02 
3.993500e-01 2.500392e+02 
4.094840e-01 2.401814e+02 
4.272360e-01 2.244829e+02 
4.454600e-01 2.101429e+02 
4.630560e-01 1.977591e+02 
4.804610e-01 1.867312e+02 
4.980690e-01 1.766506e+02 
5.159230e-01 1.673862e+02 
5.317440e-01 1.598852e+02 
5.489640e-01 1.523904e+02 
5.671990e-01 1.451329e+02 
5.838690e-01 1.390321e+02 
6.018840e-01 1.329572e+02 
6.202330e-01 1.272662e+02 
6.379250e-01 1.221895e+02 
6.545410e-01 1.177682e+02 
6.714560e-01 1.135673e+02 
6.892080e-01 1.094566e+02 
7.066010e-01 1.057035e+02 
7.240540e-01 1.021751e+02 
7.420450e-01 9.877657e+01 
7.593780e-01 9.570663e+01 
7.764720e-01 9.285630e+01 
7.942840e-01 9.005949e+01 
8.116170e-01 8.749621e+01 
8.288310e-01 8.509100e+01 
8.462240e-01 8.279150e+01 
8.631980e-01 8.066380e+01 
8.810700e-01 7.853811e+01 
8.989410e-01 7.652087e+01 
9.166330e-01 7.462293e+01 
9.345640e-01 7.279518e+01 
9.515980e-01 7.113877e+01 
9.688720e-01 6.953260e+01 
9.865640e-01 6.796207e+01 
1.031870e+00 6.423613e+01 
1.063490e+00 6.186385e+01 
1.097920e+00 5.946873e+01 
1.134370e+00 5.711649e+01 
1.167730e+00 5.511427e+01 
1.203830e+00 5.308930e+01 
1.240470e+00 5.117061e+01 
1.275790e+00 4.943803e+01 
1.309140e+00 4.789869e+01 
1.342970e+00 4.641845e+01 
1.378420e+00 4.495453e+01 
1.413200e+00 4.359550e+01 
1.448110e+00 4.230141e+01 
1.484090e+00 4.103501e+01 
1.518820e+00 3.987332e+01 
1.552880e+00 3.878686e+01 
1.588630e+00 3.769882e+01 
1.623230e+00 3.669350e+01 
1.657720e+00 3.573507e+01 
1.692450e+00 3.481142e+01 
1.726400e+00 3.394551e+01 
1.762200e+00 3.306867e+01 
1.797880e+00 3.223081e+01 
1.833270e+00 3.143354e+01 
1.869070e+00 3.065843e+01 
1.903200e+00 2.994697e+01 
1.937740e+00 2.925372e+01 
1.973190e+00 2.856817e+01 
2.007440e+00 2.792973e+01 
2.042160e+00 2.730433e+01 
2.077900e+00 2.668284e+01 
2.112390e+00 2.610459e+01 
2.146220e+00 2.555480e+01 
2.181600e+00 2.499904e+01 
2.216930e+00 2.446171e+01 
2.250760e+00 2.396375e+01 
2.286500e+00 2.345457e+01 
2.321770e+00 2.296795e+01 
2.355950e+00 2.251057e+01 
2.391280e+00 2.205120e+01 
2.426240e+00 2.161019e+01 
2.460670e+00 2.118898e+01 
2.495640e+00 2.077419e+01 
2.531080e+00 2.036509e+01 
2.566220e+00 1.997059e+01 
2.600830e+00 1.959311e+01 
2.635080e+00 1.923019e+01 
2.670340e+00 1.886622e+01 
2.705970e+00 1.850846e+01 
2.740040e+00 1.817565e+01 
2.774520e+00 1.784729e+01 
2.809730e+00 1.752033e+01 
2.844390e+00 1.720715e+01 
2.879960e+00 1.689418e+01 
2.914860e+00 1.659450e+01 
2.949410e+00 1.630548e+01 
2.984440e+00 1.601924e+01 
3.019760e+00 1.573776e+01 
3.054730e+00 1.546629e+01 
3.089030e+00 1.520567e+01 
3.124060e+00 1.494625e+01 
3.159560e+00 1.468975e+01 
3.194710e+00 1.444147e+01 
3.229010e+00 1.420520e+01 
3.263320e+00 1.397327e+01 
3.297930e+00 1.374502e+01 
3.332830e+00 1.351997e+01 
3.368040e+00 1.329807e+01 
3.403300e+00 1.308109e+01 
3.438450e+00 1.286926e+01 
3.473060e+00 1.266571e+01 
3.508440e+00 1.246136e+01 
3.543110e+00 1.226597e+01 
3.577470e+00 1.207622e+01 
3.613040e+00 1.188423e+01 
3.648120e+00 1.169849e+01 
3.682910e+00 1.151843e+01 
3.718050e+00 1.134035e+01 
3.753320e+00 1.116538e+01 
3.787980e+00 1.099675e+01 
3.822290e+00 1.083333e+01 
3.857020e+00 1.067120e+01 
3.891920e+00 1.051166e+01 
3.926650e+00 1.035589e+01 
3.961970e+00 1.020083e+01 
3.997360e+00 1.004843e+01 
4.031670e+00 9.903829e+00 
4.066330e+00 9.760315e+00 
4.101420e+00 9.618177e+00 
4.136200e+00 9.479560e+00 
4.170810e+00 9.344588e+00 
4.206250e+00 9.208849e+00 
4.241580e+00 9.076363e+00 
4.276300e+00 8.948532e+00 
4.310970e+00 8.823330e+00 
4.346120e+00 8.698821e+00 
4.380600e+00 8.578837e+00 
4.414730e+00 8.462462e+00 
4.450350e+00 8.342969e+00 
4.485320e+00 8.228067e+00 
4.519810e+00 8.116731e+00 
4.555430e+00 8.003934e+00 
4.590870e+00 7.893809e+00 
4.625480e+00 7.788043e+00 
4.659910e+00 7.684873e+00 
4.695230e+00 7.580847e+00 
4.729960e+00 7.480511e+00 
4.764450e+00 7.382659e+00 
4.799530e+00 7.284842e+00 
4.834910e+00 7.188084e+00 
4.869700e+00 7.094428e+00 
4.904370e+00 7.002789e+00 
4.939450e+00 6.911739e+00 
4.973940e+00 6.823726e+00 
5.008430e+00 6.737320e+00 
5.043810e+00 6.650137e+00 
5.078840e+00 6.565304e+00 
5.113500e+00 6.482888e+00 
5.148890e+00 6.400084e+00 
5.184210e+00 6.318938e+00 
5.219060e+00 6.240266e+00 
5.253660e+00 6.163426e+00 
5.288570e+00 6.087258e+00 
5.323420e+00 6.012456e+00 
5.358440e+00 5.938492e+00 
5.393590e+00 5.865546e+00 
5.428310e+00 5.794708e+00 
5.462800e+00 5.725519e+00 
5.497640e+00 5.656810e+00 
5.532670e+00 5.588831e+00 
5.567280e+00 5.522774e+00 
5.602000e+00 5.457610e+00 
5.637270e+00 5.392449e+00 
5.672410e+00 5.328597e+00 
5.707020e+00 5.266744e+00 
5.742040e+00 5.205179e+00 
5.777430e+00 5.143985e+00 
5.812210e+00 5.084826e+00 
5.846820e+00 5.026853e+00 
5.881610e+00 4.969496e+00 
5.916510e+00 4.912874e+00 
5.951600e+00 4.856851e+00 
5.986560e+00 4.801920e+00 
6.021830e+00 4.747378e+00 
6.056490e+00 4.694633e+00 
6.091160e+00 4.642698e+00 
6.125830e+00 4.591562e+00 
6.161090e+00 4.540357e+00 
6.195760e+00 4.490784e+00 
6.230420e+00 4.441974e+00 
6.265690e+00 4.393063e+00 
6.300950e+00 4.344979e+00 
6.335620e+00 4.298410e+00 
6.370880e+00 4.251757e+00 
6.405550e+00 4.206583e+00 
6.440220e+00 4.162079e+00 
6.475480e+00 4.117485e+00 
6.510150e+00 4.074301e+00 
6.544810e+00 4.031804e+00 
6.580080e+00 3.989187e+00 
6.614750e+00 3.947900e+00 
6.649410e+00 3.907252e+00 
6.684080e+00 3.867177e+00 
6.719340e+00 3.827001e+00 
6.754010e+00 3.788086e+00 
6.788680e+00 3.749788e+00 
6.823940e+00 3.711384e+00 
6.859800e+00 3.672880e+00 
6.894470e+00 3.636241e+00 
6.929140e+00 3.600128e+00 
6.963800e+00 3.564517e+00 
6.999070e+00 3.528781e+00 
7.033730e+00 3.494215e+00 
7.068400e+00 3.460104e+00 
7.103660e+00 3.425881e+00 
7.138330e+00 3.392708e+00 
7.173600e+00 3.359462e+00 
7.208260e+00 3.327227e+00 
7.243530e+00 3.294859e+00 
7.277600e+00 3.264053e+00 
7.312860e+00 3.232634e+00 
7.348120e+00 3.201630e+00 
7.382790e+00 3.171540e+00 
7.417460e+00 3.141910e+00 
7.452720e+00 3.112201e+00 
7.487390e+00 3.083364e+00 
7.522650e+00 3.054411e+00 
7.557320e+00 3.026370e+00 
7.591990e+00 2.998706e+00 
7.627250e+00 2.970926e+00 
7.662510e+00 2.943498e+00 
7.697180e+00 2.916948e+00 
7.731850e+00 2.890758e+00 
7.766510e+00 2.864896e+00 
7.801180e+00 2.839343e+00 
7.836440e+00 2.813731e+00 
7.871110e+00 2.788889e+00 
7.906380e+00 2.763925e+00 
7.941040e+00 2.739690e+00 
7.976310e+00 2.715371e+00 
8.011570e+00 2.691406e+00 
8.046240e+00 2.668124e+00 
8.080900e+00 2.645124e+00 
8.115570e+00 2.622409e+00 
8.150830e+00 2.599664e+00 
8.185500e+00 2.577563e+00 
8.220770e+00 2.555343e+00 
8.255430e+00 2.533762e+00 
8.290100e+00 2.512522e+00 
8.324770e+00 2.491537e+00 
8.359430e+00 2.470798e+00 
8.394700e+00 2.449935e+00 
8.429960e+00 2.429366e+00 
8.464630e+00 2.409419e+00 
8.499890e+00 2.389363e+00 
8.534560e+00 2.369864e+00 
8.569200e+00 2.350599e+00 
