# Parameters:
# omega_b = 0.022067, omega_m = 0.124961, n_s = 0.854724, h = 77.677165, w = -1.000000, sigma_8 = 0.859055
# z = 1.700000
#
# k[1/Mpc] # P(k):
8.694000e-04 9.233102e+03 
2.077466e-03 1.761522e+04 
3.285532e-03 2.337955e+04 
4.493598e-03 2.731410e+04 
5.701664e-03 2.985778e+04 
6.909730e-03 3.133868e+04 
8.117797e-03 3.205200e+04 
9.325863e-03 3.214850e+04 
1.053393e-02 3.176349e+04 
1.174199e-02 3.101193e+04 
1.295006e-02 2.996698e+04 
1.415813e-02 2.871957e+04 
1.536619e-02 2.734320e+04 
1.657426e-02 2.588645e+04 
1.778233e-02 2.439212e+04 
1.899039e-02 2.292066e+04 
2.019846e-02 2.150200e+04 
2.140652e-02 2.015948e+04 
2.261459e-02 1.890487e+04 
2.382266e-02 1.775080e+04 
2.503072e-02 1.670349e+04 
2.623879e-02 1.576130e+04 
2.744685e-02 1.492210e+04 
2.865492e-02 1.417962e+04 
2.986299e-02 1.352490e+04 
3.100100e-02 1.298411e+04 
3.220400e-02 1.248243e+04 
3.288100e-02 1.223027e+04 
3.424300e-02 1.177630e+04 
3.555100e-02 1.139597e+04 
3.686000e-02 1.105988e+04 
3.795000e-02 1.080567e+04 
3.929100e-02 1.051697e+04 
4.039800e-02 1.029026e+04 
4.164000e-02 1.004332e+04 
4.294400e-02 9.780744e+03 
4.415000e-02 9.536623e+03 
4.542900e-02 9.264717e+03 
4.660900e-02 9.008317e+03 
4.782300e-02 8.726653e+03 
4.892900e-02 8.464155e+03 
5.031200e-02 8.125301e+03 
5.155900e-02 7.811114e+03 
5.238100e-02 7.602200e+03 
5.378200e-02 7.246159e+03 
5.513400e-02 6.905081e+03 
5.627600e-02 6.622341e+03 
5.735300e-02 6.362769e+03 
5.870100e-02 6.049854e+03 
5.988700e-02 5.788136e+03 
6.113500e-02 5.527963e+03 
6.225900e-02 5.309308e+03 
6.340100e-02 5.103894e+03 
6.480200e-02 4.874522e+03 
6.601100e-02 4.699683e+03 
6.725500e-02 4.540712e+03 
6.829100e-02 4.425295e+03 
6.958600e-02 4.297315e+03 
7.071100e-02 4.201338e+03 
7.192300e-02 4.110677e+03 
7.307400e-02 4.035031e+03 
7.412300e-02 3.973403e+03 
7.550400e-02 3.901520e+03 
7.663100e-02 3.847940e+03 
7.791200e-02 3.791524e+03 
7.912700e-02 3.739718e+03 
8.027600e-02 3.690851e+03 
8.138400e-02 3.643065e+03 
8.272200e-02 3.583229e+03 
8.406100e-02 3.520061e+03 
8.534100e-02 3.454450e+03 
8.653800e-02 3.388365e+03 
8.759800e-02 3.327247e+03 
8.900300e-02 3.242030e+03 
9.009000e-02 3.172663e+03 
9.113300e-02 3.103341e+03 
9.239600e-02 3.018304e+03 
9.358000e-02 2.937074e+03 
9.496100e-02 2.841082e+03 
9.608400e-02 2.763998e+03 
9.727500e-02 2.683747e+03 
9.852600e-02 2.601166e+03 
9.973800e-02 2.524489e+03 
1.009000e-01 2.453905e+03 
1.020900e-01 2.386634e+03 
1.034000e-01 2.317080e+03 
1.046000e-01 2.257605e+03 
1.057200e-01 2.208165e+03 
1.069100e-01 2.158898e+03 
1.082500e-01 2.110255e+03 
1.093900e-01 2.073442e+03 
1.105400e-01 2.039223e+03 
1.116900e-01 2.010245e+03 
1.129600e-01 1.980475e+03 
1.142000e-01 1.955490e+03 
1.153300e-01 1.934175e+03 
1.166400e-01 1.911465e+03 
1.177800e-01 1.892529e+03 
1.190000e-01 1.872914e+03 
1.201200e-01 1.854216e+03 
1.213400e-01 1.834131e+03 
1.227100e-01 1.808991e+03 
1.238900e-01 1.787041e+03 
1.250700e-01 1.762812e+03 
1.263200e-01 1.736567e+03 
1.275500e-01 1.708732e+03 
1.287500e-01 1.680936e+03 
1.299900e-01 1.650875e+03 
1.311300e-01 1.622953e+03 
1.323500e-01 1.592367e+03 
1.335900e-01 1.561511e+03 
1.347100e-01 1.533585e+03 
1.359800e-01 1.502575e+03 
1.372100e-01 1.473049e+03 
1.384300e-01 1.444634e+03 
1.395700e-01 1.419024e+03 
1.407700e-01 1.392799e+03 
1.420300e-01 1.366897e+03 
1.432800e-01 1.341832e+03 
1.444500e-01 1.320214e+03 
1.456300e-01 1.298894e+03 
1.468900e-01 1.277736e+03 
1.480500e-01 1.259008e+03 
1.491700e-01 1.241836e+03 
1.503800e-01 1.224353e+03 
1.516400e-01 1.206735e+03 
1.528200e-01 1.191457e+03 
1.540200e-01 1.176226e+03 
1.551900e-01 1.162258e+03 
1.564300e-01 1.147886e+03 
1.576600e-01 1.134092e+03 
1.588700e-01 1.121001e+03 
1.600900e-01 1.108053e+03 
1.612700e-01 1.095789e+03 
1.625400e-01 1.082839e+03 
1.637600e-01 1.070451e+03 
1.649500e-01 1.058483e+03 
1.662200e-01 1.045866e+03 
1.674000e-01 1.033905e+03 
1.685000e-01 1.022947e+03 
1.697500e-01 1.010388e+03 
1.710300e-01 9.974472e+02 
1.722200e-01 9.856391e+02 
1.734400e-01 9.731414e+02 
1.746400e-01 9.610475e+02 
1.758700e-01 9.487272e+02 
1.770900e-01 9.364267e+02 
1.782700e-01 9.247438e+02 
1.794600e-01 9.130204e+02 
1.807000e-01 9.009250e+02 
1.819100e-01 8.893373e+02 
1.830100e-01 8.789818e+02 
1.842200e-01 8.677841e+02 
1.855000e-01 8.561625e+02 
1.867000e-01 8.456555e+02 
1.879200e-01 8.351587e+02 
1.890900e-01 8.253134e+02 
1.902800e-01 8.157261e+02 
1.915200e-01 8.059046e+02 
1.926900e-01 7.968767e+02 
1.939000e-01 7.879676e+02 
1.951700e-01 7.787727e+02 
1.963100e-01 7.707365e+02 
1.975100e-01 7.626339e+02 
1.987800e-01 7.541968e+02 
2.000100e-01 7.462261e+02 
2.012500e-01 7.384760e+02 
2.023400e-01 7.317643e+02 
2.036100e-01 7.240833e+02 
2.048900e-01 7.165522e+02 
2.060400e-01 7.098883e+02 
2.072200e-01 7.031495e+02 
2.084200e-01 6.964015e+02 
2.096900e-01 6.893677e+02 
2.109200e-01 6.826589e+02 
2.121100e-01 6.761936e+02 
2.132700e-01 6.699771e+02 
2.145200e-01 6.633752e+02 
2.157200e-01 6.570579e+02 
2.168800e-01 6.510039e+02 
2.180700e-01 6.448801e+02 
2.193400e-01 6.384002e+02 
2.206000e-01 6.319942e+02 
2.217500e-01 6.262303e+02 
2.229500e-01 6.202985e+02 
2.241400e-01 6.144118e+02 
2.253500e-01 6.085076e+02 
2.264900e-01 6.030207e+02 
2.277100e-01 5.972057e+02 
2.289900e-01 5.911669e+02 
2.301500e-01 5.857707e+02 
2.313600e-01 5.802179e+02 
2.325600e-01 5.747755e+02 
2.337700e-01 5.693625e+02 
2.350000e-01 5.639354e+02 
2.362000e-01 5.587215e+02 
2.374100e-01 5.535449e+02 
2.386500e-01 5.483119e+02 
2.399100e-01 5.430677e+02 
2.410400e-01 5.384667e+02 
2.422500e-01 5.336078e+02 
2.435000e-01 5.286550e+02 
2.447300e-01 5.238575e+02 
2.458700e-01 5.195111e+02 
2.470600e-01 5.150303e+02 
2.483300e-01 5.103105e+02 
2.495600e-01 5.058249e+02 
2.507600e-01 5.015390e+02 
2.519600e-01 4.973065e+02 
2.532200e-01 4.929188e+02 
2.543700e-01 4.889962e+02 
2.555500e-01 4.850411e+02 
2.568000e-01 4.809030e+02 
2.580100e-01 4.769472e+02 
2.592400e-01 4.730058e+02 
2.604100e-01 4.693149e+02 
2.616100e-01 4.655740e+02 
2.628400e-01 4.617856e+02 
2.640600e-01 4.580985e+02 
2.652200e-01 4.546436e+02 
2.664300e-01 4.510813e+02 
2.676500e-01 4.475318e+02 
2.688400e-01 4.441216e+02 
2.700700e-01 4.406451e+02 
2.712400e-01 4.373760e+02 
2.724800e-01 4.339511e+02 
2.736700e-01 4.307083e+02 
2.748800e-01 4.274547e+02 
2.761000e-01 4.242116e+02 
2.773200e-01 4.210054e+02 
2.785400e-01 4.178371e+02 
2.797000e-01 4.148607e+02 
2.808900e-01 4.118404e+02 
2.821400e-01 4.087033e+02 
2.833900e-01 4.056020e+02 
2.845500e-01 4.027531e+02 
2.857800e-01 3.997651e+02 
2.870300e-01 3.967625e+02 
2.882100e-01 3.939590e+02 
2.893900e-01 3.911851e+02 
2.906300e-01 3.883015e+02 
2.918900e-01 3.854040e+02 
2.930500e-01 3.827651e+02 
2.942500e-01 3.800633e+02 
2.954200e-01 3.774555e+02 
2.966500e-01 3.747429e+02 
2.978900e-01 3.720377e+02 
2.990400e-01 3.695548e+02 
3.002700e-01 3.669275e+02 
3.015100e-01 3.643076e+02 
3.026800e-01 3.618611e+02 
3.038500e-01 3.594391e+02 
3.050300e-01 3.570209e+02 
3.062600e-01 3.545280e+02 
3.075000e-01 3.520411e+02 
3.087000e-01 3.496591e+02 
3.099100e-01 3.472816e+02 
3.111200e-01 3.449302e+02 
3.123100e-01 3.426445e+02 
3.135300e-01 3.403245e+02 
3.147300e-01 3.380654e+02 
3.159900e-01 3.357174e+02 
3.171800e-01 3.335268e+02 
3.183700e-01 3.313606e+02 
3.196300e-01 3.290897e+02 
3.208400e-01 3.269308e+02 
3.220300e-01 3.248282e+02 
3.232000e-01 3.227865e+02 
3.244300e-01 3.206631e+02 
3.256700e-01 3.185435e+02 
3.269200e-01 3.164279e+02 
3.280800e-01 3.144834e+02 
3.292500e-01 3.125481e+02 
3.304800e-01 3.105352e+02 
3.317100e-01 3.085416e+02 
3.328900e-01 3.066471e+02 
3.340700e-01 3.047700e+02 
3.353600e-01 3.027452e+02 
3.365300e-01 3.009291e+02 
3.377100e-01 2.991140e+02 
3.389200e-01 2.972698e+02 
3.401600e-01 2.953975e+02 
3.413700e-01 2.935944e+02 
3.425300e-01 2.918859e+02 
3.437700e-01 2.900761e+02 
3.449800e-01 2.883263e+02 
3.461800e-01 2.866067e+02 
3.473600e-01 2.849336e+02 
3.485800e-01 2.832264e+02 
3.498100e-01 2.815208e+02 
3.510200e-01 2.798579e+02 
3.522000e-01 2.782506e+02 
3.533900e-01 2.766437e+02 
3.546400e-01 2.749801e+02 
3.558400e-01 2.733978e+02 
3.570600e-01 2.718032e+02 
3.582700e-01 2.702355e+02 
3.595000e-01 2.686560e+02 
3.607100e-01 2.671207e+02 
3.618900e-01 2.656402e+02 
3.631200e-01 2.641102e+02 
3.643200e-01 2.626303e+02 
3.655500e-01 2.611265e+02 
3.667300e-01 2.596960e+02 
3.679500e-01 2.582385e+02 
3.691900e-01 2.567697e+02 
3.703600e-01 2.553955e+02 
3.715700e-01 2.539861e+02 
3.727700e-01 2.525999e+02 
3.739900e-01 2.512049e+02 
3.752000e-01 2.498373e+02 
3.763900e-01 2.485033e+02 
3.775800e-01 2.471802e+02 
3.788200e-01 2.458129e+02 
3.800300e-01 2.444897e+02 
3.812100e-01 2.432138e+02 
3.824200e-01 2.419189e+02 
3.836100e-01 2.406555e+02 
3.848600e-01 2.393393e+02 
3.860400e-01 2.381069e+02 
3.872400e-01 2.368635e+02 
3.884600e-01 2.356142e+02 
3.896500e-01 2.344072e+02 
3.908700e-01 2.331795e+02 
3.920600e-01 2.319915e+02 
3.933100e-01 2.307535e+02 
3.945300e-01 2.295550e+02 
3.957200e-01 2.283999e+02 
3.969300e-01 2.272358e+02 
3.981700e-01 2.260523e+02 
3.993500e-01 2.249349e+02 
4.094840e-01 2.157049e+02 
4.272360e-01 2.010193e+02 
4.454600e-01 1.876288e+02 
4.630560e-01 1.760896e+02 
4.804610e-01 1.658400e+02 
4.980690e-01 1.564963e+02 
5.159230e-01 1.479343e+02 
5.317440e-01 1.410204e+02 
5.489640e-01 1.341316e+02 
5.671990e-01 1.274791e+02 
5.838690e-01 1.219000e+02 
6.018840e-01 1.163563e+02 
6.202330e-01 1.111740e+02 
6.379250e-01 1.065586e+02 
6.545410e-01 1.025455e+02 
6.714560e-01 9.873657e+01 
6.892080e-01 9.501387e+01 
7.066010e-01 9.161805e+01 
7.240540e-01 8.842886e+01 
7.420450e-01 8.535892e+01 
7.593780e-01 8.258774e+01 
7.764720e-01 8.001659e+01 
7.942840e-01 7.749522e+01 
8.116170e-01 7.518560e+01 
8.288310e-01 7.301985e+01 
8.462240e-01 7.095028e+01 
8.631980e-01 6.903671e+01 
8.810700e-01 6.712619e+01 
8.989410e-01 6.531447e+01 
9.166330e-01 6.361113e+01 
9.345640e-01 6.197192e+01 
9.515980e-01 6.048757e+01 
9.688720e-01 5.904962e+01 
9.865640e-01 5.764470e+01 
1.031870e+00 5.431777e+01 
1.063490e+00 5.220456e+01 
1.097920e+00 5.007492e+01 
1.134370e+00 4.798868e+01 
1.167730e+00 4.621685e+01 
1.203830e+00 4.442995e+01 
1.240470e+00 4.274089e+01 
1.275790e+00 4.121992e+01 
1.309140e+00 3.987151e+01 
1.342970e+00 3.857910e+01 
1.378420e+00 3.730355e+01 
1.413200e+00 3.612261e+01 
1.448110e+00 3.500096e+01 
1.484090e+00 3.390587e+01 
1.518820e+00 3.290390e+01 
1.552880e+00 3.196922e+01 
1.588630e+00 3.103529e+01 
1.623230e+00 3.017431e+01 
1.657720e+00 2.935519e+01 
1.692450e+00 2.856751e+01 
1.726400e+00 2.783075e+01 
1.762200e+00 2.708627e+01 
1.797880e+00 2.637632e+01 
1.833270e+00 2.570201e+01 
1.869070e+00 2.504777e+01 
1.903200e+00 2.444840e+01 
1.937740e+00 2.386531e+01 
1.973190e+00 2.328967e+01 
2.007440e+00 2.275448e+01 
2.042160e+00 2.223113e+01 
2.077900e+00 2.171188e+01 
2.112390e+00 2.122940e+01 
2.146220e+00 2.077147e+01 
2.181600e+00 2.030919e+01 
2.216930e+00 1.986292e+01 
2.250760e+00 1.944984e+01 
2.286500e+00 1.902798e+01 
2.321770e+00 1.862530e+01 
2.355950e+00 1.824729e+01 
2.391280e+00 1.786823e+01 
2.426240e+00 1.750471e+01 
2.460670e+00 1.715782e+01 
2.495640e+00 1.681651e+01 
2.531080e+00 1.648039e+01 
2.566220e+00 1.615658e+01 
2.600830e+00 1.584702e+01 
2.635080e+00 1.554965e+01 
2.670340e+00 1.525174e+01 
2.705970e+00 1.495916e+01 
2.740040e+00 1.468718e+01 
2.774520e+00 1.441910e+01 
2.809730e+00 1.415240e+01 
2.844390e+00 1.389710e+01 
2.879960e+00 1.364214e+01 
2.914860e+00 1.339823e+01 
2.949410e+00 1.316312e+01 
2.984440e+00 1.293047e+01 
3.019760e+00 1.270185e+01 
3.054730e+00 1.248144e+01 
3.089030e+00 1.227003e+01 
3.124060e+00 1.205966e+01 
3.159560e+00 1.185176e+01 
3.194710e+00 1.165067e+01 
3.229010e+00 1.145936e+01 
3.263320e+00 1.127172e+01 
3.297930e+00 1.108709e+01 
3.332830e+00 1.090516e+01 
3.368040e+00 1.072584e+01 
3.403300e+00 1.055054e+01 
3.438450e+00 1.037951e+01 
3.473060e+00 1.021519e+01 
3.508440e+00 1.005032e+01 
3.543110e+00 9.892696e+00 
3.577470e+00 9.739683e+00 
3.613040e+00 9.584898e+00 
3.648120e+00 9.435222e+00 
3.682910e+00 9.290141e+00 
3.718050e+00 9.146681e+00 
3.753320e+00 9.005763e+00 
3.787980e+00 8.870001e+00 
3.822290e+00 8.738456e+00 
3.857020e+00 8.607962e+00 
3.891920e+00 8.479576e+00 
3.926650e+00 8.354253e+00 
3.961970e+00 8.229515e+00 
3.997360e+00 8.106935e+00 
4.031670e+00 7.990631e+00 
4.066330e+00 7.875239e+00 
4.101420e+00 7.760951e+00 
4.136200e+00 7.649509e+00 
4.170810e+00 7.540995e+00 
4.206250e+00 7.431885e+00 
4.241580e+00 7.325391e+00 
4.276300e+00 7.222645e+00 
4.310970e+00 7.122016e+00 
4.346120e+00 7.021949e+00 
4.380600e+00 6.925531e+00 
4.414730e+00 6.832010e+00 
4.450350e+00 6.735983e+00 
4.485320e+00 6.643644e+00 
4.519810e+00 6.554167e+00 
4.555430e+00 6.463512e+00 
4.590870e+00 6.375009e+00 
4.625480e+00 6.290021e+00 
4.659910e+00 6.207116e+00 
4.695230e+00 6.123507e+00 
4.729960e+00 6.042860e+00 
4.764450e+00 5.964208e+00 
4.799530e+00 5.885581e+00 
4.834910e+00 5.807803e+00 
4.869700e+00 5.732513e+00 
4.904370e+00 5.658842e+00 
4.939450e+00 5.585641e+00 
4.973940e+00 5.514876e+00 
5.008430e+00 5.445399e+00 
5.043810e+00 5.375294e+00 
5.078840e+00 5.307076e+00 
5.113500e+00 5.240798e+00 
5.148890e+00 5.174196e+00 
5.184210e+00 5.108923e+00 
5.219060e+00 5.045638e+00 
5.253660e+00 4.983819e+00 
5.288570e+00 4.922539e+00 
5.323420e+00 4.862354e+00 
5.358440e+00 4.802841e+00 
5.393590e+00 4.744145e+00 
5.428310e+00 4.687131e+00 
5.462800e+00 4.631438e+00 
5.497640e+00 4.576129e+00 
5.532670e+00 4.521399e+00 
5.567280e+00 4.468213e+00 
5.602000e+00 4.415745e+00 
5.637270e+00 4.363273e+00 
5.672410e+00 4.311853e+00 
5.707020e+00 4.262040e+00 
5.742040e+00 4.212449e+00 
5.777430e+00 4.163154e+00 
5.812210e+00 4.115496e+00 
5.846820e+00 4.068788e+00 
5.881610e+00 4.022573e+00 
5.916510e+00 3.976949e+00 
5.951600e+00 3.931800e+00 
5.986560e+00 3.887527e+00 
6.021830e+00 3.843566e+00 
6.056490e+00 3.801049e+00 
6.091160e+00 3.759182e+00 
6.125830e+00 3.717956e+00 
6.161090e+00 3.676673e+00 
6.195760e+00 3.636700e+00 
6.230420e+00 3.597341e+00 
6.265690e+00 3.557898e+00 
6.300950e+00 3.519118e+00 
6.335620e+00 3.481559e+00 
6.370880e+00 3.443930e+00 
6.405550e+00 3.407491e+00 
6.440220e+00 3.371591e+00 
6.475480e+00 3.335617e+00 
6.510150e+00 3.300778e+00 
6.544810e+00 3.266489e+00 
6.580080e+00 3.232103e+00 
6.614750e+00 3.198788e+00 
6.649410e+00 3.165988e+00 
6.684080e+00 3.133650e+00 
6.719340e+00 3.101228e+00 
6.754010e+00 3.069823e+00 
6.788680e+00 3.038910e+00 
6.823940e+00 3.007911e+00 
6.859800e+00 2.976831e+00 
6.894470e+00 2.947256e+00 
6.929140e+00 2.918106e+00 
6.963800e+00 2.889360e+00 
6.999070e+00 2.860513e+00 
7.033730e+00 2.832610e+00 
7.068400e+00 2.805073e+00 
7.103660e+00 2.777445e+00 
7.138330e+00 2.750664e+00 
7.173600e+00 2.723823e+00 
7.208260e+00 2.697797e+00 
7.243530e+00 2.671664e+00 
7.277600e+00 2.646793e+00 
7.312860e+00 2.621428e+00 
7.348120e+00 2.596396e+00 
7.382790e+00 2.572103e+00 
7.417460e+00 2.548180e+00 
7.452720e+00 2.524194e+00 
7.487390e+00 2.500910e+00 
7.522650e+00 2.477533e+00 
7.557320e+00 2.454895e+00 
7.591990e+00 2.432561e+00 
7.627250e+00 2.410134e+00 
7.662510e+00 2.387990e+00 
7.697180e+00 2.366555e+00 
7.731850e+00 2.345411e+00 
7.766510e+00 2.324532e+00 
7.801180e+00 2.303901e+00 
7.836440e+00 2.283225e+00 
7.871110e+00 2.263173e+00 
7.906380e+00 2.243021e+00 
7.941040e+00 2.223458e+00 
7.976310e+00 2.203827e+00 
8.011570e+00 2.184484e+00 
8.046240e+00 2.165691e+00 
8.080900e+00 2.147125e+00 
8.115570e+00 2.128791e+00 
8.150830e+00 2.110436e+00 
8.185500e+00 2.092600e+00 
8.220770e+00 2.074667e+00 
8.255430e+00 2.057249e+00 
8.290100e+00 2.040110e+00 
8.324770e+00 2.023177e+00 
8.359430e+00 2.006442e+00 
8.394700e+00 1.989606e+00 
8.429960e+00 1.973010e+00 
8.464630e+00 1.956918e+00 
8.499890e+00 1.940738e+00 
8.534560e+00 1.925006e+00 
8.569200e+00 1.909463e+00 
