# Parameters:
# omega_b = 0.023091, omega_m = 0.139291, n_s = 0.909843, h = 63.267717, w = -1.000000, sigma_8 = 0.739370
# z = 1.700000
#
# k[1/Mpc] # P(k):
8.694000e-04 4.030973e+03 
2.077466e-03 8.213590e+03 
3.285532e-03 1.132848e+04 
4.493598e-03 1.364356e+04 
5.701664e-03 1.530098e+04 
6.909730e-03 1.642513e+04 
8.117797e-03 1.714304e+04 
9.325863e-03 1.751992e+04 
1.053393e-02 1.761790e+04 
1.174199e-02 1.749237e+04 
1.295006e-02 1.717868e+04 
1.415813e-02 1.672294e+04 
1.536619e-02 1.616471e+04 
1.657426e-02 1.553076e+04 
1.778233e-02 1.484470e+04 
1.899039e-02 1.414124e+04 
2.019846e-02 1.343869e+04 
2.140652e-02 1.275302e+04 
2.261459e-02 1.209274e+04 
2.382266e-02 1.146834e+04 
2.503072e-02 1.088694e+04 
2.623879e-02 1.035087e+04 
2.744685e-02 9.860670e+03 
2.865492e-02 9.417142e+03 
2.986299e-02 9.017834e+03 
3.100100e-02 8.681086e+03 
3.220400e-02 8.363248e+03 
3.288100e-02 8.201242e+03 
3.424300e-02 7.906947e+03 
3.555100e-02 7.658691e+03 
3.686000e-02 7.439338e+03 
3.795000e-02 7.274522e+03 
3.929100e-02 7.090546e+03 
4.039800e-02 6.949342e+03 
4.164000e-02 6.798868e+03 
4.294400e-02 6.644179e+03 
4.415000e-02 6.503081e+03 
4.542900e-02 6.349134e+03 
4.660900e-02 6.205128e+03 
4.782300e-02 6.047515e+03 
4.892900e-02 5.900113e+03 
5.031200e-02 5.708189e+03 
5.155900e-02 5.527587e+03 
5.238100e-02 5.405941e+03 
5.378200e-02 5.195854e+03 
5.513400e-02 4.991117e+03 
5.627600e-02 4.819233e+03 
5.735300e-02 4.660487e+03 
5.870100e-02 4.468885e+03 
5.988700e-02 4.309103e+03 
6.113500e-02 4.150669e+03 
6.225900e-02 4.017050e+03 
6.340100e-02 3.889944e+03 
6.480200e-02 3.744720e+03 
6.601100e-02 3.628970e+03 
6.725500e-02 3.518299e+03 
6.829100e-02 3.433057e+03 
6.958600e-02 3.333999e+03 
7.071100e-02 3.255387e+03 
7.192300e-02 3.177793e+03 
7.307400e-02 3.110566e+03 
7.412300e-02 3.054348e+03 
7.550400e-02 2.987483e+03 
7.663100e-02 2.937473e+03 
7.791200e-02 2.885736e+03 
7.912700e-02 2.840217e+03 
8.027600e-02 2.799308e+03 
8.138400e-02 2.761223e+03 
8.272200e-02 2.716299e+03 
8.406100e-02 2.671660e+03 
8.534100e-02 2.628069e+03 
8.653800e-02 2.585889e+03 
8.759800e-02 2.547641e+03 
8.900300e-02 2.495169e+03 
9.009000e-02 2.452819e+03 
9.113300e-02 2.410428e+03 
9.239600e-02 2.358155e+03 
9.358000e-02 2.307707e+03 
9.496100e-02 2.246940e+03 
9.608400e-02 2.197273e+03 
9.727500e-02 2.144810e+03 
9.852600e-02 2.088903e+03 
9.973800e-02 2.035924e+03 
1.009000e-01 1.986265e+03 
1.020900e-01 1.936731e+03 
1.034000e-01 1.884358e+03 
1.046000e-01 1.838365e+03 
1.057200e-01 1.798084e+03 
1.069100e-01 1.757170e+03 
1.082500e-01 1.714524e+03 
1.093900e-01 1.680874e+03 
1.105400e-01 1.648743e+03 
1.116900e-01 1.619764e+03 
1.129600e-01 1.589451e+03 
1.142000e-01 1.562786e+03 
1.153300e-01 1.539914e+03 
1.166400e-01 1.515328e+03 
1.177800e-01 1.495440e+03 
1.190000e-01 1.475122e+03 
1.201200e-01 1.457515e+03 
1.213400e-01 1.438897e+03 
1.227100e-01 1.418647e+03 
1.238900e-01 1.401544e+03 
1.250700e-01 1.384458e+03 
1.263200e-01 1.366492e+03 
1.275500e-01 1.348587e+03 
1.287500e-01 1.331051e+03 
1.299900e-01 1.312603e+03 
1.311300e-01 1.295484e+03 
1.323500e-01 1.276760e+03 
1.335900e-01 1.257602e+03 
1.347100e-01 1.239934e+03 
1.359800e-01 1.219924e+03 
1.372100e-01 1.200146e+03 
1.384300e-01 1.180706e+03 
1.395700e-01 1.162282e+03 
1.407700e-01 1.143263e+03 
1.420300e-01 1.123157e+03 
1.432800e-01 1.103688e+03 
1.444500e-01 1.085664e+03 
1.456300e-01 1.067890e+03 
1.468900e-01 1.049527e+03 
1.480500e-01 1.033054e+03 
1.491700e-01 1.017714e+03 
1.503800e-01 1.001785e+03 
1.516400e-01 9.857148e+02 
1.528200e-01 9.716443e+02 
1.540200e-01 9.576290e+02 
1.551900e-01 9.449175e+02 
1.564300e-01 9.318799e+02 
1.576600e-01 9.195570e+02 
1.588700e-01 9.080903e+02 
1.600900e-01 8.967811e+02 
1.612700e-01 8.865762e+02 
1.625400e-01 8.758012e+02 
1.637600e-01 8.658071e+02 
1.649500e-01 8.563300e+02 
1.662200e-01 8.463978e+02 
1.674000e-01 8.373093e+02 
1.685000e-01 8.289804e+02 
1.697500e-01 8.195423e+02 
1.710300e-01 8.099203e+02 
1.722200e-01 8.011365e+02 
1.734400e-01 7.918947e+02 
1.746400e-01 7.829487e+02 
1.758700e-01 7.738039e+02 
1.770900e-01 7.646161e+02 
1.782700e-01 7.558845e+02 
1.794600e-01 7.470236e+02 
1.807000e-01 7.378144e+02 
1.819100e-01 7.289870e+02 
1.830100e-01 7.209307e+02 
1.842200e-01 7.121879e+02 
1.855000e-01 7.031017e+02 
1.867000e-01 6.946783e+02 
1.879200e-01 6.862616e+02 
1.890900e-01 6.783358e+02 
1.902800e-01 6.704591e+02 
1.915200e-01 6.623902e+02 
1.926900e-01 6.549398e+02 
1.939000e-01 6.474784e+02 
1.951700e-01 6.397787e+02 
1.963100e-01 6.330292e+02 
1.975100e-01 6.261684e+02 
1.987800e-01 6.190257e+02 
2.000100e-01 6.122753e+02 
2.012500e-01 6.057045e+02 
2.023400e-01 6.000151e+02 
2.036100e-01 5.935149e+02 
2.048900e-01 5.871812e+02 
2.060400e-01 5.815775e+02 
2.072200e-01 5.759174e+02 
2.084200e-01 5.703238e+02 
2.096900e-01 5.644936e+02 
2.109200e-01 5.589332e+02 
2.121100e-01 5.536577e+02 
2.132700e-01 5.485894e+02 
2.145200e-01 5.432067e+02 
2.157200e-01 5.381043e+02 
2.168800e-01 5.332363e+02 
2.180700e-01 5.283117e+02 
2.193400e-01 5.231169e+02 
2.206000e-01 5.180114e+02 
2.217500e-01 5.134171e+02 
2.229500e-01 5.086884e+02 
2.241400e-01 5.040090e+02 
2.253500e-01 4.993152e+02 
2.264900e-01 4.949526e+02 
2.277100e-01 4.903224e+02 
2.289900e-01 4.855066e+02 
2.301500e-01 4.812026e+02 
2.313600e-01 4.767727e+02 
2.325600e-01 4.723988e+02 
2.337700e-01 4.680480e+02 
2.350000e-01 4.636855e+02 
2.362000e-01 4.594759e+02 
2.374100e-01 4.552752e+02 
2.386500e-01 4.510283e+02 
2.399100e-01 4.467721e+02 
2.410400e-01 4.430038e+02 
2.422500e-01 4.390198e+02 
2.435000e-01 4.349589e+02 
2.447300e-01 4.310186e+02 
2.458700e-01 4.274225e+02 
2.470600e-01 4.237152e+02 
2.483300e-01 4.198103e+02 
2.495600e-01 4.160888e+02 
2.507600e-01 4.125188e+02 
2.519600e-01 4.089935e+02 
2.532200e-01 4.053391e+02 
2.543700e-01 4.020641e+02 
2.555500e-01 3.987567e+02 
2.568000e-01 3.952965e+02 
2.580100e-01 3.919889e+02 
2.592400e-01 3.886902e+02 
2.604100e-01 3.855999e+02 
2.616100e-01 3.824679e+02 
2.628400e-01 3.792965e+02 
2.640600e-01 3.762121e+02 
2.652200e-01 3.733230e+02 
2.664300e-01 3.703442e+02 
2.676500e-01 3.673765e+02 
2.688400e-01 3.645296e+02 
2.700700e-01 3.616303e+02 
2.712400e-01 3.589041e+02 
2.724800e-01 3.560482e+02 
2.736700e-01 3.533485e+02 
2.748800e-01 3.506444e+02 
2.761000e-01 3.479491e+02 
2.773200e-01 3.452846e+02 
2.785400e-01 3.426540e+02 
2.797000e-01 3.401876e+02 
2.808900e-01 3.376850e+02 
2.821400e-01 3.350857e+02 
2.833900e-01 3.325164e+02 
2.845500e-01 3.301616e+02 
2.857800e-01 3.276918e+02 
2.870300e-01 3.252100e+02 
2.882100e-01 3.228929e+02 
2.893900e-01 3.206019e+02 
2.906300e-01 3.182212e+02 
2.918900e-01 3.158291e+02 
2.930500e-01 3.136504e+02 
2.942500e-01 3.114198e+02 
2.954200e-01 3.092664e+02 
2.966500e-01 3.070265e+02 
2.978900e-01 3.047927e+02 
2.990400e-01 3.027426e+02 
3.002700e-01 3.005713e+02 
3.015100e-01 2.984052e+02 
3.026800e-01 2.963825e+02 
3.038500e-01 2.943801e+02 
3.050300e-01 2.923809e+02 
3.062600e-01 2.903152e+02 
3.075000e-01 2.882547e+02 
3.087000e-01 2.862811e+02 
3.099100e-01 2.843114e+02 
3.111200e-01 2.823616e+02 
3.123100e-01 2.804632e+02 
3.135300e-01 2.785365e+02 
3.147300e-01 2.766604e+02 
3.159900e-01 2.747106e+02 
3.171800e-01 2.728885e+02 
3.183700e-01 2.710848e+02 
3.196300e-01 2.691941e+02 
3.208400e-01 2.673968e+02 
3.220300e-01 2.656464e+02 
3.232000e-01 2.639441e+02 
3.244300e-01 2.621727e+02 
3.256700e-01 2.604046e+02 
3.269200e-01 2.586400e+02 
3.280800e-01 2.570182e+02 
3.292500e-01 2.554020e+02 
3.304800e-01 2.537203e+02 
3.317100e-01 2.520549e+02 
3.328900e-01 2.504724e+02 
3.340700e-01 2.489045e+02 
3.353600e-01 2.472125e+02 
3.365300e-01 2.456946e+02 
3.377100e-01 2.441776e+02 
3.389200e-01 2.426364e+02 
3.401600e-01 2.410719e+02 
3.413700e-01 2.395655e+02 
3.425300e-01 2.381385e+02 
3.437700e-01 2.366270e+02 
3.449800e-01 2.351657e+02 
3.461800e-01 2.337297e+02 
3.473600e-01 2.323332e+02 
3.485800e-01 2.309094e+02 
3.498100e-01 2.294870e+02 
3.510200e-01 2.281004e+02 
3.522000e-01 2.267601e+02 
3.533900e-01 2.254204e+02 
3.546400e-01 2.240365e+02 
3.558400e-01 2.227205e+02 
3.570600e-01 2.213944e+02 
3.582700e-01 2.200908e+02 
3.595000e-01 2.187773e+02 
3.607100e-01 2.175028e+02 
3.618900e-01 2.162755e+02 
3.631200e-01 2.150072e+02 
3.643200e-01 2.137805e+02 
3.655500e-01 2.125340e+02 
3.667300e-01 2.113484e+02 
3.679500e-01 2.101449e+02 
3.691900e-01 2.089322e+02 
3.703600e-01 2.077976e+02 
3.715700e-01 2.066340e+02 
3.727700e-01 2.054896e+02 
3.739900e-01 2.043397e+02 
3.752000e-01 2.032156e+02 
3.763900e-01 2.021191e+02 
3.775800e-01 2.010316e+02 
3.788200e-01 1.999078e+02 
3.800300e-01 1.988203e+02 
3.812100e-01 1.977745e+02 
3.824200e-01 1.967147e+02 
3.836100e-01 1.956809e+02 
3.848600e-01 1.946038e+02 
3.860400e-01 1.935953e+02 
3.872400e-01 1.925778e+02 
3.884600e-01 1.915589e+02 
3.896500e-01 1.905756e+02 
3.908700e-01 1.895755e+02 
3.920600e-01 1.886078e+02 
3.933100e-01 1.875993e+02 
3.945300e-01 1.866230e+02 
3.957200e-01 1.856855e+02 
3.969300e-01 1.847418e+02 
3.981700e-01 1.837822e+02 
3.993500e-01 1.828763e+02 
4.094840e-01 1.754068e+02 
4.272360e-01 1.635963e+02 
4.454600e-01 1.528588e+02 
4.630560e-01 1.436045e+02 
4.804610e-01 1.353620e+02 
4.980690e-01 1.278127e+02 
5.159230e-01 1.208585e+02 
5.317440e-01 1.152139e+02 
5.489640e-01 1.095614e+02 
5.671990e-01 1.040737e+02 
5.838690e-01 9.945439e+01 
6.018840e-01 9.484719e+01 
6.202330e-01 9.052705e+01 
6.379250e-01 8.667428e+01 
6.545410e-01 8.331780e+01 
6.714560e-01 8.012986e+01 
6.892080e-01 7.701339e+01 
7.066010e-01 7.416949e+01 
7.240540e-01 7.150050e+01 
7.420450e-01 6.893197e+01 
7.593780e-01 6.661582e+01 
7.764720e-01 6.446822e+01 
7.942840e-01 6.236476e+01 
8.116170e-01 6.044004e+01 
8.288310e-01 5.863801e+01 
8.462240e-01 5.691797e+01 
8.631980e-01 5.532988e+01 
8.810700e-01 5.374684e+01 
8.989410e-01 5.224811e+01 
9.166330e-01 5.084153e+01 
9.345640e-01 4.948900e+01 
9.515980e-01 4.826642e+01 
9.688720e-01 4.708457e+01 
9.865640e-01 4.593140e+01 
1.031870e+00 4.320859e+01 
1.063490e+00 4.148466e+01 
1.097920e+00 3.975223e+01 
1.134370e+00 3.806037e+01 
1.167730e+00 3.662731e+01 
1.203830e+00 3.518664e+01 
1.240470e+00 3.382843e+01 
1.275790e+00 3.260820e+01 
1.309140e+00 3.152872e+01 
1.342970e+00 3.049774e+01 
1.378420e+00 2.948171e+01 
1.413200e+00 2.854304e+01 
1.448110e+00 2.765300e+01 
1.484090e+00 2.678621e+01 
1.518820e+00 2.599432e+01 
1.552880e+00 2.525684e+01 
1.588630e+00 2.452103e+01 
1.623230e+00 2.384393e+01 
1.657720e+00 2.320071e+01 
1.692450e+00 2.258288e+01 
1.726400e+00 2.200546e+01 
1.762200e+00 2.142285e+01 
1.797880e+00 2.086812e+01 
1.833270e+00 2.034161e+01 
1.869070e+00 1.983117e+01 
1.903200e+00 1.936433e+01 
1.937740e+00 1.891031e+01 
1.973190e+00 1.846225e+01 
2.007440e+00 1.804590e+01 
2.042160e+00 1.763934e+01 
2.077900e+00 1.723620e+01 
2.112390e+00 1.686144e+01 
2.146220e+00 1.650621e+01 
2.181600e+00 1.614768e+01 
2.216930e+00 1.580186e+01 
2.250760e+00 1.548177e+01 
2.286500e+00 1.515486e+01 
2.321770e+00 1.484295e+01 
2.355950e+00 1.455024e+01 
2.391280e+00 1.425686e+01 
2.426240e+00 1.397559e+01 
2.460670e+00 1.370715e+01 
2.495640e+00 1.344294e+01 
2.531080e+00 1.318276e+01 
2.566220e+00 1.293234e+01 
2.600830e+00 1.269293e+01 
2.635080e+00 1.246286e+01 
2.670340e+00 1.223219e+01 
2.705970e+00 1.200576e+01 
2.740040e+00 1.179531e+01 
2.774520e+00 1.158779e+01 
2.809730e+00 1.138137e+01 
2.844390e+00 1.118371e+01 
2.879960e+00 1.098616e+01 
2.914860e+00 1.079716e+01 
2.949410e+00 1.061498e+01 
2.984440e+00 1.043470e+01 
3.019760e+00 1.025751e+01 
3.054730e+00 1.008663e+01 
3.089030e+00 9.922601e+00 
3.124060e+00 9.759298e+00 
3.159560e+00 9.597812e+00 
3.194710e+00 9.441607e+00 
3.229010e+00 9.292970e+00 
3.263320e+00 9.147106e+00 
3.297930e+00 9.003541e+00 
3.332830e+00 8.862007e+00 
3.368040e+00 8.722405e+00 
3.403300e+00 8.585842e+00 
3.438450e+00 8.452538e+00 
3.473060e+00 8.324429e+00 
3.508440e+00 8.195841e+00 
3.543110e+00 8.072835e+00 
3.577470e+00 7.953237e+00 
3.613040e+00 7.832239e+00 
3.648120e+00 7.715251e+00 
3.682910e+00 7.601751e+00 
3.718050e+00 7.489351e+00 
3.753320e+00 7.378924e+00 
3.787980e+00 7.272528e+00 
3.822290e+00 7.169364e+00 
3.857020e+00 7.066927e+00 
3.891920e+00 6.966091e+00 
3.926650e+00 6.867585e+00 
3.961970e+00 6.769475e+00 
3.997360e+00 6.672948e+00 
4.031670e+00 6.581328e+00 
4.066330e+00 6.490369e+00 
4.101420e+00 6.400251e+00 
4.136200e+00 6.312261e+00 
4.170810e+00 6.226557e+00 
4.206250e+00 6.140287e+00 
4.241580e+00 6.056046e+00 
4.276300e+00 5.974693e+00 
4.310970e+00 5.894964e+00 
4.346120e+00 5.815630e+00 
4.380600e+00 5.739121e+00 
4.414730e+00 5.664887e+00 
4.450350e+00 5.588584e+00 
4.485320e+00 5.515188e+00 
4.519810e+00 5.443959e+00 
4.555430e+00 5.371731e+00 
4.590870e+00 5.301191e+00 
4.625480e+00 5.233418e+00 
4.659910e+00 5.167287e+00 
4.695230e+00 5.100479e+00 
4.729960e+00 5.036005e+00 
4.764450e+00 4.973067e+00 
4.799530e+00 4.910068e+00 
4.834910e+00 4.847731e+00 
4.869700e+00 4.787342e+00 
4.904370e+00 4.728230e+00 
4.939450e+00 4.669457e+00 
4.973940e+00 4.612563e+00 
5.008430e+00 4.556692e+00 
5.043810e+00 4.500263e+00 
5.078840e+00 4.445316e+00 
5.113500e+00 4.391918e+00 
5.148890e+00 4.338146e+00 
5.184210e+00 4.285430e+00 
5.219060e+00 4.234295e+00 
5.253660e+00 4.184301e+00 
5.288570e+00 4.134731e+00 
5.323420e+00 4.086014e+00 
5.358440e+00 4.037806e+00 
5.393590e+00 3.990248e+00 
5.428310e+00 3.943979e+00 
5.462800e+00 3.898738e+00 
5.497640e+00 3.853799e+00 
5.532670e+00 3.809273e+00 
5.567280e+00 3.765979e+00 
5.602000e+00 3.723258e+00 
5.637270e+00 3.680489e+00 
5.672410e+00 3.638559e+00 
5.707020e+00 3.597931e+00 
5.742040e+00 3.557422e+00 
5.777430e+00 3.517135e+00 
5.812210e+00 3.478177e+00 
5.846820e+00 3.439955e+00 
5.881610e+00 3.402119e+00 
5.916510e+00 3.364760e+00 
5.951600e+00 3.327745e+00 
5.986560e+00 3.291425e+00 
6.021830e+00 3.255354e+00 
6.056490e+00 3.220428e+00 
6.091160e+00 3.186003e+00 
6.125830e+00 3.152099e+00 
6.161090e+00 3.118134e+00 
6.195760e+00 3.085225e+00 
6.230420e+00 3.052816e+00 
6.265690e+00 3.020328e+00 
6.300950e+00 2.988315e+00 
6.335620e+00 2.957304e+00 
6.370880e+00 2.926230e+00 
6.405550e+00 2.896117e+00 
6.440220e+00 2.866436e+00 
6.475480e+00 2.836689e+00 
6.510150e+00 2.807864e+00 
6.544810e+00 2.779463e+00 
6.580080e+00 2.750976e+00 
6.614750e+00 2.723372e+00 
6.649410e+00 2.696169e+00 
6.684080e+00 2.669340e+00 
6.719340e+00 2.642438e+00 
6.754010e+00 2.616362e+00 
6.788680e+00 2.590660e+00 
6.823940e+00 2.564883e+00 
6.859800e+00 2.539035e+00 
6.894470e+00 2.514409e+00 
6.929140e+00 2.490122e+00 
6.963800e+00 2.466170e+00 
6.999070e+00 2.442129e+00 
7.033730e+00 2.418854e+00 
7.068400e+00 2.395882e+00 
7.103660e+00 2.372831e+00 
7.138330e+00 2.350477e+00 
7.173600e+00 2.328058e+00 
7.208260e+00 2.306316e+00 
7.243530e+00 2.284482e+00 
7.277600e+00 2.263684e+00 
7.312860e+00 2.242457e+00 
7.348120e+00 2.221505e+00 
7.382790e+00 2.201170e+00 
7.417460e+00 2.181123e+00 
7.452720e+00 2.161011e+00 
7.487390e+00 2.141486e+00 
7.522650e+00 2.121880e+00 
7.557320e+00 2.102887e+00 
7.591990e+00 2.084145e+00 
7.627250e+00 2.065322e+00 
7.662510e+00 2.046734e+00 
7.697180e+00 2.028724e+00 
7.731850e+00 2.010949e+00 
7.766510e+00 1.993395e+00 
7.801180e+00 1.976048e+00 
7.836440e+00 1.958653e+00 
7.871110e+00 1.941775e+00 
7.906380e+00 1.924811e+00 
7.941040e+00 1.908341e+00 
7.976310e+00 1.891806e+00 
8.011570e+00 1.875502e+00 
8.046240e+00 1.859661e+00 
8.080900e+00 1.844009e+00 
8.115570e+00 1.828549e+00 
8.150830e+00 1.813066e+00 
8.185500e+00 1.798018e+00 
8.220770e+00 1.782887e+00 
8.255430e+00 1.768190e+00 
8.290100e+00 1.753707e+00 
8.324770e+00 1.739394e+00 
8.359430e+00 1.725247e+00 
8.394700e+00 1.711015e+00 
8.429960e+00 1.696980e+00 
8.464630e+00 1.683367e+00 
8.499890e+00 1.669678e+00 
8.534560e+00 1.656367e+00 
8.569200e+00 1.643215e+00 
