# Parameters:
# omega_b = 0.022949, omega_m = 0.139016, n_s = 0.862598, h = 60.196850, w = -1.000000, sigma_8 = 0.731496
# z = 1.700000
#
# k[1/Mpc] # P(k):
8.694000e-04 5.058653e+03 
2.077466e-03 9.885120e+03 
3.285532e-03 1.334424e+04 
4.493598e-03 1.583005e+04 
5.701664e-03 1.755225e+04 
6.909730e-03 1.866943e+04 
8.117797e-03 1.933334e+04 
9.325863e-03 1.962256e+04 
1.053393e-02 1.961112e+04 
1.174199e-02 1.936425e+04 
1.295006e-02 1.892235e+04 
1.415813e-02 1.833656e+04 
1.536619e-02 1.765083e+04 
1.657426e-02 1.689412e+04 
1.778233e-02 1.609114e+04 
1.899039e-02 1.527857e+04 
2.019846e-02 1.447546e+04 
2.140652e-02 1.369815e+04 
2.261459e-02 1.295499e+04 
2.382266e-02 1.225642e+04 
2.503072e-02 1.160935e+04 
2.623879e-02 1.101557e+04 
2.744685e-02 1.047516e+04 
2.865492e-02 9.988010e+03 
2.986299e-02 9.550809e+03 
3.100100e-02 9.183098e+03 
3.220400e-02 8.836629e+03 
3.288100e-02 8.660136e+03 
3.424300e-02 8.339365e+03 
3.555100e-02 8.068241e+03 
3.686000e-02 7.827794e+03 
3.795000e-02 7.646313e+03 
3.929100e-02 7.442377e+03 
4.039800e-02 7.284904e+03 
4.164000e-02 7.116377e+03 
4.294400e-02 6.942393e+03 
4.415000e-02 6.783631e+03 
4.542900e-02 6.610830e+03 
4.660900e-02 6.449762e+03 
4.782300e-02 6.274706e+03 
4.892900e-02 6.111957e+03 
5.031200e-02 5.901659e+03 
5.155900e-02 5.705420e+03 
5.238100e-02 5.574072e+03 
5.378200e-02 5.348750e+03 
5.513400e-02 5.131348e+03 
5.627600e-02 4.950728e+03 
5.735300e-02 4.785687e+03 
5.870100e-02 4.589175e+03 
5.988700e-02 4.427668e+03 
6.113500e-02 4.269525e+03 
6.225900e-02 4.137313e+03 
6.340100e-02 4.011784e+03 
6.480200e-02 3.867664e+03 
6.601100e-02 3.751308e+03 
6.725500e-02 3.638291e+03 
6.829100e-02 3.549733e+03 
6.958600e-02 3.445491e+03 
7.071100e-02 3.361596e+03 
7.192300e-02 3.277929e+03 
7.307400e-02 3.204803e+03 
7.412300e-02 3.143244e+03 
7.550400e-02 3.069540e+03 
7.663100e-02 3.014197e+03 
7.791200e-02 2.956763e+03 
7.912700e-02 2.906262e+03 
8.027600e-02 2.861008e+03 
8.138400e-02 2.819064e+03 
8.272200e-02 2.769934e+03 
8.406100e-02 2.721569e+03 
8.534100e-02 2.674917e+03 
8.653800e-02 2.630276e+03 
8.759800e-02 2.590097e+03 
8.900300e-02 2.535430e+03 
9.009000e-02 2.491659e+03 
9.113300e-02 2.448120e+03 
9.239600e-02 2.394646e+03 
9.358000e-02 2.343268e+03 
9.496100e-02 2.281638e+03 
9.608400e-02 2.231374e+03 
9.727500e-02 2.178354e+03 
9.852600e-02 2.121947e+03 
9.973800e-02 2.068488e+03 
1.009000e-01 2.018372e+03 
1.020900e-01 1.968276e+03 
1.034000e-01 1.915215e+03 
1.046000e-01 1.868515e+03 
1.057200e-01 1.827371e+03 
1.069100e-01 1.785478e+03 
1.082500e-01 1.741483e+03 
1.093900e-01 1.706534e+03 
1.105400e-01 1.673025e+03 
1.116900e-01 1.642455e+03 
1.129600e-01 1.610360e+03 
1.142000e-01 1.581817e+03 
1.153300e-01 1.557239e+03 
1.166400e-01 1.530659e+03 
1.177800e-01 1.509082e+03 
1.190000e-01 1.487004e+03 
1.201200e-01 1.467927e+03 
1.213400e-01 1.447767e+03 
1.227100e-01 1.426089e+03 
1.238900e-01 1.407855e+03 
1.250700e-01 1.389884e+03 
1.263200e-01 1.371097e+03 
1.275500e-01 1.352611e+03 
1.287500e-01 1.334625e+03 
1.299900e-01 1.315884e+03 
1.311300e-01 1.298579e+03 
1.323500e-01 1.279775e+03 
1.335900e-01 1.260582e+03 
1.347100e-01 1.242941e+03 
1.359800e-01 1.222970e+03 
1.372100e-01 1.203244e+03 
1.384300e-01 1.183842e+03 
1.395700e-01 1.165423e+03 
1.407700e-01 1.146400e+03 
1.420300e-01 1.126200e+03 
1.432800e-01 1.106642e+03 
1.444500e-01 1.088415e+03 
1.456300e-01 1.070444e+03 
1.468900e-01 1.051777e+03 
1.480500e-01 1.035006e+03 
1.491700e-01 1.019335e+03 
1.503800e-01 1.002994e+03 
1.516400e-01 9.864895e+02 
1.528200e-01 9.719470e+02 
1.540200e-01 9.574657e+02 
1.551900e-01 9.442586e+02 
1.564300e-01 9.306971e+02 
1.576600e-01 9.178553e+02 
1.588700e-01 9.058749e+02 
1.600900e-01 8.940615e+02 
1.612700e-01 8.833892e+02 
1.625400e-01 8.721233e+02 
1.637600e-01 8.616997e+02 
1.649500e-01 8.518312e+02 
1.662200e-01 8.415021e+02 
1.674000e-01 8.321153e+02 
1.685000e-01 8.235145e+02 
1.697500e-01 8.138205e+02 
1.710300e-01 8.039888e+02 
1.722200e-01 7.950149e+02 
1.734400e-01 7.856689e+02 
1.746400e-01 7.766267e+02 
1.758700e-01 7.674090e+02 
1.770900e-01 7.581976e+02 
1.782700e-01 7.494441e+02 
1.794600e-01 7.405872e+02 
1.807000e-01 7.313993e+02 
1.819100e-01 7.225927e+02 
1.830100e-01 7.145651e+02 
1.842200e-01 7.058553e+02 
1.855000e-01 6.968032e+02 
1.867000e-01 6.883976e+02 
1.879200e-01 6.799991e+02 
1.890900e-01 6.720859e+02 
1.902800e-01 6.641967e+02 
1.915200e-01 6.561155e+02 
1.926900e-01 6.486458e+02 
1.939000e-01 6.411376e+02 
1.951700e-01 6.333903e+02 
1.963100e-01 6.265909e+02 
1.975100e-01 6.196562e+02 
1.987800e-01 6.124375e+02 
2.000100e-01 6.056088e+02 
2.012500e-01 5.989453e+02 
2.023400e-01 5.931764e+02 
2.036100e-01 5.865840e+02 
2.048900e-01 5.801522e+02 
2.060400e-01 5.744625e+02 
2.072200e-01 5.687165e+02 
2.084200e-01 5.630394e+02 
2.096900e-01 5.571231e+02 
2.109200e-01 5.514813e+02 
2.121100e-01 5.461380e+02 
2.132700e-01 5.410056e+02 
2.145200e-01 5.355556e+02 
2.157200e-01 5.303973e+02 
2.168800e-01 5.254798e+02 
2.180700e-01 5.205057e+02 
2.193400e-01 5.152624e+02 
2.206000e-01 5.101156e+02 
2.217500e-01 5.054846e+02 
2.229500e-01 5.007186e+02 
2.241400e-01 4.960047e+02 
2.253500e-01 4.912769e+02 
2.264900e-01 4.868832e+02 
2.277100e-01 4.822178e+02 
2.289900e-01 4.773630e+02 
2.301500e-01 4.730248e+02 
2.313600e-01 4.685601e+02 
2.325600e-01 4.641412e+02 
2.337700e-01 4.597462e+02 
2.350000e-01 4.553400e+02 
2.362000e-01 4.510822e+02 
2.374100e-01 4.468259e+02 
2.386500e-01 4.425237e+02 
2.399100e-01 4.382127e+02 
2.410400e-01 4.343852e+02 
2.422500e-01 4.303378e+02 
2.435000e-01 4.262131e+02 
2.447300e-01 4.222097e+02 
2.458700e-01 4.185491e+02 
2.470600e-01 4.147761e+02 
2.483300e-01 4.108027e+02 
2.495600e-01 4.070151e+02 
2.507600e-01 4.033803e+02 
2.519600e-01 3.997917e+02 
2.532200e-01 3.960726e+02 
2.543700e-01 3.927419e+02 
2.555500e-01 3.893801e+02 
2.568000e-01 3.858636e+02 
2.580100e-01 3.825029e+02 
2.592400e-01 3.791576e+02 
2.604100e-01 3.760267e+02 
2.616100e-01 3.728540e+02 
2.628400e-01 3.696420e+02 
2.640600e-01 3.665267e+02 
2.652200e-01 3.636121e+02 
2.664300e-01 3.606077e+02 
2.676500e-01 3.576148e+02 
2.688400e-01 3.547513e+02 
2.700700e-01 3.518399e+02 
2.712400e-01 3.491028e+02 
2.724800e-01 3.462356e+02 
2.736700e-01 3.435308e+02 
2.748800e-01 3.408271e+02 
2.761000e-01 3.381324e+02 
2.773200e-01 3.354689e+02 
2.785400e-01 3.328421e+02 
2.797000e-01 3.303849e+02 
2.808900e-01 3.278918e+02 
2.821400e-01 3.253027e+02 
2.833900e-01 3.227439e+02 
2.845500e-01 3.204037e+02 
2.857800e-01 3.179494e+02 
2.870300e-01 3.154835e+02 
2.882100e-01 3.131814e+02 
2.893900e-01 3.109073e+02 
2.906300e-01 3.085454e+02 
2.918900e-01 3.061724e+02 
2.930500e-01 3.040114e+02 
2.942500e-01 3.017993e+02 
2.954200e-01 2.996651e+02 
2.966500e-01 2.974453e+02 
2.978900e-01 2.952318e+02 
2.990400e-01 2.932005e+02 
3.002700e-01 2.910495e+02 
3.015100e-01 2.889039e+02 
3.026800e-01 2.869006e+02 
3.038500e-01 2.849176e+02 
3.050300e-01 2.829378e+02 
3.062600e-01 2.808921e+02 
3.075000e-01 2.788516e+02 
3.087000e-01 2.768974e+02 
3.099100e-01 2.749472e+02 
3.111200e-01 2.730166e+02 
3.123100e-01 2.711367e+02 
3.135300e-01 2.692290e+02 
3.147300e-01 2.673716e+02 
3.159900e-01 2.654413e+02 
3.171800e-01 2.636373e+02 
3.183700e-01 2.618515e+02 
3.196300e-01 2.599797e+02 
3.208400e-01 2.582005e+02 
3.220300e-01 2.564679e+02 
3.232000e-01 2.547827e+02 
3.244300e-01 2.530290e+02 
3.256700e-01 2.512788e+02 
3.269200e-01 2.495322e+02 
3.280800e-01 2.479271e+02 
3.292500e-01 2.463273e+02 
3.304800e-01 2.446630e+02 
3.317100e-01 2.430149e+02 
3.328900e-01 2.414489e+02 
3.340700e-01 2.398976e+02 
3.353600e-01 2.382236e+02 
3.365300e-01 2.367220e+02 
3.377100e-01 2.352214e+02 
3.389200e-01 2.336971e+02 
3.401600e-01 2.321498e+02 
3.413700e-01 2.306603e+02 
3.425300e-01 2.292495e+02 
3.437700e-01 2.277553e+02 
3.449800e-01 2.263108e+02 
3.461800e-01 2.248915e+02 
3.473600e-01 2.235114e+02 
3.485800e-01 2.221049e+02 
3.498100e-01 2.207000e+02 
3.510200e-01 2.193305e+02 
3.522000e-01 2.180068e+02 
3.533900e-01 2.166838e+02 
3.546400e-01 2.153181e+02 
3.558400e-01 2.140195e+02 
3.570600e-01 2.127111e+02 
3.582700e-01 2.114249e+02 
3.595000e-01 2.101291e+02 
3.607100e-01 2.088724e+02 
3.618900e-01 2.076626e+02 
3.631200e-01 2.064126e+02 
3.643200e-01 2.052037e+02 
3.655500e-01 2.039753e+02 
3.667300e-01 2.028071e+02 
3.679500e-01 2.016224e+02 
3.691900e-01 2.004288e+02 
3.703600e-01 1.993122e+02 
3.715700e-01 1.981670e+02 
3.727700e-01 1.970409e+02 
3.739900e-01 1.959098e+02 
3.752000e-01 1.948048e+02 
3.763900e-01 1.937271e+02 
3.775800e-01 1.926582e+02 
3.788200e-01 1.915538e+02 
3.800300e-01 1.904851e+02 
3.812100e-01 1.894580e+02 
3.824200e-01 1.884180e+02 
3.836100e-01 1.874034e+02 
3.848600e-01 1.863464e+02 
3.860400e-01 1.853569e+02 
3.872400e-01 1.843585e+02 
3.884600e-01 1.833596e+02 
3.896500e-01 1.823961e+02 
3.908700e-01 1.814161e+02 
3.920600e-01 1.804678e+02 
3.933100e-01 1.794798e+02 
3.945300e-01 1.785233e+02 
3.957200e-01 1.776058e+02 
3.969300e-01 1.766825e+02 
3.981700e-01 1.757439e+02 
3.993500e-01 1.748577e+02 
4.094840e-01 1.675570e+02 
4.272360e-01 1.560454e+02 
4.454600e-01 1.456053e+02 
4.630560e-01 1.366244e+02 
4.804610e-01 1.286361e+02 
4.980690e-01 1.213267e+02 
5.159230e-01 1.145980e+02 
5.317440e-01 1.091396e+02 
5.489640e-01 1.036759e+02 
5.671990e-01 9.837395e+01 
5.838690e-01 9.391337e+01 
6.018840e-01 8.946675e+01 
6.202330e-01 8.529936e+01 
6.379250e-01 8.158503e+01 
6.545410e-01 7.835080e+01 
6.714560e-01 7.528061e+01 
6.892080e-01 7.228088e+01 
7.066010e-01 6.954489e+01 
7.240540e-01 6.697869e+01 
7.420450e-01 6.451016e+01 
7.593780e-01 6.228521e+01 
7.764720e-01 6.022325e+01 
7.942840e-01 5.820451e+01 
8.116170e-01 5.635808e+01 
8.288310e-01 5.463008e+01 
8.462240e-01 5.298132e+01 
8.631980e-01 5.145972e+01 
8.810700e-01 4.994356e+01 
8.989410e-01 4.850874e+01 
9.166330e-01 4.716266e+01 
9.345640e-01 4.586890e+01 
9.515980e-01 4.469990e+01 
9.688720e-01 4.357031e+01 
9.865640e-01 4.246857e+01 
1.031870e+00 3.986945e+01 
1.063490e+00 3.822569e+01 
1.097920e+00 3.657508e+01 
1.134370e+00 3.496504e+01 
1.167730e+00 3.360263e+01 
1.203830e+00 3.223470e+01 
1.240470e+00 3.094651e+01 
1.275790e+00 2.979070e+01 
1.309140e+00 2.876926e+01 
1.342970e+00 2.779514e+01 
1.378420e+00 2.683616e+01 
1.413200e+00 2.595137e+01 
1.448110e+00 2.511352e+01 
1.484090e+00 2.429848e+01 
1.518820e+00 2.355490e+01 
1.552880e+00 2.286334e+01 
1.588630e+00 2.217420e+01 
1.623230e+00 2.154082e+01 
1.657720e+00 2.093980e+01 
1.692450e+00 2.036323e+01 
1.726400e+00 1.982510e+01 
1.762200e+00 1.928280e+01 
1.797880e+00 1.876704e+01 
1.833270e+00 1.827807e+01 
1.869070e+00 1.780463e+01 
1.903200e+00 1.737212e+01 
1.937740e+00 1.695192e+01 
1.973190e+00 1.653771e+01 
2.007440e+00 1.615323e+01 
2.042160e+00 1.577820e+01 
2.077900e+00 1.540673e+01 
2.112390e+00 1.506174e+01 
2.146220e+00 1.473511e+01 
2.181600e+00 1.440576e+01 
2.216930e+00 1.408841e+01 
2.250760e+00 1.379495e+01 
2.286500e+00 1.349550e+01 
2.321770e+00 1.321007e+01 
2.355950e+00 1.294244e+01 
2.391280e+00 1.267451e+01 
2.426240e+00 1.241785e+01 
2.460670e+00 1.217309e+01 
2.495640e+00 1.193236e+01 
2.531080e+00 1.169558e+01 
2.566220e+00 1.146785e+01 
2.600830e+00 1.125031e+01 
2.635080e+00 1.104140e+01 
2.670340e+00 1.083216e+01 
2.705970e+00 1.062691e+01 
2.740040e+00 1.043627e+01 
2.774520e+00 1.024845e+01 
2.809730e+00 1.006177e+01 
2.844390e+00 9.883114e+00 
2.879960e+00 9.704696e+00 
2.914860e+00 9.534153e+00 
2.949410e+00 9.369842e+00 
2.984440e+00 9.207378e+00 
3.019760e+00 9.047794e+00 
3.054730e+00 8.893978e+00 
3.089030e+00 8.746468e+00 
3.124060e+00 8.599676e+00 
3.159560e+00 8.454604e+00 
3.194710e+00 8.314380e+00 
3.229010e+00 8.180998e+00 
3.263320e+00 8.050220e+00 
3.297930e+00 7.921550e+00 
3.332830e+00 7.794783e+00 
3.368040e+00 7.669817e+00 
3.403300e+00 7.547623e+00 
3.438450e+00 7.428434e+00 
3.473060e+00 7.313918e+00 
3.508440e+00 7.199072e+00 
3.543110e+00 7.089234e+00 
3.577470e+00 6.982522e+00 
3.613040e+00 6.874590e+00 
3.648120e+00 6.770298e+00 
3.682910e+00 6.669150e+00 
3.718050e+00 6.569038e+00 
3.753320e+00 6.470720e+00 
3.787980e+00 6.376038e+00 
3.822290e+00 6.284264e+00 
3.857020e+00 6.193181e+00 
3.891920e+00 6.103551e+00 
3.926650e+00 6.016038e+00 
3.961970e+00 5.928899e+00 
3.997360e+00 5.843212e+00 
4.031670e+00 5.761898e+00 
4.066330e+00 5.681218e+00 
4.101420e+00 5.601292e+00 
4.136200e+00 5.523302e+00 
4.170810e+00 5.447344e+00 
4.206250e+00 5.370928e+00 
4.241580e+00 5.296323e+00 
4.276300e+00 5.224306e+00 
4.310970e+00 5.153744e+00 
4.346120e+00 5.083553e+00 
4.380600e+00 5.015890e+00 
4.414730e+00 4.950247e+00 
4.450350e+00 4.882807e+00 
4.485320e+00 4.817941e+00 
4.519810e+00 4.755018e+00 
4.555430e+00 4.691228e+00 
4.590870e+00 4.628942e+00 
4.625480e+00 4.569124e+00 
4.659910e+00 4.510760e+00 
4.695230e+00 4.451822e+00 
4.729960e+00 4.394951e+00 
4.764450e+00 4.339449e+00 
4.799530e+00 4.283914e+00 
4.834910e+00 4.228966e+00 
4.869700e+00 4.175756e+00 
4.904370e+00 4.123677e+00 
4.939450e+00 4.071906e+00 
4.973940e+00 4.021809e+00 
5.008430e+00 3.972615e+00 
5.043810e+00 3.922946e+00 
5.078840e+00 3.874592e+00 
5.113500e+00 3.827604e+00 
5.148890e+00 3.780308e+00 
5.184210e+00 3.733944e+00 
5.219060e+00 3.688977e+00 
5.253660e+00 3.645027e+00 
5.288570e+00 3.601452e+00 
5.323420e+00 3.558638e+00 
5.358440e+00 3.516282e+00 
5.393590e+00 3.474500e+00 
5.428310e+00 3.433862e+00 
5.462800e+00 3.394133e+00 
5.497640e+00 3.354672e+00 
5.532670e+00 3.315584e+00 
5.567280e+00 3.277582e+00 
5.602000e+00 3.240086e+00 
5.637270e+00 3.202562e+00 
5.672410e+00 3.165778e+00 
5.707020e+00 3.130139e+00 
5.742040e+00 3.094615e+00 
5.777430e+00 3.059290e+00 
5.812210e+00 3.025133e+00 
5.846820e+00 2.991628e+00 
5.881610e+00 2.958467e+00 
5.916510e+00 2.925725e+00 
5.951600e+00 2.893295e+00 
5.986560e+00 2.861479e+00 
6.021830e+00 2.829882e+00 
6.056490e+00 2.799295e+00 
6.091160e+00 2.769153e+00 
6.125830e+00 2.739468e+00 
6.161090e+00 2.709734e+00 
6.195760e+00 2.680932e+00 
6.230420e+00 2.652569e+00 
6.265690e+00 2.624139e+00 
6.300950e+00 2.596136e+00 
6.335620e+00 2.569010e+00 
6.370880e+00 2.541831e+00 
6.405550e+00 2.515498e+00 
6.440220e+00 2.489548e+00 
6.475480e+00 2.463540e+00 
6.510150e+00 2.438343e+00 
6.544810e+00 2.413524e+00 
6.580080e+00 2.388630e+00 
6.614750e+00 2.364509e+00 
6.649410e+00 2.340747e+00 
6.684080e+00 2.317314e+00 
6.719340e+00 2.293817e+00 
6.754010e+00 2.271045e+00 
6.788680e+00 2.248607e+00 
6.823940e+00 2.226103e+00 
6.859800e+00 2.203537e+00 
6.894470e+00 2.182047e+00 
6.929140e+00 2.160856e+00 
6.963800e+00 2.139957e+00 
6.999070e+00 2.118982e+00 
7.033730e+00 2.098684e+00 
7.068400e+00 2.078650e+00 
7.103660e+00 2.058548e+00 
7.138330e+00 2.039057e+00 
7.173600e+00 2.019514e+00 
7.208260e+00 2.000562e+00 
7.243530e+00 1.981530e+00 
7.277600e+00 1.963406e+00 
7.312860e+00 1.944914e+00 
7.348120e+00 1.926662e+00 
7.382790e+00 1.908947e+00 
7.417460e+00 1.891489e+00 
7.452720e+00 1.873978e+00 
7.487390e+00 1.856978e+00 
7.522650e+00 1.839907e+00 
7.557320e+00 1.823377e+00 
7.591990e+00 1.807067e+00 
7.627250e+00 1.790687e+00 
7.662510e+00 1.774513e+00 
7.697180e+00 1.758846e+00 
7.731850e+00 1.743386e+00 
7.766510e+00 1.728119e+00 
7.801180e+00 1.713032e+00 
7.836440e+00 1.697908e+00 
7.871110e+00 1.683237e+00 
7.906380e+00 1.668493e+00 
7.941040e+00 1.654177e+00 
7.976310e+00 1.639808e+00 
8.011570e+00 1.625645e+00 
8.046240e+00 1.611883e+00 
8.080900e+00 1.598286e+00 
8.115570e+00 1.584858e+00 
8.150830e+00 1.571414e+00 
8.185500e+00 1.558349e+00 
8.220770e+00 1.545213e+00 
8.255430e+00 1.532452e+00 
8.290100e+00 1.519884e+00 
8.324770e+00 1.507465e+00 
8.359430e+00 1.495190e+00 
8.394700e+00 1.482840e+00 
8.429960e+00 1.470666e+00 
8.464630e+00 1.458861e+00 
8.499890e+00 1.446991e+00 
8.534560e+00 1.435449e+00 
8.569200e+00 1.424044e+00 
