# Parameters:
# omega_b = 0.022130, omega_m = 0.131024, n_s = 1.024803, h = 61.850394, w = -1.000000, sigma_8 = 0.744094
# z = 1.700000
#
# k[1/Mpc] # P(k):
8.694000e-04 2.920797e+03 
2.077466e-03 6.524131e+03 
3.285532e-03 9.417720e+03 
4.493598e-03 1.167635e+04 
5.701664e-03 1.337406e+04 
6.909730e-03 1.459020e+04 
8.117797e-03 1.542256e+04 
9.325863e-03 1.592232e+04 
1.053393e-02 1.614335e+04 
1.174199e-02 1.613717e+04 
1.295006e-02 1.593613e+04 
1.415813e-02 1.558466e+04 
1.536619e-02 1.512234e+04 
1.657426e-02 1.457628e+04 
1.778233e-02 1.397053e+04 
1.899039e-02 1.334034e+04 
2.019846e-02 1.270539e+04 
2.140652e-02 1.208278e+04 
2.261459e-02 1.148213e+04 
2.382266e-02 1.091475e+04 
2.503072e-02 1.038835e+04 
2.623879e-02 9.905722e+03 
2.744685e-02 9.468305e+03 
2.865492e-02 9.076116e+03 
2.986299e-02 8.726627e+03 
3.100100e-02 8.435665e+03 
3.220400e-02 8.164413e+03 
3.288100e-02 8.027764e+03 
3.424300e-02 7.781831e+03 
3.555100e-02 7.576234e+03 
3.686000e-02 7.395435e+03 
3.795000e-02 7.259372e+03 
3.929100e-02 7.105789e+03 
4.039800e-02 6.985618e+03 
4.164000e-02 6.854623e+03 
4.294400e-02 6.714561e+03 
4.415000e-02 6.583304e+03 
4.542900e-02 6.434948e+03 
4.660900e-02 6.293265e+03 
4.782300e-02 6.134419e+03 
4.892900e-02 5.984187e+03 
5.031200e-02 5.786813e+03 
5.155900e-02 5.600127e+03 
5.238100e-02 5.474327e+03 
5.378200e-02 5.257426e+03 
5.513400e-02 5.047477e+03 
5.627600e-02 4.873103e+03 
5.735300e-02 4.714095e+03 
5.870100e-02 4.525519e+03 
5.988700e-02 4.371420e+03 
6.113500e-02 4.221560e+03 
6.225900e-02 4.097374e+03 
6.340100e-02 3.980474e+03 
6.480200e-02 3.847305e+03 
6.601100e-02 3.741004e+03 
6.725500e-02 3.638728e+03 
6.829100e-02 3.559474e+03 
6.958600e-02 3.466899e+03 
7.071100e-02 3.393220e+03 
7.192300e-02 3.320437e+03 
7.307400e-02 3.257407e+03 
7.412300e-02 3.204751e+03 
7.550400e-02 3.142185e+03 
7.663100e-02 3.095365e+03 
7.791200e-02 3.046757e+03 
7.912700e-02 3.003638e+03 
8.027600e-02 2.964504e+03 
8.138400e-02 2.927679e+03 
8.272200e-02 2.883617e+03 
8.406100e-02 2.839120e+03 
8.534100e-02 2.794847e+03 
8.653800e-02 2.751373e+03 
8.759800e-02 2.711600e+03 
8.900300e-02 2.656545e+03 
9.009000e-02 2.611776e+03 
9.113300e-02 2.566763e+03 
9.239600e-02 2.511132e+03 
9.358000e-02 2.457353e+03 
9.496100e-02 2.392601e+03 
9.608400e-02 2.339757e+03 
9.727500e-02 2.284016e+03 
9.852600e-02 2.224961e+03 
9.973800e-02 2.169201e+03 
1.009000e-01 2.117098e+03 
1.020900e-01 2.065657e+03 
1.034000e-01 2.011533e+03 
1.046000e-01 1.964284e+03 
1.057200e-01 1.923431e+03 
1.069100e-01 1.882112e+03 
1.082500e-01 1.839613e+03 
1.093900e-01 1.806407e+03 
1.105400e-01 1.774890e+03 
1.116900e-01 1.746871e+03 
1.129600e-01 1.717666e+03 
1.142000e-01 1.692222e+03 
1.153300e-01 1.670405e+03 
1.166400e-01 1.646974e+03 
1.177800e-01 1.627865e+03 
1.190000e-01 1.608267e+03 
1.201200e-01 1.590854e+03 
1.213400e-01 1.572361e+03 
1.227100e-01 1.551446e+03 
1.238900e-01 1.533609e+03 
1.250700e-01 1.515236e+03 
1.263200e-01 1.495735e+03 
1.275500e-01 1.475900e+03 
1.287500e-01 1.456350e+03 
1.299900e-01 1.435591e+03 
1.311300e-01 1.416324e+03 
1.323500e-01 1.395246e+03 
1.335900e-01 1.373786e+03 
1.347100e-01 1.354131e+03 
1.359800e-01 1.332020e+03 
1.372100e-01 1.310452e+03 
1.384300e-01 1.289394e+03 
1.395700e-01 1.269765e+03 
1.407700e-01 1.249543e+03 
1.420300e-01 1.228610e+03 
1.432800e-01 1.208331e+03 
1.444500e-01 1.189930e+03 
1.456300e-01 1.171772e+03 
1.468900e-01 1.153184e+03 
1.480500e-01 1.136553e+03 
1.491700e-01 1.121098e+03 
1.503800e-01 1.105097e+03 
1.516400e-01 1.088935e+03 
1.528200e-01 1.074749e+03 
1.540200e-01 1.060610e+03 
1.551900e-01 1.047673e+03 
1.564300e-01 1.034371e+03 
1.576600e-01 1.021704e+03 
1.588700e-01 1.009806e+03 
1.600900e-01 9.980557e+02 
1.612700e-01 9.872427e+02 
1.625400e-01 9.758234e+02 
1.637600e-01 9.651103e+02 
1.649500e-01 9.548793e+02 
1.662200e-01 9.441359e+02 
1.674000e-01 9.341937e+02 
1.685000e-01 9.250819e+02 
1.697500e-01 9.147265e+02 
1.710300e-01 9.041397e+02 
1.722200e-01 8.944747e+02 
1.734400e-01 8.843164e+02 
1.746400e-01 8.744830e+02 
1.758700e-01 8.644493e+02 
1.770900e-01 8.544056e+02 
1.782700e-01 8.448593e+02 
1.794600e-01 8.352186e+02 
1.807000e-01 8.252286e+02 
1.819100e-01 8.156510e+02 
1.830100e-01 8.069748e+02 
1.842200e-01 7.975682e+02 
1.855000e-01 7.877927e+02 
1.867000e-01 7.788010e+02 
1.879200e-01 7.698134e+02 
1.890900e-01 7.613568e+02 
1.902800e-01 7.529982e+02 
1.915200e-01 7.444326e+02 
1.926900e-01 7.365295e+02 
1.939000e-01 7.286405e+02 
1.951700e-01 7.204964e+02 
1.963100e-01 7.133589e+02 
1.975100e-01 7.061120e+02 
1.987800e-01 6.985647e+02 
2.000100e-01 6.914282e+02 
2.012500e-01 6.844761e+02 
2.023400e-01 6.784546e+02 
2.036100e-01 6.715681e+02 
2.048900e-01 6.648369e+02 
2.060400e-01 6.588798e+02 
2.072200e-01 6.528587e+02 
2.084200e-01 6.468757e+02 
2.096900e-01 6.406380e+02 
2.109200e-01 6.346874e+02 
2.121100e-01 6.290019e+02 
2.132700e-01 6.235365e+02 
2.145200e-01 6.177309e+02 
2.157200e-01 6.121992e+02 
2.168800e-01 6.069081e+02 
2.180700e-01 6.015544e+02 
2.193400e-01 5.958912e+02 
2.206000e-01 5.902968e+02 
2.217500e-01 5.852617e+02 
2.229500e-01 5.800784e+02 
2.241400e-01 5.749123e+02 
2.253500e-01 5.697287e+02 
2.264900e-01 5.649101e+02 
2.277100e-01 5.597782e+02 
2.289900e-01 5.544209e+02 
2.301500e-01 5.496324e+02 
2.313600e-01 5.447031e+02 
2.325600e-01 5.398044e+02 
2.337700e-01 5.349312e+02 
2.350000e-01 5.300444e+02 
2.362000e-01 5.253167e+02 
2.374100e-01 5.205844e+02 
2.386500e-01 5.157999e+02 
2.399100e-01 5.110045e+02 
2.410400e-01 5.067425e+02 
2.422500e-01 5.022345e+02 
2.435000e-01 4.976390e+02 
2.447300e-01 4.931782e+02 
2.458700e-01 4.890999e+02 
2.470600e-01 4.848954e+02 
2.483300e-01 4.804665e+02 
2.495600e-01 4.762461e+02 
2.507600e-01 4.721979e+02 
2.519600e-01 4.682003e+02 
2.532200e-01 4.640561e+02 
2.543700e-01 4.603480e+02 
2.555500e-01 4.566071e+02 
2.568000e-01 4.526932e+02 
2.580100e-01 4.489517e+02 
2.592400e-01 4.452318e+02 
2.604100e-01 4.417520e+02 
2.616100e-01 4.382249e+02 
2.628400e-01 4.346532e+02 
2.640600e-01 4.311933e+02 
2.652200e-01 4.279578e+02 
2.664300e-01 4.246216e+02 
2.676500e-01 4.212974e+02 
2.688400e-01 4.181199e+02 
2.700700e-01 4.148906e+02 
2.712400e-01 4.118540e+02 
2.724800e-01 4.086723e+02 
2.736700e-01 4.056722e+02 
2.748800e-01 4.026746e+02 
2.761000e-01 3.996865e+02 
2.773200e-01 3.967321e+02 
2.785400e-01 3.938185e+02 
2.797000e-01 3.910940e+02 
2.808900e-01 3.883290e+02 
2.821400e-01 3.854568e+02 
2.833900e-01 3.826176e+02 
2.845500e-01 3.800228e+02 
2.857800e-01 3.773010e+02 
2.870300e-01 3.745656e+02 
2.882100e-01 3.720112e+02 
2.893900e-01 3.694887e+02 
2.906300e-01 3.668689e+02 
2.918900e-01 3.642361e+02 
2.930500e-01 3.618379e+02 
2.942500e-01 3.593829e+02 
2.954200e-01 3.570149e+02 
2.966500e-01 3.545512e+02 
2.978900e-01 3.520940e+02 
2.990400e-01 3.498384e+02 
3.002700e-01 3.474504e+02 
3.015100e-01 3.450684e+02 
3.026800e-01 3.428437e+02 
3.038500e-01 3.406410e+02 
3.050300e-01 3.384415e+02 
3.062600e-01 3.361701e+02 
3.075000e-01 3.339039e+02 
3.087000e-01 3.317331e+02 
3.099100e-01 3.295660e+02 
3.111200e-01 3.274209e+02 
3.123100e-01 3.253325e+02 
3.135300e-01 3.232126e+02 
3.147300e-01 3.211481e+02 
3.159900e-01 3.190020e+02 
3.171800e-01 3.169964e+02 
3.183700e-01 3.150107e+02 
3.196300e-01 3.129289e+02 
3.208400e-01 3.109496e+02 
3.220300e-01 3.090215e+02 
3.232000e-01 3.071464e+02 
3.244300e-01 3.051949e+02 
3.256700e-01 3.032467e+02 
3.269200e-01 3.013020e+02 
3.280800e-01 2.995144e+02 
3.292500e-01 2.977323e+02 
3.304800e-01 2.958778e+02 
3.317100e-01 2.940409e+02 
3.328900e-01 2.922951e+02 
3.340700e-01 2.905651e+02 
3.353600e-01 2.886972e+02 
3.365300e-01 2.870211e+02 
3.377100e-01 2.853457e+02 
3.389200e-01 2.836432e+02 
3.401600e-01 2.819147e+02 
3.413700e-01 2.802495e+02 
3.425300e-01 2.786713e+02 
3.437700e-01 2.769994e+02 
3.449800e-01 2.753828e+02 
3.461800e-01 2.737939e+02 
3.473600e-01 2.722480e+02 
3.485800e-01 2.706707e+02 
3.498100e-01 2.690947e+02 
3.510200e-01 2.675582e+02 
3.522000e-01 2.660728e+02 
3.533900e-01 2.645876e+02 
3.546400e-01 2.630517e+02 
3.558400e-01 2.615908e+02 
3.570600e-01 2.601185e+02 
3.582700e-01 2.586708e+02 
3.595000e-01 2.572120e+02 
3.607100e-01 2.557954e+02 
3.618900e-01 2.544303e+02 
3.631200e-01 2.530195e+02 
3.643200e-01 2.516547e+02 
3.655500e-01 2.502677e+02 
3.667300e-01 2.489482e+02 
3.679500e-01 2.476065e+02 
3.691900e-01 2.462544e+02 
3.703600e-01 2.449892e+02 
3.715700e-01 2.436914e+02 
3.727700e-01 2.424149e+02 
3.739900e-01 2.411315e+02 
3.752000e-01 2.398756e+02 
3.763900e-01 2.386505e+02 
3.775800e-01 2.374352e+02 
3.788200e-01 2.361792e+02 
3.800300e-01 2.349637e+02 
3.812100e-01 2.337933e+02 
3.824200e-01 2.326064e+02 
3.836100e-01 2.314484e+02 
3.848600e-01 2.302419e+02 
3.860400e-01 2.291120e+02 
3.872400e-01 2.279719e+02 
3.884600e-01 2.268288e+02 
3.896500e-01 2.257250e+02 
3.908700e-01 2.246023e+02 
3.920600e-01 2.235157e+02 
3.933100e-01 2.223833e+02 
3.945300e-01 2.212869e+02 
3.957200e-01 2.202326e+02 
3.969300e-01 2.191707e+02 
3.981700e-01 2.180910e+02 
3.993500e-01 2.170714e+02 
4.094840e-01 2.086536e+02 
4.272360e-01 1.952913e+02 
4.454600e-01 1.830953e+02 
4.630560e-01 1.725499e+02 
4.804610e-01 1.631315e+02 
4.980690e-01 1.544857e+02 
5.159230e-01 1.465039e+02 
5.317440e-01 1.400133e+02 
5.489640e-01 1.335007e+02 
5.671990e-01 1.271666e+02 
5.838690e-01 1.218249e+02 
6.018840e-01 1.164888e+02 
6.202330e-01 1.114762e+02 
6.379250e-01 1.069985e+02 
6.545410e-01 1.030918e+02 
6.714560e-01 9.937668e+01 
6.892080e-01 9.573953e+01 
7.066010e-01 9.241684e+01 
7.240540e-01 8.929380e+01 
7.420450e-01 8.628548e+01 
7.593780e-01 8.356961e+01 
7.764720e-01 8.104855e+01 
7.942840e-01 7.857666e+01 
8.116170e-01 7.631263e+01 
8.288310e-01 7.419037e+01 
8.462240e-01 7.216284e+01 
8.631980e-01 7.028854e+01 
8.810700e-01 6.841806e+01 
8.989410e-01 6.664499e+01 
9.166330e-01 6.497887e+01 
9.345640e-01 6.337502e+01 
9.515980e-01 6.192336e+01 
9.688720e-01 6.051791e+01 
9.865640e-01 5.914490e+01 
1.031870e+00 5.589392e+01 
1.063490e+00 5.382836e+01 
1.097920e+00 5.174703e+01 
1.134370e+00 4.970696e+01 
1.167730e+00 4.797343e+01 
1.203830e+00 4.622368e+01 
1.240470e+00 4.456838e+01 
1.275790e+00 4.307545e+01 
1.309140e+00 4.175067e+01 
1.342970e+00 4.047947e+01 
1.378420e+00 3.922309e+01 
1.413200e+00 3.805793e+01 
1.448110e+00 3.694914e+01 
1.484090e+00 3.586566e+01 
1.518820e+00 3.487221e+01 
1.552880e+00 3.394363e+01 
1.588630e+00 3.301416e+01 
1.623230e+00 3.215604e+01 
1.657720e+00 3.133840e+01 
1.692450e+00 3.055060e+01 
1.726400e+00 2.981193e+01 
1.762200e+00 2.906430e+01 
1.797880e+00 2.835030e+01 
1.833270e+00 2.767086e+01 
1.869070e+00 2.701017e+01 
1.903200e+00 2.640418e+01 
1.937740e+00 2.581347e+01 
1.973190e+00 2.522908e+01 
2.007440e+00 2.468472e+01 
2.042160e+00 2.415174e+01 
2.077900e+00 2.362200e+01 
2.112390e+00 2.312862e+01 
2.146220e+00 2.265969e+01 
2.181600e+00 2.218547e+01 
2.216930e+00 2.172699e+01 
2.250760e+00 2.130185e+01 
2.286500e+00 2.086689e+01 
2.321770e+00 2.045108e+01 
2.355950e+00 2.006015e+01 
2.391280e+00 1.966738e+01 
2.426240e+00 1.929019e+01 
2.460670e+00 1.892972e+01 
2.495640e+00 1.857448e+01 
2.531080e+00 1.822388e+01 
2.566220e+00 1.788585e+01 
2.600830e+00 1.756226e+01 
2.635080e+00 1.725091e+01 
2.670340e+00 1.693824e+01 
2.705970e+00 1.663090e+01 
2.740040e+00 1.634491e+01 
2.774520e+00 1.606248e+01 
2.809730e+00 1.578114e+01 
2.844390e+00 1.551150e+01 
2.879960e+00 1.524172e+01 
2.914860e+00 1.498326e+01 
2.949410e+00 1.473390e+01 
2.984440e+00 1.448680e+01 
3.019760e+00 1.424367e+01 
3.054730e+00 1.400906e+01 
3.089030e+00 1.378353e+01 
3.124060e+00 1.355889e+01 
3.159560e+00 1.333658e+01 
3.194710e+00 1.312128e+01 
3.229010e+00 1.291631e+01 
3.263320e+00 1.271492e+01 
3.297930e+00 1.251661e+01 
3.332830e+00 1.232092e+01 
3.368040e+00 1.212780e+01 
3.403300e+00 1.193880e+01 
3.438450e+00 1.175413e+01 
3.473060e+00 1.157660e+01 
3.508440e+00 1.139821e+01 
3.543110e+00 1.122755e+01 
3.577470e+00 1.106151e+01 
3.613040e+00 1.089348e+01 
3.648120e+00 1.073086e+01 
3.682910e+00 1.057306e+01 
3.718050e+00 1.041676e+01 
3.753320e+00 1.026313e+01 
3.787980e+00 1.011500e+01 
3.822290e+00 9.971337e+00 
3.857020e+00 9.828648e+00 
3.891920e+00 9.688152e+00 
3.926650e+00 9.550837e+00 
3.961970e+00 9.414059e+00 
3.997360e+00 9.279453e+00 
4.031670e+00 9.151674e+00 
4.066330e+00 9.024744e+00 
4.101420e+00 8.898988e+00 
4.136200e+00 8.776167e+00 
4.170810e+00 8.656541e+00 
4.206250e+00 8.536081e+00 
4.241580e+00 8.418451e+00 
4.276300e+00 8.304836e+00 
4.310970e+00 8.193480e+00 
4.346120e+00 8.082661e+00 
4.380600e+00 7.975764e+00 
4.414730e+00 7.872048e+00 
4.450350e+00 7.765426e+00 
4.485320e+00 7.662871e+00 
4.519810e+00 7.563348e+00 
4.555430e+00 7.462436e+00 
4.590870e+00 7.363869e+00 
4.625480e+00 7.269138e+00 
4.659910e+00 7.176708e+00 
4.695230e+00 7.083354e+00 
4.729960e+00 6.993268e+00 
4.764450e+00 6.905333e+00 
4.799530e+00 6.817314e+00 
4.834910e+00 6.730225e+00 
4.869700e+00 6.645853e+00 
4.904370e+00 6.563268e+00 
4.939450e+00 6.481161e+00 
4.973940e+00 6.401690e+00 
5.008430e+00 6.323649e+00 
5.043810e+00 6.244831e+00 
5.078840e+00 6.168086e+00 
5.113500e+00 6.093508e+00 
5.148890e+00 6.018432e+00 
5.184210e+00 5.944835e+00 
5.219060e+00 5.873448e+00 
5.253660e+00 5.803660e+00 
5.288570e+00 5.734466e+00 
5.323420e+00 5.666464e+00 
5.358440e+00 5.599174e+00 
5.393590e+00 5.532793e+00 
5.428310e+00 5.468237e+00 
5.462800e+00 5.405127e+00 
5.497640e+00 5.342442e+00 
5.532670e+00 5.280347e+00 
5.567280e+00 5.219975e+00 
5.602000e+00 5.160405e+00 
5.637270e+00 5.100772e+00 
5.672410e+00 5.042311e+00 
5.707020e+00 4.985667e+00 
5.742040e+00 4.929207e+00 
5.777430e+00 4.873062e+00 
5.812210e+00 4.818772e+00 
5.846820e+00 4.765514e+00 
5.881610e+00 4.712800e+00 
5.916510e+00 4.660750e+00 
5.951600e+00 4.609192e+00 
5.986560e+00 4.558606e+00 
6.021830e+00 4.508369e+00 
6.056490e+00 4.459736e+00 
6.091160e+00 4.411808e+00 
6.125830e+00 4.364607e+00 
6.161090e+00 4.317323e+00 
6.195760e+00 4.271513e+00 
6.230420e+00 4.226400e+00 
6.265690e+00 4.181181e+00 
6.300950e+00 4.136637e+00 
6.335620e+00 4.093488e+00 
6.370880e+00 4.050254e+00 
6.405550e+00 4.008358e+00 
6.440220e+00 3.967066e+00 
6.475480e+00 3.925683e+00 
6.510150e+00 3.885586e+00 
6.544810e+00 3.846084e+00 
6.580080e+00 3.806463e+00 
6.614750e+00 3.768073e+00 
6.649410e+00 3.730240e+00 
6.684080e+00 3.692928e+00 
6.719340e+00 3.655515e+00 
6.754010e+00 3.619256e+00 
6.788680e+00 3.583526e+00 
6.823940e+00 3.547693e+00 
6.859800e+00 3.511761e+00 
6.894470e+00 3.477528e+00 
6.929140e+00 3.443768e+00 
6.963800e+00 3.410473e+00 
6.999070e+00 3.377054e+00 
7.033730e+00 3.344700e+00 
7.068400e+00 3.312768e+00 
7.103660e+00 3.280726e+00 
7.138330e+00 3.249653e+00 
7.173600e+00 3.218490e+00 
7.208260e+00 3.188269e+00 
7.243530e+00 3.157921e+00 
7.277600e+00 3.129012e+00 
7.312860e+00 3.099504e+00 
7.348120e+00 3.070381e+00 
7.382790e+00 3.042114e+00 
7.417460e+00 3.014250e+00 
7.452720e+00 2.986296e+00 
7.487390e+00 2.959158e+00 
7.522650e+00 2.931909e+00 
7.557320e+00 2.905504e+00 
7.591990e+00 2.879446e+00 
7.627250e+00 2.853275e+00 
7.662510e+00 2.827433e+00 
7.697180e+00 2.802393e+00 
7.731850e+00 2.777680e+00 
7.766510e+00 2.753274e+00 
7.801180e+00 2.729158e+00 
7.836440e+00 2.704968e+00 
7.871110e+00 2.681494e+00 
7.906380e+00 2.657903e+00 
7.941040e+00 2.634998e+00 
7.976310e+00 2.612000e+00 
8.011570e+00 2.589322e+00 
8.046240e+00 2.567288e+00 
8.080900e+00 2.545519e+00 
8.115570e+00 2.524015e+00 
8.150830e+00 2.502469e+00 
8.185500e+00 2.481530e+00 
8.220770e+00 2.460477e+00 
8.255430e+00 2.440028e+00 
8.290100e+00 2.419872e+00 
8.324770e+00 2.399954e+00 
8.359430e+00 2.380267e+00 
8.394700e+00 2.360461e+00 
8.429960e+00 2.340926e+00 
8.464630e+00 2.321972e+00 
8.499890e+00 2.302913e+00 
8.534560e+00 2.284382e+00 
8.569200e+00 2.266073e+00 
