# Parameters:
# omega_b = 0.022350, omega_m = 0.129370, n_s = 0.868898, h = 65.393701, w = -1.000000, sigma_8 = 0.701575
# z = 1.700000
#
# k[1/Mpc] # P(k):
8.694000e-04 5.440957e+03 
2.077466e-03 1.060285e+04 
3.285532e-03 1.423657e+04 
4.493598e-03 1.678061e+04 
5.701664e-03 1.848595e+04 
6.909730e-03 1.953668e+04 
8.117797e-03 2.010416e+04 
9.325863e-03 2.027739e+04 
1.053393e-02 2.013921e+04 
1.174199e-02 1.976170e+04 
1.295006e-02 1.918962e+04 
1.415813e-02 1.847865e+04 
1.536619e-02 1.767581e+04 
1.657426e-02 1.681194e+04 
1.778233e-02 1.591345e+04 
1.899039e-02 1.501864e+04 
2.019846e-02 1.414703e+04 
2.140652e-02 1.331462e+04 
2.261459e-02 1.252955e+04 
2.382266e-02 1.180131e+04 
2.503072e-02 1.113529e+04 
2.623879e-02 1.053177e+04 
2.744685e-02 9.990216e+03 
2.865492e-02 9.508070e+03 
2.986299e-02 9.080511e+03 
3.100100e-02 8.725416e+03 
3.220400e-02 8.394507e+03 
3.288100e-02 8.227513e+03 
3.424300e-02 7.926117e+03 
3.555100e-02 7.672967e+03 
3.686000e-02 7.449076e+03 
3.795000e-02 7.279823e+03 
3.929100e-02 7.088164e+03 
4.039800e-02 6.938362e+03 
4.164000e-02 6.775971e+03 
4.294400e-02 6.604663e+03 
4.415000e-02 6.446154e+03 
4.542900e-02 6.270649e+03 
4.660900e-02 6.105584e+03 
4.782300e-02 5.924581e+03 
4.892900e-02 5.755889e+03 
5.031200e-02 5.537841e+03 
5.155900e-02 5.335020e+03 
5.238100e-02 5.199824e+03 
5.378200e-02 4.969057e+03 
5.513400e-02 4.748076e+03 
5.627600e-02 4.565731e+03 
5.735300e-02 4.399918e+03 
5.870100e-02 4.203275e+03 
5.988700e-02 4.042136e+03 
6.113500e-02 3.884893e+03 
6.225900e-02 3.754260e+03 
6.340100e-02 3.631458e+03 
6.480200e-02 3.492396e+03 
6.601100e-02 3.382747e+03 
6.725500e-02 3.278728e+03 
6.829100e-02 3.199344e+03 
6.958600e-02 3.107672e+03 
7.071100e-02 3.035544e+03 
7.192300e-02 2.964821e+03 
7.307400e-02 2.903871e+03 
7.412300e-02 2.853041e+03 
7.550400e-02 2.792575e+03 
7.663100e-02 2.747180e+03 
7.791200e-02 2.699665e+03 
7.912700e-02 2.657079e+03 
8.027600e-02 2.618076e+03 
8.138400e-02 2.581092e+03 
8.272200e-02 2.536505e+03 
8.406100e-02 2.491244e+03 
8.534100e-02 2.446113e+03 
8.653800e-02 2.401909e+03 
8.759800e-02 2.361628e+03 
8.900300e-02 2.306209e+03 
9.009000e-02 2.261513e+03 
9.113300e-02 2.216982e+03 
9.239600e-02 2.162346e+03 
9.358000e-02 2.110033e+03 
9.496100e-02 2.047778e+03 
9.608400e-02 1.997405e+03 
9.727500e-02 1.944624e+03 
9.852600e-02 1.889407e+03 
9.973800e-02 1.837611e+03 
1.009000e-01 1.789494e+03 
1.020900e-01 1.742515e+03 
1.034000e-01 1.693346e+03 
1.046000e-01 1.650676e+03 
1.057200e-01 1.614119e+03 
1.069100e-01 1.577278e+03 
1.082500e-01 1.539683e+03 
1.093900e-01 1.510469e+03 
1.105400e-01 1.482840e+03 
1.116900e-01 1.458434e+03 
1.129600e-01 1.433040e+03 
1.142000e-01 1.410985e+03 
1.153300e-01 1.392061e+03 
1.166400e-01 1.371714e+03 
1.177800e-01 1.355016e+03 
1.190000e-01 1.337840e+03 
1.201200e-01 1.322384e+03 
1.213400e-01 1.305934e+03 
1.227100e-01 1.286995e+03 
1.238900e-01 1.270783e+03 
1.250700e-01 1.253887e+03 
1.263200e-01 1.235898e+03 
1.275500e-01 1.217480e+03 
1.287500e-01 1.199301e+03 
1.299900e-01 1.179959e+03 
1.311300e-01 1.162030e+03 
1.323500e-01 1.142446e+03 
1.335900e-01 1.122574e+03 
1.347100e-01 1.104449e+03 
1.359800e-01 1.084138e+03 
1.372100e-01 1.064458e+03 
1.384300e-01 1.045321e+03 
1.395700e-01 1.027635e+03 
1.407700e-01 1.009452e+03 
1.420300e-01 9.908372e+02 
1.432800e-01 9.728231e+02 
1.444500e-01 9.566598e+02 
1.456300e-01 9.407241e+02 
1.468900e-01 9.245329e+02 
1.480500e-01 9.100896e+02 
1.491700e-01 8.967162e+02 
1.503800e-01 8.829283e+02 
1.516400e-01 8.690209e+02 
1.528200e-01 8.568658e+02 
1.540200e-01 8.447566e+02 
1.551900e-01 8.336958e+02 
1.564300e-01 8.223308e+02 
1.576600e-01 8.115091e+02 
1.588700e-01 8.013416e+02 
1.600900e-01 7.913030e+02 
1.612700e-01 7.820415e+02 
1.625400e-01 7.722640e+02 
1.637600e-01 7.630761e+02 
1.649500e-01 7.542937e+02 
1.662200e-01 7.450696e+02 
1.674000e-01 7.365086e+02 
1.685000e-01 7.286656e+02 
1.697500e-01 7.197481e+02 
1.710300e-01 7.106284e+02 
1.722200e-01 7.023065e+02 
1.734400e-01 6.935578e+02 
1.746400e-01 6.850932e+02 
1.758700e-01 6.764647e+02 
1.770900e-01 6.678402e+02 
1.782700e-01 6.596477e+02 
1.794600e-01 6.513891e+02 
1.807000e-01 6.428433e+02 
1.819100e-01 6.346555e+02 
1.830100e-01 6.272628e+02 
1.842200e-01 6.192559e+02 
1.855000e-01 6.109416e+02 
1.867000e-01 6.033215e+02 
1.879200e-01 5.957097e+02 
1.890900e-01 5.885553e+02 
1.902800e-01 5.815059e+02 
1.915200e-01 5.742860e+02 
1.926900e-01 5.676323e+02 
1.939000e-01 5.610067e+02 
1.951700e-01 5.541706e+02 
1.963100e-01 5.481852e+02 
1.975100e-01 5.421185e+02 
1.987800e-01 5.358033e+02 
2.000100e-01 5.298354e+02 
2.012500e-01 5.240260e+02 
2.023400e-01 5.189965e+02 
2.036100e-01 5.132468e+02 
2.048900e-01 5.076291e+02 
2.060400e-01 5.026594e+02 
2.072200e-01 4.976383e+02 
2.084200e-01 4.926488e+02 
2.096900e-01 4.874492e+02 
2.109200e-01 4.824910e+02 
2.121100e-01 4.777573e+02 
2.132700e-01 4.732089e+02 
2.145200e-01 4.683792e+02 
2.157200e-01 4.637828e+02 
2.168800e-01 4.593896e+02 
2.180700e-01 4.549463e+02 
2.193400e-01 4.502534e+02 
2.206000e-01 4.456295e+02 
2.217500e-01 4.414696e+02 
2.229500e-01 4.371890e+02 
2.241400e-01 4.329432e+02 
2.253500e-01 4.286854e+02 
2.264900e-01 4.247290e+02 
2.277100e-01 4.205299e+02 
2.289900e-01 4.161625e+02 
2.301500e-01 4.122604e+02 
2.313600e-01 4.082454e+02 
2.325600e-01 4.042849e+02 
2.337700e-01 4.003464e+02 
2.350000e-01 3.963986e+02 
2.362000e-01 3.925929e+02 
2.374100e-01 3.887993e+02 
2.386500e-01 3.849653e+02 
2.399100e-01 3.811239e+02 
2.410400e-01 3.777308e+02 
2.422500e-01 3.741454e+02 
2.435000e-01 3.704917e+02 
2.447300e-01 3.669492e+02 
2.458700e-01 3.637233e+02 
2.470600e-01 3.603986e+02 
2.483300e-01 3.568976e+02 
2.495600e-01 3.535655e+02 
2.507600e-01 3.503748e+02 
2.519600e-01 3.472248e+02 
2.532200e-01 3.439604e+02 
2.543700e-01 3.410403e+02 
2.555500e-01 3.380951e+02 
2.568000e-01 3.350146e+02 
2.580100e-01 3.320707e+02 
2.592400e-01 3.291401e+02 
2.604100e-01 3.263973e+02 
2.616100e-01 3.236182e+02 
2.628400e-01 3.208046e+02 
2.640600e-01 3.180724e+02 
2.652200e-01 3.155151e+02 
2.664300e-01 3.128791e+02 
2.676500e-01 3.102532e+02 
2.688400e-01 3.077367e+02 
2.700700e-01 3.051754e+02 
2.712400e-01 3.027675e+02 
2.724800e-01 3.002454e+02 
2.736700e-01 2.978624e+02 
2.748800e-01 2.954765e+02 
2.761000e-01 2.930988e+02 
2.773200e-01 2.907487e+02 
2.785400e-01 2.884290e+02 
2.797000e-01 2.862546e+02 
2.808900e-01 2.840487e+02 
2.821400e-01 2.817580e+02 
2.833900e-01 2.794941e+02 
2.845500e-01 2.774186e+02 
2.857800e-01 2.752421e+02 
2.870300e-01 2.730555e+02 
2.882100e-01 2.710144e+02 
2.893900e-01 2.689960e+02 
2.906300e-01 2.668986e+02 
2.918900e-01 2.647916e+02 
2.930500e-01 2.628731e+02 
2.942500e-01 2.609090e+02 
2.954200e-01 2.590131e+02 
2.966500e-01 2.570414e+02 
2.978900e-01 2.550755e+02 
2.990400e-01 2.532716e+02 
3.002700e-01 2.513616e+02 
3.015100e-01 2.494567e+02 
3.026800e-01 2.476783e+02 
3.038500e-01 2.459181e+02 
3.050300e-01 2.441610e+02 
3.062600e-01 2.423466e+02 
3.075000e-01 2.405370e+02 
3.087000e-01 2.388042e+02 
3.099100e-01 2.370750e+02 
3.111200e-01 2.353642e+02 
3.123100e-01 2.336996e+02 
3.135300e-01 2.320105e+02 
3.147300e-01 2.303662e+02 
3.159900e-01 2.286575e+02 
3.171800e-01 2.270621e+02 
3.183700e-01 2.254838e+02 
3.196300e-01 2.238297e+02 
3.208400e-01 2.222575e+02 
3.220300e-01 2.207267e+02 
3.232000e-01 2.192393e+02 
3.244300e-01 2.176922e+02 
3.256700e-01 2.161483e+02 
3.269200e-01 2.146078e+02 
3.280800e-01 2.131922e+02 
3.292500e-01 2.117828e+02 
3.304800e-01 2.103170e+02 
3.317100e-01 2.088656e+02 
3.328900e-01 2.074867e+02 
3.340700e-01 2.061208e+02 
3.353600e-01 2.046481e+02 
3.365300e-01 2.033275e+02 
3.377100e-01 2.020080e+02 
3.389200e-01 2.006677e+02 
3.401600e-01 1.993073e+02 
3.413700e-01 1.979982e+02 
3.425300e-01 1.967589e+02 
3.437700e-01 1.954463e+02 
3.449800e-01 1.941776e+02 
3.461800e-01 1.929310e+02 
3.473600e-01 1.917191e+02 
3.485800e-01 1.904842e+02 
3.498100e-01 1.892508e+02 
3.510200e-01 1.880486e+02 
3.522000e-01 1.868868e+02 
3.533900e-01 1.857256e+02 
3.546400e-01 1.845268e+02 
3.558400e-01 1.833871e+02 
3.570600e-01 1.822387e+02 
3.582700e-01 1.811100e+02 
3.595000e-01 1.799730e+02 
3.607100e-01 1.788699e+02 
3.618900e-01 1.778078e+02 
3.631200e-01 1.767104e+02 
3.643200e-01 1.756492e+02 
3.655500e-01 1.745710e+02 
3.667300e-01 1.735457e+02 
3.679500e-01 1.725051e+02 
3.691900e-01 1.714567e+02 
3.703600e-01 1.704760e+02 
3.715700e-01 1.694703e+02 
3.727700e-01 1.684814e+02 
3.739900e-01 1.674878e+02 
3.752000e-01 1.665163e+02 
3.763900e-01 1.655689e+02 
3.775800e-01 1.646294e+02 
3.788200e-01 1.636586e+02 
3.800300e-01 1.627194e+02 
3.812100e-01 1.618160e+02 
3.824200e-01 1.609008e+02 
3.836100e-01 1.600080e+02 
3.848600e-01 1.590780e+02 
3.860400e-01 1.582074e+02 
3.872400e-01 1.573291e+02 
3.884600e-01 1.564495e+02 
3.896500e-01 1.556006e+02 
3.908700e-01 1.547374e+02 
3.920600e-01 1.539021e+02 
3.933100e-01 1.530319e+02 
3.945300e-01 1.521896e+02 
3.957200e-01 1.513804e+02 
3.969300e-01 1.505658e+02 
3.981700e-01 1.497377e+02 
3.993500e-01 1.489560e+02 
4.094840e-01 1.425148e+02 
4.272360e-01 1.323386e+02 
4.454600e-01 1.231079e+02 
4.630560e-01 1.151751e+02 
4.804610e-01 1.081347e+02 
4.980690e-01 1.017121e+02 
5.159230e-01 9.582166e+01 
5.317440e-01 9.105969e+01 
5.489640e-01 8.631151e+01 
5.671990e-01 8.172117e+01 
5.838690e-01 7.787119e+01 
6.018840e-01 7.404372e+01 
6.202330e-01 7.046680e+01 
6.379250e-01 6.728526e+01 
6.545410e-01 6.452066e+01 
6.714560e-01 6.189957e+01 
6.892080e-01 5.934257e+01 
7.066010e-01 5.701273e+01 
7.240540e-01 5.483023e+01 
7.420450e-01 5.273245e+01 
7.593780e-01 5.084339e+01 
7.764720e-01 4.909410e+01 
7.942840e-01 4.738289e+01 
8.116170e-01 4.581889e+01 
8.288310e-01 4.435659e+01 
8.462240e-01 4.296231e+01 
8.631980e-01 4.167684e+01 
8.810700e-01 4.039718e+01 
8.989410e-01 3.918746e+01 
9.166330e-01 3.805381e+01 
9.345640e-01 3.696513e+01 
9.515980e-01 3.598263e+01 
9.688720e-01 3.503456e+01 
9.865640e-01 3.411093e+01 
1.031870e+00 3.193718e+01 
1.063490e+00 3.056657e+01 
1.097920e+00 2.919372e+01 
1.134370e+00 2.785865e+01 
1.167730e+00 2.673205e+01 
1.203830e+00 2.560466e+01 
1.240470e+00 2.454595e+01 
1.275790e+00 2.359897e+01 
1.309140e+00 2.276412e+01 
1.342970e+00 2.197088e+01 
1.378420e+00 2.119163e+01 
1.413200e+00 2.047473e+01 
1.448110e+00 1.979759e+01 
1.484090e+00 1.914057e+01 
1.518820e+00 1.854263e+01 
1.552880e+00 1.798793e+01 
1.588630e+00 1.743636e+01 
1.623230e+00 1.693055e+01 
1.657720e+00 1.645156e+01 
1.692450e+00 1.599296e+01 
1.726400e+00 1.556576e+01 
1.762200e+00 1.513610e+01 
1.797880e+00 1.472825e+01 
1.833270e+00 1.434219e+01 
1.869070e+00 1.396901e+01 
1.903200e+00 1.362872e+01 
1.937740e+00 1.329852e+01 
1.973190e+00 1.297343e+01 
2.007440e+00 1.267206e+01 
2.042160e+00 1.237856e+01 
2.077900e+00 1.208820e+01 
2.112390e+00 1.181876e+01 
2.146220e+00 1.156403e+01 
2.181600e+00 1.130743e+01 
2.216930e+00 1.106047e+01 
2.250760e+00 1.083227e+01 
2.286500e+00 1.059957e+01 
2.321770e+00 1.037796e+01 
2.355950e+00 1.017036e+01 
2.391280e+00 9.962748e+00 
2.426240e+00 9.764001e+00 
2.460670e+00 9.574550e+00 
2.495640e+00 9.388272e+00 
2.531080e+00 9.205221e+00 
2.566220e+00 9.029310e+00 
2.600830e+00 8.861338e+00 
2.635080e+00 8.700079e+00 
2.670340e+00 8.538608e+00 
2.705970e+00 8.380296e+00 
2.740040e+00 8.233307e+00 
2.774520e+00 8.088546e+00 
2.809730e+00 7.944725e+00 
2.844390e+00 7.807104e+00 
2.879960e+00 7.669660e+00 
2.914860e+00 7.538330e+00 
2.949410e+00 7.411820e+00 
2.984440e+00 7.286777e+00 
3.019760e+00 7.163968e+00 
3.054730e+00 7.045600e+00 
3.089030e+00 6.932081e+00 
3.124060e+00 6.819098e+00 
3.159560e+00 6.707421e+00 
3.194710e+00 6.599498e+00 
3.229010e+00 6.496838e+00 
3.263320e+00 6.396176e+00 
3.297930e+00 6.297127e+00 
3.332830e+00 6.199539e+00 
3.368040e+00 6.103306e+00 
3.403300e+00 6.009180e+00 
3.438450e+00 5.917364e+00 
3.473060e+00 5.829135e+00 
3.508440e+00 5.740633e+00 
3.543110e+00 5.655968e+00 
3.577470e+00 5.573650e+00 
3.613040e+00 5.490384e+00 
3.648120e+00 5.409934e+00 
3.682910e+00 5.331869e+00 
3.718050e+00 5.254542e+00 
3.753320e+00 5.178593e+00 
3.787980e+00 5.105447e+00 
3.822290e+00 5.034514e+00 
3.857020e+00 4.964074e+00 
3.891920e+00 4.894734e+00 
3.926650e+00 4.827004e+00 
3.961970e+00 4.759536e+00 
3.997360e+00 4.693141e+00 
4.031670e+00 4.630117e+00 
4.066330e+00 4.567557e+00 
4.101420e+00 4.505566e+00 
4.136200e+00 4.445019e+00 
4.170810e+00 4.386037e+00 
4.206250e+00 4.326654e+00 
4.241580e+00 4.268659e+00 
4.276300e+00 4.212638e+00 
4.310970e+00 4.157722e+00 
4.346120e+00 4.103069e+00 
4.380600e+00 4.050353e+00 
4.414730e+00 3.999197e+00 
4.450350e+00 3.946588e+00 
4.485320e+00 3.895977e+00 
4.519810e+00 3.846831e+00 
4.555430e+00 3.796978e+00 
4.590870e+00 3.748284e+00 
4.625480e+00 3.701498e+00 
4.659910e+00 3.655839e+00 
4.695230e+00 3.609669e+00 
4.729960e+00 3.565099e+00 
4.764450e+00 3.521577e+00 
4.799530e+00 3.477988e+00 
4.834910e+00 3.434852e+00 
4.869700e+00 3.393044e+00 
4.904370e+00 3.352111e+00 
4.939450e+00 3.311400e+00 
4.973940e+00 3.271965e+00 
5.008430e+00 3.233233e+00 
5.043810e+00 3.194097e+00 
5.078840e+00 3.155976e+00 
5.113500e+00 3.118925e+00 
5.148890e+00 3.081574e+00 
5.184210e+00 3.044949e+00 
5.219060e+00 3.009414e+00 
5.253660e+00 2.974652e+00 
5.288570e+00 2.940180e+00 
5.323420e+00 2.906289e+00 
5.358440e+00 2.872739e+00 
5.393590e+00 2.839637e+00 
5.428310e+00 2.807403e+00 
5.462800e+00 2.775867e+00 
5.497640e+00 2.744538e+00 
5.532670e+00 2.713476e+00 
5.567280e+00 2.683263e+00 
5.602000e+00 2.653447e+00 
5.637270e+00 2.623578e+00 
5.672410e+00 2.594287e+00 
5.707020e+00 2.565903e+00 
5.742040e+00 2.537576e+00 
5.777430e+00 2.509397e+00 
5.812210e+00 2.482144e+00 
5.846820e+00 2.455388e+00 
5.881610e+00 2.428898e+00 
5.916510e+00 2.402738e+00 
5.951600e+00 2.376799e+00 
5.986560e+00 2.351337e+00 
6.021830e+00 2.326047e+00 
6.056490e+00 2.301547e+00 
6.091160e+00 2.277387e+00 
6.125830e+00 2.253590e+00 
6.161090e+00 2.229742e+00 
6.195760e+00 2.206624e+00 
6.230420e+00 2.183854e+00 
6.265690e+00 2.161026e+00 
6.300950e+00 2.138510e+00 
6.335620e+00 2.116696e+00 
6.370880e+00 2.094836e+00 
6.405550e+00 2.073642e+00 
6.440220e+00 2.052747e+00 
6.475480e+00 2.031803e+00 
6.510150e+00 2.011502e+00 
6.544810e+00 1.991487e+00 
6.580080e+00 1.971409e+00 
6.614750e+00 1.951951e+00 
6.649410e+00 1.932768e+00 
6.684080e+00 1.913845e+00 
6.719340e+00 1.894869e+00 
6.754010e+00 1.876469e+00 
6.788680e+00 1.858320e+00 
6.823940e+00 1.840116e+00 
6.859800e+00 1.821861e+00 
6.894470e+00 1.804461e+00 
6.929140e+00 1.787298e+00 
6.963800e+00 1.770370e+00 
6.999070e+00 1.753377e+00 
7.033730e+00 1.736918e+00 
7.068400e+00 1.720673e+00 
7.103660e+00 1.704369e+00 
7.138330e+00 1.688556e+00 
7.173600e+00 1.672691e+00 
7.208260e+00 1.657304e+00 
7.243530e+00 1.641849e+00 
7.277600e+00 1.627126e+00 
7.312860e+00 1.612094e+00 
7.348120e+00 1.597256e+00 
7.382790e+00 1.582854e+00 
7.417460e+00 1.568650e+00 
7.452720e+00 1.554396e+00 
7.487390e+00 1.540557e+00 
7.522650e+00 1.526660e+00 
7.557320e+00 1.513196e+00 
7.591990e+00 1.499910e+00 
7.627250e+00 1.486565e+00 
7.662510e+00 1.473386e+00 
7.697180e+00 1.460612e+00 
7.731850e+00 1.448003e+00 
7.766510e+00 1.435549e+00 
7.801180e+00 1.423242e+00 
7.836440e+00 1.410899e+00 
7.871110e+00 1.398922e+00 
7.906380e+00 1.386884e+00 
7.941040e+00 1.375195e+00 
7.976310e+00 1.363457e+00 
8.011570e+00 1.351883e+00 
8.046240e+00 1.340636e+00 
8.080900e+00 1.329523e+00 
8.115570e+00 1.318546e+00 
8.150830e+00 1.307552e+00 
8.185500e+00 1.296868e+00 
8.220770e+00 1.286123e+00 
8.255430e+00 1.275685e+00 
8.290100e+00 1.265398e+00 
8.324770e+00 1.255230e+00 
8.359430e+00 1.245180e+00 
8.394700e+00 1.235067e+00 
8.429960e+00 1.225096e+00 
8.464630e+00 1.215425e+00 
8.499890e+00 1.205699e+00 
8.534560e+00 1.196242e+00 
8.569200e+00 1.186896e+00 
