# Parameters:
# omega_b = 0.022902, omega_m = 0.152795, n_s = 0.901969, h = 80.039370, w = -1.000000, sigma_8 = 0.753543
# z = 1.700000
#
# k[1/Mpc] # P(k):
8.694000e-04 2.835429e+03 
2.077466e-03 5.772215e+03 
3.285532e-03 8.002971e+03 
4.493598e-03 9.704867e+03 
5.701664e-03 1.096257e+04 
6.909730e-03 1.185583e+04 
8.117797e-03 1.246835e+04 
9.325863e-03 1.284281e+04 
1.053393e-02 1.301952e+04 
1.174199e-02 1.303416e+04 
1.295006e-02 1.291030e+04 
1.415813e-02 1.267915e+04 
1.536619e-02 1.236595e+04 
1.657426e-02 1.198746e+04 
1.778233e-02 1.156029e+04 
1.899039e-02 1.110919e+04 
2.019846e-02 1.064711e+04 
2.140652e-02 1.018566e+04 
2.261459e-02 9.731025e+03 
2.382266e-02 9.291729e+03 
2.503072e-02 8.874353e+03 
2.623879e-02 8.481785e+03 
2.744685e-02 8.114644e+03 
2.865492e-02 7.775878e+03 
2.986299e-02 7.464975e+03 
3.100100e-02 7.197371e+03 
3.220400e-02 6.940159e+03 
3.288100e-02 6.806979e+03 
3.424300e-02 6.561921e+03 
3.555100e-02 6.352371e+03 
3.686000e-02 6.165384e+03 
3.795000e-02 6.024364e+03 
3.929100e-02 5.867409e+03 
4.039800e-02 5.748171e+03 
4.164000e-02 5.622786e+03 
4.294400e-02 5.497318e+03 
4.415000e-02 5.385171e+03 
4.542900e-02 5.266184e+03 
4.660900e-02 5.156760e+03 
4.782300e-02 5.039493e+03 
4.892900e-02 4.930704e+03 
5.031200e-02 4.789881e+03 
5.155900e-02 4.657523e+03 
5.238100e-02 4.567936e+03 
5.378200e-02 4.411587e+03 
5.513400e-02 4.255168e+03 
5.627600e-02 4.118870e+03 
5.735300e-02 3.987106e+03 
5.870100e-02 3.817865e+03 
5.988700e-02 3.666685e+03 
6.113500e-02 3.507276e+03 
6.225900e-02 3.366263e+03 
6.340100e-02 3.229007e+03 
6.480200e-02 3.072415e+03 
6.601100e-02 2.951080e+03 
6.725500e-02 2.840328e+03 
6.829100e-02 2.759776e+03 
6.958600e-02 2.670708e+03 
7.071100e-02 2.603928e+03 
7.192300e-02 2.540906e+03 
7.307400e-02 2.488470e+03 
7.412300e-02 2.446005e+03 
7.550400e-02 2.397228e+03 
7.663100e-02 2.361653e+03 
7.791200e-02 2.325888e+03 
7.912700e-02 2.295009e+03 
8.027600e-02 2.267477e+03 
8.138400e-02 2.241876e+03 
8.272200e-02 2.211501e+03 
8.406100e-02 2.180878e+03 
8.534100e-02 2.150207e+03 
8.653800e-02 2.119705e+03 
8.759800e-02 2.091488e+03 
8.900300e-02 2.051874e+03 
9.009000e-02 2.019130e+03 
9.113300e-02 1.985671e+03 
9.239600e-02 1.943842e+03 
9.358000e-02 1.902805e+03 
9.496100e-02 1.852498e+03 
9.608400e-02 1.810936e+03 
9.727500e-02 1.766709e+03 
9.852600e-02 1.718888e+03 
9.973800e-02 1.673353e+03 
1.009000e-01 1.630503e+03 
1.020900e-01 1.587434e+03 
1.034000e-01 1.541848e+03 
1.046000e-01 1.501764e+03 
1.057200e-01 1.466678e+03 
1.069100e-01 1.431106e+03 
1.082500e-01 1.394217e+03 
1.093900e-01 1.365334e+03 
1.105400e-01 1.337892e+03 
1.116900e-01 1.313583e+03 
1.129600e-01 1.288349e+03 
1.142000e-01 1.266712e+03 
1.153300e-01 1.248438e+03 
1.166400e-01 1.229247e+03 
1.177800e-01 1.214197e+03 
1.190000e-01 1.199054e+03 
1.201200e-01 1.186431e+03 
1.213400e-01 1.173177e+03 
1.227100e-01 1.159251e+03 
1.238900e-01 1.147534e+03 
1.250700e-01 1.135932e+03 
1.263200e-01 1.123681e+03 
1.275500e-01 1.111349e+03 
1.287500e-01 1.099087e+03 
1.299900e-01 1.085899e+03 
1.311300e-01 1.073378e+03 
1.323500e-01 1.059268e+03 
1.335900e-01 1.044478e+03 
1.347100e-01 1.030390e+03 
1.359800e-01 1.014144e+03 
1.372100e-01 9.975249e+02 
1.384300e-01 9.809857e+02 
1.395700e-01 9.648318e+02 
1.407700e-01 9.481169e+02 
1.420300e-01 9.299597e+02 
1.432800e-01 9.123967e+02 
1.444500e-01 8.958897e+02 
1.456300e-01 8.796318e+02 
1.468900e-01 8.628734e+02 
1.480500e-01 8.478640e+02 
1.491700e-01 8.340115e+02 
1.503800e-01 8.197829e+02 
1.516400e-01 8.055251e+02 
1.528200e-01 7.934212e+02 
1.540200e-01 7.813703e+02 
1.551900e-01 7.708858e+02 
1.564300e-01 7.602456e+02 
1.576600e-01 7.504328e+02 
1.588700e-01 7.416022e+02 
1.600900e-01 7.329124e+02 
1.612700e-01 7.254791e+02 
1.625400e-01 7.176274e+02 
1.637600e-01 7.104687e+02 
1.649500e-01 7.037532e+02 
1.662200e-01 6.967083e+02 
1.674000e-01 6.902359e+02 
1.685000e-01 6.843024e+02 
1.697500e-01 6.774535e+02 
1.710300e-01 6.703477e+02 
1.722200e-01 6.638584e+02 
1.734400e-01 6.566878e+02 
1.746400e-01 6.497310e+02 
1.758700e-01 6.425029e+02 
1.770900e-01 6.350090e+02 
1.782700e-01 6.278866e+02 
1.794600e-01 6.204938e+02 
1.807000e-01 6.127030e+02 
1.819100e-01 6.052361e+02 
1.830100e-01 5.982858e+02 
1.842200e-01 5.907223e+02 
1.855000e-01 5.828614e+02 
1.867000e-01 5.755125e+02 
1.879200e-01 5.681721e+02 
1.890900e-01 5.612654e+02 
1.902800e-01 5.544188e+02 
1.915200e-01 5.474076e+02 
1.926900e-01 5.409523e+02 
1.939000e-01 5.345423e+02 
1.951700e-01 5.279294e+02 
1.963100e-01 5.221578e+02 
1.975100e-01 5.163563e+02 
1.987800e-01 5.103173e+02 
2.000100e-01 5.046363e+02 
2.012500e-01 4.991660e+02 
2.023400e-01 4.944296e+02 
2.036100e-01 4.890316e+02 
2.048900e-01 4.838226e+02 
2.060400e-01 4.792138e+02 
2.072200e-01 4.745611e+02 
2.084200e-01 4.699920e+02 
2.096900e-01 4.652295e+02 
2.109200e-01 4.606871e+02 
2.121100e-01 4.563845e+02 
2.132700e-01 4.522511e+02 
2.145200e-01 4.478611e+02 
2.157200e-01 4.436964e+02 
2.168800e-01 4.397215e+02 
2.180700e-01 4.357001e+02 
2.193400e-01 4.314564e+02 
2.206000e-01 4.272825e+02 
2.217500e-01 4.235264e+02 
2.229500e-01 4.196602e+02 
2.241400e-01 4.158377e+02 
2.253500e-01 4.120033e+02 
2.264900e-01 4.084393e+02 
2.277100e-01 4.046649e+02 
2.289900e-01 4.007480e+02 
2.301500e-01 3.972472e+02 
2.313600e-01 3.936441e+02 
2.325600e-01 3.901134e+02 
2.337700e-01 3.866011e+02 
2.350000e-01 3.830788e+02 
2.362000e-01 3.796950e+02 
2.374100e-01 3.763357e+02 
2.386500e-01 3.729390e+02 
2.399100e-01 3.695343e+02 
2.410400e-01 3.665451e+02 
2.422500e-01 3.633875e+02 
2.435000e-01 3.601682e+02 
2.447300e-01 3.570479e+02 
2.458700e-01 3.542155e+02 
2.470600e-01 3.512950e+02 
2.483300e-01 3.482180e+02 
2.495600e-01 3.452876e+02 
2.507600e-01 3.424798e+02 
2.519600e-01 3.397065e+02 
2.532200e-01 3.368311e+02 
2.543700e-01 3.342490e+02 
2.555500e-01 3.316376e+02 
2.568000e-01 3.289050e+02 
2.580100e-01 3.262924e+02 
2.592400e-01 3.236730e+02 
2.604100e-01 3.212128e+02 
2.616100e-01 3.187189e+02 
2.628400e-01 3.161931e+02 
2.640600e-01 3.137185e+02 
2.652200e-01 3.113930e+02 
2.664300e-01 3.089951e+02 
2.676500e-01 3.066056e+02 
2.688400e-01 3.042977e+02 
2.700700e-01 3.019372e+02 
2.712400e-01 2.997174e+02 
2.724800e-01 2.973917e+02 
2.736700e-01 2.951822e+02 
2.748800e-01 2.929576e+02 
2.761000e-01 2.907401e+02 
2.773200e-01 2.885479e+02 
2.785400e-01 2.863778e+02 
2.797000e-01 2.843317e+02 
2.808900e-01 2.822555e+02 
2.821400e-01 2.800990e+02 
2.833900e-01 2.779668e+02 
2.845500e-01 2.760017e+02 
2.857800e-01 2.739406e+02 
2.870300e-01 2.718696e+02 
2.882100e-01 2.699359e+02 
2.893900e-01 2.680193e+02 
2.906300e-01 2.660252e+02 
2.918900e-01 2.640216e+02 
2.930500e-01 2.621968e+02 
2.942500e-01 2.603276e+02 
2.954200e-01 2.585204e+02 
2.966500e-01 2.566406e+02 
2.978900e-01 2.547660e+02 
2.990400e-01 2.530456e+02 
3.002700e-01 2.512228e+02 
3.015100e-01 2.494040e+02 
3.026800e-01 2.477058e+02 
3.038500e-01 2.460246e+02 
3.050300e-01 2.443461e+02 
3.062600e-01 2.426125e+02 
3.075000e-01 2.408832e+02 
3.087000e-01 2.392270e+02 
3.099100e-01 2.375740e+02 
3.111200e-01 2.359384e+02 
3.123100e-01 2.343471e+02 
3.135300e-01 2.327321e+02 
3.147300e-01 2.311596e+02 
3.159900e-01 2.295253e+02 
3.171800e-01 2.279993e+02 
3.183700e-01 2.264895e+02 
3.196300e-01 2.249069e+02 
3.208400e-01 2.234025e+02 
3.220300e-01 2.219373e+02 
3.232000e-01 2.205140e+02 
3.244300e-01 2.190336e+02 
3.256700e-01 2.175560e+02 
3.269200e-01 2.160813e+02 
3.280800e-01 2.147260e+02 
3.292500e-01 2.133766e+02 
3.304800e-01 2.119730e+02 
3.317100e-01 2.105830e+02 
3.328900e-01 2.092622e+02 
3.340700e-01 2.079536e+02 
3.353600e-01 2.065423e+02 
3.365300e-01 2.052766e+02 
3.377100e-01 2.040117e+02 
3.389200e-01 2.027266e+02 
3.401600e-01 2.014220e+02 
3.413700e-01 2.001663e+02 
3.425300e-01 1.989772e+02 
3.437700e-01 1.977176e+02 
3.449800e-01 1.964999e+02 
3.461800e-01 1.953032e+02 
3.473600e-01 1.941394e+02 
3.485800e-01 1.929528e+02 
3.498100e-01 1.917675e+02 
3.510200e-01 1.906120e+02 
3.522000e-01 1.894950e+02 
3.533900e-01 1.883785e+02 
3.546400e-01 1.872248e+02 
3.558400e-01 1.861276e+02 
3.570600e-01 1.850220e+02 
3.582700e-01 1.839351e+02 
3.595000e-01 1.828399e+02 
3.607100e-01 1.817767e+02 
3.618900e-01 1.807523e+02 
3.631200e-01 1.796937e+02 
3.643200e-01 1.786698e+02 
3.655500e-01 1.776294e+02 
3.667300e-01 1.766398e+02 
3.679500e-01 1.756337e+02 
3.691900e-01 1.746199e+02 
3.703600e-01 1.736715e+02 
3.715700e-01 1.726987e+02 
3.727700e-01 1.717420e+02 
3.739900e-01 1.707801e+02 
3.752000e-01 1.698387e+02 
3.763900e-01 1.689205e+02 
3.775800e-01 1.680098e+02 
3.788200e-01 1.670686e+02 
3.800300e-01 1.661579e+02 
3.812100e-01 1.652808e+02 
3.824200e-01 1.643913e+02 
3.836100e-01 1.635235e+02 
3.848600e-01 1.626194e+02 
3.860400e-01 1.617729e+02 
3.872400e-01 1.609188e+02 
3.884600e-01 1.600621e+02 
3.896500e-01 1.592349e+02 
3.908700e-01 1.583935e+02 
3.920600e-01 1.575793e+02 
3.933100e-01 1.567309e+02 
3.945300e-01 1.559096e+02 
3.957200e-01 1.551190e+02 
3.969300e-01 1.543227e+02 
3.981700e-01 1.535130e+02 
3.993500e-01 1.527486e+02 
4.094840e-01 1.464401e+02 
4.272360e-01 1.364192e+02 
4.454600e-01 1.272815e+02 
4.630560e-01 1.193939e+02 
4.804610e-01 1.123686e+02 
4.980690e-01 1.059411e+02 
5.159230e-01 1.000324e+02 
5.317440e-01 9.524617e+01 
5.489640e-01 9.046588e+01 
5.671990e-01 8.583671e+01 
5.838690e-01 8.194773e+01 
6.018840e-01 7.807521e+01 
6.202330e-01 7.445081e+01 
6.379250e-01 7.122254e+01 
6.545410e-01 6.841369e+01 
6.714560e-01 6.574731e+01 
6.892080e-01 6.314338e+01 
7.066010e-01 6.076803e+01 
7.240540e-01 5.854063e+01 
7.420450e-01 5.639782e+01 
7.593780e-01 5.446684e+01 
7.764720e-01 5.267699e+01 
7.942840e-01 5.092509e+01 
8.116170e-01 4.932289e+01 
8.288310e-01 4.782412e+01 
8.462240e-01 4.639432e+01 
8.631980e-01 4.507538e+01 
8.810700e-01 4.376188e+01 
8.989410e-01 4.251964e+01 
9.166330e-01 4.135516e+01 
9.345640e-01 4.023603e+01 
9.515980e-01 3.922574e+01 
9.688720e-01 3.825067e+01 
9.865640e-01 3.730034e+01 
1.031870e+00 3.506176e+01 
1.063490e+00 3.364847e+01 
1.097920e+00 3.223197e+01 
1.134370e+00 3.085253e+01 
1.167730e+00 2.968720e+01 
1.203830e+00 2.851941e+01 
1.240470e+00 2.742120e+01 
1.275790e+00 2.643710e+01 
1.309140e+00 2.556835e+01 
1.342970e+00 2.474153e+01 
1.378420e+00 2.392795e+01 
1.413200e+00 2.317802e+01 
1.448110e+00 2.246819e+01 
1.484090e+00 2.177849e+01 
1.518820e+00 2.114938e+01 
1.552880e+00 2.056448e+01 
1.588630e+00 1.998171e+01 
1.623230e+00 1.944630e+01 
1.657720e+00 1.893837e+01 
1.692450e+00 1.845102e+01 
1.726400e+00 1.799586e+01 
1.762200e+00 1.753717e+01 
1.797880e+00 1.710097e+01 
1.833270e+00 1.668721e+01 
1.869070e+00 1.628626e+01 
1.903200e+00 1.592003e+01 
1.937740e+00 1.556392e+01 
1.973190e+00 1.521250e+01 
2.007440e+00 1.488602e+01 
2.042160e+00 1.456751e+01 
2.077900e+00 1.425178e+01 
2.112390e+00 1.395809e+01 
2.146220e+00 1.367991e+01 
2.181600e+00 1.339911e+01 
2.216930e+00 1.312835e+01 
2.250760e+00 1.287766e+01 
2.286500e+00 1.262151e+01 
2.321770e+00 1.237712e+01 
2.355950e+00 1.214775e+01 
2.391280e+00 1.191784e+01 
2.426240e+00 1.169737e+01 
2.460670e+00 1.148684e+01 
2.495640e+00 1.127947e+01 
2.531080e+00 1.107517e+01 
2.566220e+00 1.087858e+01 
2.600830e+00 1.069056e+01 
2.635080e+00 1.050973e+01 
2.670340e+00 1.032817e+01 
2.705970e+00 1.014993e+01 
2.740040e+00 9.984213e+00 
2.774520e+00 9.820657e+00 
2.809730e+00 9.657880e+00 
2.844390e+00 9.501906e+00 
2.879960e+00 9.345807e+00 
2.914860e+00 9.196366e+00 
2.949410e+00 9.052235e+00 
2.984440e+00 8.909522e+00 
3.019760e+00 8.769135e+00 
3.054730e+00 8.633670e+00 
3.089030e+00 8.503407e+00 
3.124060e+00 8.373609e+00 
3.159560e+00 8.245105e+00 
3.194710e+00 8.120705e+00 
3.229010e+00 8.002269e+00 
3.263320e+00 7.885870e+00 
3.297930e+00 7.771229e+00 
3.332830e+00 7.658086e+00 
3.368040e+00 7.546336e+00 
3.403300e+00 7.436897e+00 
3.438450e+00 7.329936e+00 
3.473060e+00 7.227085e+00 
3.508440e+00 7.123690e+00 
3.543110e+00 7.024710e+00 
3.577470e+00 6.928233e+00 
3.613040e+00 6.830580e+00 
3.648120e+00 6.736099e+00 
3.682910e+00 6.644315e+00 
3.718050e+00 6.553220e+00 
3.753320e+00 6.463666e+00 
3.787980e+00 6.377311e+00 
3.822290e+00 6.293478e+00 
3.857020e+00 6.210094e+00 
3.891920e+00 6.127935e+00 
3.926650e+00 6.047557e+00 
3.961970e+00 5.967418e+00 
3.997360e+00 5.888413e+00 
4.031670e+00 5.813376e+00 
4.066330e+00 5.738761e+00 
4.101420e+00 5.664801e+00 
4.136200e+00 5.592413e+00 
4.170810e+00 5.521878e+00 
4.206250e+00 5.450728e+00 
4.241580e+00 5.381203e+00 
4.276300e+00 5.313947e+00 
4.310970e+00 5.247959e+00 
4.346120e+00 5.182225e+00 
4.380600e+00 5.118728e+00 
4.414730e+00 5.057092e+00 
4.450350e+00 4.993593e+00 
4.485320e+00 4.932490e+00 
4.519810e+00 4.873054e+00 
4.555430e+00 4.812710e+00 
4.590870e+00 4.753728e+00 
4.625480e+00 4.696985e+00 
4.659910e+00 4.641597e+00 
4.695230e+00 4.585487e+00 
4.729960e+00 4.531296e+00 
4.764450e+00 4.478326e+00 
4.799530e+00 4.425196e+00 
4.834910e+00 4.372606e+00 
4.869700e+00 4.321567e+00 
4.904370e+00 4.271577e+00 
4.939450e+00 4.221821e+00 
4.973940e+00 4.173554e+00 
5.008430e+00 4.126136e+00 
5.043810e+00 4.078167e+00 
5.078840e+00 4.031405e+00 
5.113500e+00 3.985945e+00 
5.148890e+00 3.940025e+00 
5.184210e+00 3.894985e+00 
5.219060e+00 3.851260e+00 
5.253660e+00 3.808438e+00 
5.288570e+00 3.765963e+00 
5.323420e+00 3.724167e+00 
5.358440e+00 3.682750e+00 
5.393590e+00 3.641876e+00 
5.428310e+00 3.602021e+00 
5.462800e+00 3.562998e+00 
5.497640e+00 3.524222e+00 
5.532670e+00 3.485729e+00 
5.567280e+00 3.448269e+00 
5.602000e+00 3.411294e+00 
5.637270e+00 3.374198e+00 
5.672410e+00 3.337804e+00 
5.707020e+00 3.302528e+00 
5.742040e+00 3.267273e+00 
5.777430e+00 3.232184e+00 
5.812210e+00 3.198244e+00 
5.846820e+00 3.164884e+00 
5.881610e+00 3.131840e+00 
5.916510e+00 3.099202e+00 
5.951600e+00 3.066799e+00 
5.986560e+00 3.034970e+00 
6.021830e+00 3.003348e+00 
6.056490e+00 2.972685e+00 
6.091160e+00 2.942421e+00 
6.125830e+00 2.912607e+00 
6.161090e+00 2.882714e+00 
6.195760e+00 2.853705e+00 
6.230420e+00 2.825128e+00 
6.265690e+00 2.796473e+00 
6.300950e+00 2.768155e+00 
6.335620e+00 2.740716e+00 
6.370880e+00 2.713215e+00 
6.405550e+00 2.686524e+00 
6.440220e+00 2.660198e+00 
6.475480e+00 2.633805e+00 
6.510150e+00 2.608206e+00 
6.544810e+00 2.582936e+00 
6.580080e+00 2.557583e+00 
6.614750e+00 2.533011e+00 
6.649410e+00 2.508754e+00 
6.684080e+00 2.484818e+00 
6.719340e+00 2.460810e+00 
6.754010e+00 2.437518e+00 
6.788680e+00 2.414516e+00 
6.823940e+00 2.391441e+00 
6.859800e+00 2.368298e+00 
6.894470e+00 2.346209e+00 
6.929140e+00 2.324408e+00 
6.963800e+00 2.302903e+00 
6.999070e+00 2.281310e+00 
7.033730e+00 2.260368e+00 
7.068400e+00 2.239695e+00 
7.103660e+00 2.218946e+00 
7.138330e+00 2.198809e+00 
7.173600e+00 2.178588e+00 
7.208260e+00 2.158973e+00 
7.243530e+00 2.139271e+00 
7.277600e+00 2.120480e+00 
7.312860e+00 2.101278e+00 
7.348120e+00 2.082322e+00 
7.382790e+00 2.063920e+00 
7.417460e+00 2.045749e+00 
7.452720e+00 2.027503e+00 
7.487390e+00 2.009787e+00 
7.522650e+00 1.991993e+00 
7.557320e+00 1.974737e+00 
7.591990e+00 1.957700e+00 
7.627250e+00 1.940586e+00 
7.662510e+00 1.923683e+00 
7.697180e+00 1.907280e+00 
7.731850e+00 1.891079e+00 
7.766510e+00 1.875077e+00 
7.801180e+00 1.859262e+00 
7.836440e+00 1.843382e+00 
7.871110e+00 1.827963e+00 
7.906380e+00 1.812463e+00 
7.941040e+00 1.797411e+00 
7.976310e+00 1.782286e+00 
8.011570e+00 1.767357e+00 
8.046240e+00 1.752849e+00 
8.080900e+00 1.738513e+00 
8.115570e+00 1.724348e+00 
8.150830e+00 1.710143e+00 
8.185500e+00 1.696336e+00 
8.220770e+00 1.682452e+00 
8.255430e+00 1.668963e+00 
8.290100e+00 1.655644e+00 
8.324770e+00 1.642478e+00 
8.359430e+00 1.629462e+00 
8.394700e+00 1.616366e+00 
8.429960e+00 1.603441e+00 
8.464630e+00 1.590894e+00 
8.499890e+00 1.578275e+00 
8.534560e+00 1.566004e+00 
8.569200e+00 1.553878e+00 
