# Parameters:
# omega_b = 0.023075, omega_m = 0.143425, n_s = 0.998031, h = 78.858268, w = -1.000000, sigma_8 = 0.722047
# z = 1.700000
#
# k[1/Mpc] # P(k):
8.694000e-04 2.050364e+03 
2.077466e-03 4.514501e+03 
3.285532e-03 6.501463e+03 
4.493598e-03 8.076070e+03 
5.701664e-03 9.278241e+03 
6.909730e-03 1.016094e+04 
8.117797e-03 1.078969e+04 
9.325863e-03 1.119767e+04 
1.053393e-02 1.141836e+04 
1.174199e-02 1.148288e+04 
1.295006e-02 1.141198e+04 
1.415813e-02 1.123461e+04 
1.536619e-02 1.097503e+04 
1.657426e-02 1.064994e+04 
1.778233e-02 1.027576e+04 
1.899039e-02 9.876687e+03 
2.019846e-02 9.465860e+03 
2.140652e-02 9.055029e+03 
2.261459e-02 8.650825e+03 
2.382266e-02 8.261717e+03 
2.503072e-02 7.893939e+03 
2.623879e-02 7.550261e+03 
2.744685e-02 7.231724e+03 
2.865492e-02 6.940404e+03 
2.986299e-02 6.675601e+03 
3.100100e-02 6.450288e+03 
3.220400e-02 6.236138e+03 
3.288100e-02 6.126454e+03 
3.424300e-02 5.926601e+03 
3.555100e-02 5.757660e+03 
3.686000e-02 5.608449e+03 
3.795000e-02 5.496630e+03 
3.929100e-02 5.372528e+03 
4.039800e-02 5.277874e+03 
4.164000e-02 5.177462e+03 
4.294400e-02 5.074800e+03 
4.415000e-02 4.981270e+03 
4.542900e-02 4.878983e+03 
4.660900e-02 4.782907e+03 
4.782300e-02 4.676890e+03 
4.892900e-02 4.576918e+03 
5.031200e-02 4.445361e+03 
5.155900e-02 4.320064e+03 
5.238100e-02 4.234756e+03 
5.378200e-02 4.085424e+03 
5.513400e-02 3.936270e+03 
5.627600e-02 3.807207e+03 
5.735300e-02 3.683726e+03 
5.870100e-02 3.527454e+03 
5.988700e-02 3.390153e+03 
6.113500e-02 3.247572e+03 
6.225900e-02 3.123125e+03 
6.340100e-02 3.003126e+03 
6.480200e-02 2.866987e+03 
6.601100e-02 2.761996e+03 
6.725500e-02 2.666317e+03 
6.829100e-02 2.596874e+03 
6.958600e-02 2.520144e+03 
7.071100e-02 2.462808e+03 
7.192300e-02 2.408915e+03 
7.307400e-02 2.364298e+03 
7.412300e-02 2.328343e+03 
7.550400e-02 2.287269e+03 
7.663100e-02 2.257388e+03 
7.791200e-02 2.227308e+03 
7.912700e-02 2.201086e+03 
8.027600e-02 2.177393e+03 
8.138400e-02 2.155021e+03 
8.272200e-02 2.127918e+03 
8.406100e-02 2.099953e+03 
8.534100e-02 2.071218e+03 
8.653800e-02 2.042107e+03 
8.759800e-02 2.014896e+03 
8.900300e-02 1.976324e+03 
9.009000e-02 1.944206e+03 
9.113300e-02 1.911265e+03 
9.239600e-02 1.870022e+03 
9.358000e-02 1.829538e+03 
9.496100e-02 1.779989e+03 
9.608400e-02 1.739150e+03 
9.727500e-02 1.695782e+03 
9.852600e-02 1.649200e+03 
9.973800e-02 1.605030e+03 
1.009000e-01 1.563616e+03 
1.020900e-01 1.522444e+03 
1.034000e-01 1.479105e+03 
1.046000e-01 1.441248e+03 
1.057200e-01 1.408587e+03 
1.069100e-01 1.375640e+03 
1.082500e-01 1.342005e+03 
1.093900e-01 1.315998e+03 
1.105400e-01 1.291482e+03 
1.116900e-01 1.270206e+03 
1.129600e-01 1.248254e+03 
1.142000e-01 1.229768e+03 
1.153300e-01 1.214224e+03 
1.166400e-01 1.198024e+03 
1.177800e-01 1.185289e+03 
1.190000e-01 1.172463e+03 
1.201200e-01 1.161500e+03 
1.213400e-01 1.149940e+03 
1.227100e-01 1.137162e+03 
1.238900e-01 1.126262e+03 
1.250700e-01 1.114978e+03 
1.263200e-01 1.102889e+03 
1.275500e-01 1.090340e+03 
1.287500e-01 1.077737e+03 
1.299900e-01 1.063993e+03 
1.311300e-01 1.050933e+03 
1.323500e-01 1.036203e+03 
1.335900e-01 1.020859e+03 
1.347100e-01 1.006364e+03 
1.359800e-01 9.897829e+02 
1.372100e-01 9.730731e+02 
1.384300e-01 9.565709e+02 
1.395700e-01 9.407399e+02 
1.407700e-01 9.243981e+02 
1.420300e-01 9.070337e+02 
1.432800e-01 8.902333e+02 
1.444500e-01 8.747735e+02 
1.456300e-01 8.595392e+02 
1.468900e-01 8.440094e+02 
1.480500e-01 8.301455e+02 
1.491700e-01 8.174034e+02 
1.503800e-01 8.043861e+02 
1.516400e-01 7.913421e+02 
1.528200e-01 7.803049e+02 
1.540200e-01 7.693091e+02 
1.551900e-01 7.597196e+02 
1.564300e-01 7.499786e+02 
1.576600e-01 7.409544e+02 
1.588700e-01 7.327845e+02 
1.600900e-01 7.247363e+02 
1.612700e-01 7.177289e+02 
1.625400e-01 7.103265e+02 
1.637600e-01 7.034875e+02 
1.649500e-01 6.970174e+02 
1.662200e-01 6.902109e+02 
1.674000e-01 6.838526e+02 
1.685000e-01 6.780235e+02 
1.697500e-01 6.712556e+02 
1.710300e-01 6.641955e+02 
1.722200e-01 6.577480e+02 
1.734400e-01 6.506005e+02 
1.746400e-01 6.436656e+02 
1.758700e-01 6.364672e+02 
1.770900e-01 6.290182e+02 
1.782700e-01 6.219384e+02 
1.794600e-01 6.146179e+02 
1.807000e-01 6.069210e+02 
1.819100e-01 5.995441e+02 
1.830100e-01 5.927239e+02 
1.842200e-01 5.853091e+02 
1.855000e-01 5.776047e+02 
1.867000e-01 5.704598e+02 
1.879200e-01 5.633222e+02 
1.890900e-01 5.566139e+02 
1.902800e-01 5.500080e+02 
1.915200e-01 5.432419e+02 
1.926900e-01 5.370210e+02 
1.939000e-01 5.308753e+02 
1.951700e-01 5.245334e+02 
1.963100e-01 5.190043e+02 
1.975100e-01 5.134647e+02 
1.987800e-01 5.076970e+02 
2.000100e-01 5.022729e+02 
2.012500e-01 4.970560e+02 
2.023400e-01 4.925382e+02 
2.036100e-01 4.873866e+02 
2.048900e-01 4.824081e+02 
2.060400e-01 4.780026e+02 
2.072200e-01 4.735527e+02 
2.084200e-01 4.691637e+02 
2.096900e-01 4.645882e+02 
2.109200e-01 4.602235e+02 
2.121100e-01 4.560626e+02 
2.132700e-01 4.520635e+02 
2.145200e-01 4.478155e+02 
2.157200e-01 4.437664e+02 
2.168800e-01 4.398928e+02 
2.180700e-01 4.359735e+02 
2.193400e-01 4.318281e+02 
2.206000e-01 4.277340e+02 
2.217500e-01 4.240492e+02 
2.229500e-01 4.202562e+02 
2.241400e-01 4.164873e+02 
2.253500e-01 4.127061e+02 
2.264900e-01 4.091912e+02 
2.277100e-01 4.054623e+02 
2.289900e-01 4.015857e+02 
2.301500e-01 3.981207e+02 
2.313600e-01 3.945540e+02 
2.325600e-01 3.910515e+02 
2.337700e-01 3.875670e+02 
2.350000e-01 3.840725e+02 
2.362000e-01 3.807138e+02 
2.374100e-01 3.773777e+02 
2.386500e-01 3.740043e+02 
2.399100e-01 3.706227e+02 
2.410400e-01 3.676538e+02 
2.422500e-01 3.645174e+02 
2.435000e-01 3.613196e+02 
2.447300e-01 3.582205e+02 
2.458700e-01 3.554090e+02 
2.470600e-01 3.525099e+02 
2.483300e-01 3.494553e+02 
2.495600e-01 3.465479e+02 
2.507600e-01 3.437640e+02 
2.519600e-01 3.410142e+02 
2.532200e-01 3.381630e+02 
2.543700e-01 3.356050e+02 
2.555500e-01 3.330195e+02 
2.568000e-01 3.303138e+02 
2.580100e-01 3.277268e+02 
2.592400e-01 3.251357e+02 
2.604100e-01 3.227031e+02 
2.616100e-01 3.202370e+02 
2.628400e-01 3.177393e+02 
2.640600e-01 3.152942e+02 
2.652200e-01 3.129972e+02 
2.664300e-01 3.106285e+02 
2.676500e-01 3.082681e+02 
2.688400e-01 3.059892e+02 
2.700700e-01 3.036590e+02 
2.712400e-01 3.014676e+02 
2.724800e-01 2.991714e+02 
2.736700e-01 2.969903e+02 
2.748800e-01 2.947945e+02 
2.761000e-01 2.926057e+02 
2.773200e-01 2.904416e+02 
2.785400e-01 2.882992e+02 
2.797000e-01 2.862791e+02 
2.808900e-01 2.842291e+02 
2.821400e-01 2.820997e+02 
2.833900e-01 2.799942e+02 
2.845500e-01 2.780536e+02 
2.857800e-01 2.760181e+02 
2.870300e-01 2.739726e+02 
2.882100e-01 2.720626e+02 
2.893900e-01 2.701694e+02 
2.906300e-01 2.681995e+02 
2.918900e-01 2.662199e+02 
2.930500e-01 2.644170e+02 
2.942500e-01 2.625700e+02 
2.954200e-01 2.607843e+02 
2.966500e-01 2.589267e+02 
2.978900e-01 2.570741e+02 
2.990400e-01 2.553737e+02 
3.002700e-01 2.535723e+02 
3.015100e-01 2.517748e+02 
3.026800e-01 2.500962e+02 
3.038500e-01 2.484345e+02 
3.050300e-01 2.467752e+02 
3.062600e-01 2.450620e+02 
3.075000e-01 2.433529e+02 
3.087000e-01 2.417159e+02 
3.099100e-01 2.400819e+02 
3.111200e-01 2.384653e+02 
3.123100e-01 2.368928e+02 
3.135300e-01 2.352968e+02 
3.147300e-01 2.337426e+02 
3.159900e-01 2.321272e+02 
3.171800e-01 2.306191e+02 
3.183700e-01 2.291271e+02 
3.196300e-01 2.275630e+02 
3.208400e-01 2.260761e+02 
3.220300e-01 2.246278e+02 
3.232000e-01 2.232214e+02 
3.244300e-01 2.217585e+02 
3.256700e-01 2.202983e+02 
3.269200e-01 2.188408e+02 
3.280800e-01 2.175012e+02 
3.292500e-01 2.161676e+02 
3.304800e-01 2.147805e+02 
3.317100e-01 2.134067e+02 
3.328900e-01 2.121011e+02 
3.340700e-01 2.108075e+02 
3.353600e-01 2.094123e+02 
3.365300e-01 2.081610e+02 
3.377100e-01 2.069104e+02 
3.389200e-01 2.056397e+02 
3.401600e-01 2.043497e+02 
3.413700e-01 2.031078e+02 
3.425300e-01 2.019317e+02 
3.437700e-01 2.006857e+02 
3.449800e-01 1.994811e+02 
3.461800e-01 1.982971e+02 
3.473600e-01 1.971455e+02 
3.485800e-01 1.959711e+02 
3.498100e-01 1.947977e+02 
3.510200e-01 1.936538e+02 
3.522000e-01 1.925480e+02 
3.533900e-01 1.914425e+02 
3.546400e-01 1.902995e+02 
3.558400e-01 1.892124e+02 
3.570600e-01 1.881168e+02 
3.582700e-01 1.870398e+02 
3.595000e-01 1.859545e+02 
3.607100e-01 1.849002e+02 
3.618900e-01 1.838841e+02 
3.631200e-01 1.828340e+02 
3.643200e-01 1.818183e+02 
3.655500e-01 1.807861e+02 
3.667300e-01 1.798043e+02 
3.679500e-01 1.788049e+02 
3.691900e-01 1.777979e+02 
3.703600e-01 1.768557e+02 
3.715700e-01 1.758893e+02 
3.727700e-01 1.749388e+02 
3.739900e-01 1.739827e+02 
3.752000e-01 1.730464e+02 
3.763900e-01 1.721330e+02 
3.775800e-01 1.712271e+02 
3.788200e-01 1.702909e+02 
3.800300e-01 1.693848e+02 
3.812100e-01 1.685115e+02 
3.824200e-01 1.676252e+02 
3.836100e-01 1.667606e+02 
3.848600e-01 1.658598e+02 
3.860400e-01 1.650162e+02 
3.872400e-01 1.641652e+02 
3.884600e-01 1.633106e+02 
3.896500e-01 1.624852e+02 
3.908700e-01 1.616456e+02 
3.920600e-01 1.608330e+02 
3.933100e-01 1.599863e+02 
3.945300e-01 1.591666e+02 
3.957200e-01 1.583766e+02 
3.969300e-01 1.575805e+02 
3.981700e-01 1.567711e+02 
3.993500e-01 1.560069e+02 
4.094840e-01 1.496946e+02 
4.272360e-01 1.396378e+02 
4.454600e-01 1.304433e+02 
4.630560e-01 1.224908e+02 
4.804610e-01 1.153975e+02 
4.980690e-01 1.089015e+02 
5.159230e-01 1.029259e+02 
5.317440e-01 9.808303e+01 
5.489640e-01 9.324446e+01 
5.671990e-01 8.855720e+01 
5.838690e-01 8.461763e+01 
6.018840e-01 8.069301e+01 
6.202330e-01 7.701833e+01 
6.379250e-01 7.374364e+01 
6.545410e-01 7.089323e+01 
6.714560e-01 6.818608e+01 
6.892080e-01 6.554121e+01 
7.066010e-01 6.312741e+01 
7.240540e-01 6.086291e+01 
7.420450e-01 5.868359e+01 
7.593780e-01 5.671905e+01 
7.764720e-01 5.489729e+01 
7.942840e-01 5.311362e+01 
8.116170e-01 5.148189e+01 
8.288310e-01 4.995507e+01 
8.462240e-01 4.849814e+01 
8.631980e-01 4.715380e+01 
8.810700e-01 4.581472e+01 
8.989410e-01 4.454799e+01 
9.166330e-01 4.336035e+01 
9.345640e-01 4.221856e+01 
9.515980e-01 4.118765e+01 
9.688720e-01 4.019255e+01 
9.865640e-01 3.922249e+01 
1.031870e+00 3.693641e+01 
1.063490e+00 3.549223e+01 
1.097920e+00 3.404432e+01 
1.134370e+00 3.263332e+01 
1.167730e+00 3.144071e+01 
1.203830e+00 3.024476e+01 
1.240470e+00 2.911931e+01 
1.275790e+00 2.810995e+01 
1.309140e+00 2.721833e+01 
1.342970e+00 2.636903e+01 
1.378420e+00 2.553270e+01 
1.413200e+00 2.476111e+01 
1.448110e+00 2.403005e+01 
1.484090e+00 2.331925e+01 
1.518820e+00 2.267018e+01 
1.552880e+00 2.206613e+01 
1.588630e+00 2.146369e+01 
1.623230e+00 2.090972e+01 
1.657720e+00 2.038374e+01 
1.692450e+00 1.987857e+01 
1.726400e+00 1.940620e+01 
1.762200e+00 1.892971e+01 
1.797880e+00 1.847618e+01 
1.833270e+00 1.804557e+01 
1.869070e+00 1.762781e+01 
1.903200e+00 1.724592e+01 
1.937740e+00 1.687421e+01 
1.973190e+00 1.650701e+01 
2.007440e+00 1.616553e+01 
2.042160e+00 1.583210e+01 
2.077900e+00 1.550125e+01 
2.112390e+00 1.519319e+01 
2.146220e+00 1.490112e+01 
2.181600e+00 1.460602e+01 
2.216930e+00 1.432122e+01 
2.250760e+00 1.405727e+01 
2.286500e+00 1.378734e+01 
2.321770e+00 1.352958e+01 
2.355950e+00 1.328746e+01 
2.391280e+00 1.304449e+01 
2.426240e+00 1.281130e+01 
2.460670e+00 1.258846e+01 
2.495640e+00 1.236879e+01 
2.531080e+00 1.215210e+01 
2.566220e+00 1.194346e+01 
2.600830e+00 1.174377e+01 
2.635080e+00 1.155155e+01 
2.670340e+00 1.135833e+01 
2.705970e+00 1.116852e+01 
2.740040e+00 1.099194e+01 
2.774520e+00 1.081748e+01 
2.809730e+00 1.064372e+01 
2.844390e+00 1.047711e+01 
2.879960e+00 1.031022e+01 
2.914860e+00 1.015029e+01 
2.949410e+00 9.995971e+00 
2.984440e+00 9.843037e+00 
3.019760e+00 9.692487e+00 
3.054730e+00 9.547141e+00 
3.089030e+00 9.407207e+00 
3.124060e+00 9.267701e+00 
3.159560e+00 9.129485e+00 
3.194710e+00 8.995575e+00 
3.229010e+00 8.868038e+00 
3.263320e+00 8.742559e+00 
3.297930e+00 8.618925e+00 
3.332830e+00 8.496813e+00 
3.368040e+00 8.376118e+00 
3.403300e+00 8.257854e+00 
3.438450e+00 8.142166e+00 
3.473060e+00 8.030891e+00 
3.508440e+00 7.918914e+00 
3.543110e+00 7.811688e+00 
3.577470e+00 7.707058e+00 
3.613040e+00 7.601123e+00 
3.648120e+00 7.498562e+00 
3.682910e+00 7.398880e+00 
3.718050e+00 7.299862e+00 
3.753320e+00 7.202480e+00 
3.787980e+00 7.108522e+00 
3.822290e+00 7.017264e+00 
3.857020e+00 6.926435e+00 
3.891920e+00 6.836900e+00 
3.926650e+00 6.749246e+00 
3.961970e+00 6.661819e+00 
3.997360e+00 6.575564e+00 
4.031670e+00 6.493619e+00 
4.066330e+00 6.412071e+00 
4.101420e+00 6.331230e+00 
4.136200e+00 6.252033e+00 
4.170810e+00 6.174857e+00 
4.206250e+00 6.096942e+00 
4.241580e+00 6.020789e+00 
4.276300e+00 5.947076e+00 
4.310970e+00 5.874726e+00 
4.346120e+00 5.802624e+00 
4.380600e+00 5.732930e+00 
4.414730e+00 5.665273e+00 
4.450350e+00 5.595516e+00 
4.485320e+00 5.528384e+00 
4.519810e+00 5.463037e+00 
4.555430e+00 5.396668e+00 
4.590870e+00 5.331775e+00 
4.625480e+00 5.269313e+00 
4.659910e+00 5.208336e+00 
4.695230e+00 5.146518e+00 
4.729960e+00 5.086802e+00 
4.764450e+00 5.028407e+00 
4.799530e+00 4.969800e+00 
4.834910e+00 4.911782e+00 
4.869700e+00 4.855443e+00 
4.904370e+00 4.800253e+00 
4.939450e+00 4.745305e+00 
4.973940e+00 4.691967e+00 
5.008430e+00 4.639564e+00 
5.043810e+00 4.586525e+00 
5.078840e+00 4.534803e+00 
5.113500e+00 4.484516e+00 
5.148890e+00 4.433679e+00 
5.184210e+00 4.383810e+00 
5.219060e+00 4.335385e+00 
5.253660e+00 4.287937e+00 
5.288570e+00 4.240870e+00 
5.323420e+00 4.194537e+00 
5.358440e+00 4.148605e+00 
5.393590e+00 4.103273e+00 
5.428310e+00 4.059045e+00 
5.462800e+00 4.015725e+00 
5.497640e+00 3.972677e+00 
5.532670e+00 3.929923e+00 
5.567280e+00 3.888306e+00 
5.602000e+00 3.847223e+00 
5.637270e+00 3.805983e+00 
5.672410e+00 3.765513e+00 
5.707020e+00 3.726284e+00 
5.742040e+00 3.687053e+00 
5.777430e+00 3.648002e+00 
5.812210e+00 3.610225e+00 
5.846820e+00 3.573077e+00 
5.881610e+00 3.536274e+00 
5.916510e+00 3.499920e+00 
5.951600e+00 3.463809e+00 
5.986560e+00 3.428326e+00 
6.021830e+00 3.393073e+00 
6.056490e+00 3.358875e+00 
6.091160e+00 3.325111e+00 
6.125830e+00 3.291845e+00 
6.161090e+00 3.258483e+00 
6.195760e+00 3.226095e+00 
6.230420e+00 3.194187e+00 
6.265690e+00 3.162188e+00 
6.300950e+00 3.130542e+00 
6.335620e+00 3.099877e+00 
6.370880e+00 3.069139e+00 
6.405550e+00 3.039295e+00 
6.440220e+00 3.009852e+00 
6.475480e+00 2.980332e+00 
6.510150e+00 2.951694e+00 
6.544810e+00 2.923409e+00 
6.580080e+00 2.895029e+00 
6.614750e+00 2.867521e+00 
6.649410e+00 2.840352e+00 
6.684080e+00 2.813537e+00 
6.719340e+00 2.786642e+00 
6.754010e+00 2.760541e+00 
6.788680e+00 2.734754e+00 
6.823940e+00 2.708883e+00 
6.859800e+00 2.682933e+00 
6.894470e+00 2.658153e+00 
6.929140e+00 2.633689e+00 
6.963800e+00 2.609555e+00 
6.999070e+00 2.585322e+00 
7.033730e+00 2.561805e+00 
7.068400e+00 2.538589e+00 
7.103660e+00 2.515286e+00 
7.138330e+00 2.492666e+00 
7.173600e+00 2.469941e+00 
7.208260e+00 2.447898e+00 
7.243530e+00 2.425755e+00 
7.277600e+00 2.404627e+00 
7.312860e+00 2.383028e+00 
7.348120e+00 2.361705e+00 
7.382790e+00 2.341004e+00 
7.417460e+00 2.320553e+00 
7.452720e+00 2.300012e+00 
7.487390e+00 2.280066e+00 
7.522650e+00 2.260033e+00 
7.557320e+00 2.240595e+00 
7.591990e+00 2.221401e+00 
7.627250e+00 2.202119e+00 
7.662510e+00 2.183075e+00 
7.697180e+00 2.164583e+00 
7.731850e+00 2.146316e+00 
7.766510e+00 2.128272e+00 
7.801180e+00 2.110437e+00 
7.836440e+00 2.092523e+00 
7.871110e+00 2.075121e+00 
7.906380e+00 2.057628e+00 
7.941040e+00 2.040641e+00 
7.976310e+00 2.023565e+00 
8.011570e+00 2.006704e+00 
8.046240e+00 1.990318e+00 
8.080900e+00 1.974126e+00 
8.115570e+00 1.958123e+00 
8.150830e+00 1.942068e+00 
8.185500e+00 1.926462e+00 
8.220770e+00 1.910768e+00 
8.255430e+00 1.895521e+00 
8.290100e+00 1.880455e+00 
8.324770e+00 1.865559e+00 
8.359430e+00 1.850834e+00 
8.394700e+00 1.836018e+00 
8.429960e+00 1.821390e+00 
8.464630e+00 1.807184e+00 
8.499890e+00 1.792896e+00 
8.534560e+00 1.779003e+00 
8.569200e+00 1.765272e+00 
