# Parameters:
# omega_b = 0.022744, omega_m = 0.143976, n_s = 0.966535, h = 55.708661, w = -1.000000, sigma_8 = 0.833858
# z = 1.700000
#
# k[1/Mpc] # P(k):
8.694000e-04 3.776754e+03 
2.077466e-03 8.086614e+03 
3.285532e-03 1.148605e+04 
4.493598e-03 1.413749e+04 
5.701664e-03 1.613709e+04 
6.909730e-03 1.758285e+04 
8.117797e-03 1.858985e+04 
9.325863e-03 1.921727e+04 
1.053393e-02 1.952566e+04 
1.174199e-02 1.957231e+04 
1.295006e-02 1.939272e+04 
1.415813e-02 1.903629e+04 
1.536619e-02 1.854728e+04 
1.657426e-02 1.795586e+04 
1.778233e-02 1.728815e+04 
1.899039e-02 1.658369e+04 
2.019846e-02 1.586435e+04 
2.140652e-02 1.514980e+04 
2.261459e-02 1.445062e+04 
2.382266e-02 1.378027e+04 
2.503072e-02 1.314886e+04 
2.623879e-02 1.256075e+04 
2.744685e-02 1.201756e+04 
2.865492e-02 1.152212e+04 
2.986299e-02 1.107295e+04 
3.100100e-02 1.069180e+04 
3.220400e-02 1.033022e+04 
3.288100e-02 1.014525e+04 
3.424300e-02 9.808257e+03 
3.555100e-02 9.523260e+03 
3.686000e-02 9.271040e+03 
3.795000e-02 9.081449e+03 
3.929100e-02 8.869965e+03 
4.039800e-02 8.707902e+03 
4.164000e-02 8.535371e+03 
4.294400e-02 8.358300e+03 
4.415000e-02 8.196872e+03 
4.542900e-02 8.020659e+03 
4.660900e-02 7.855622e+03 
4.782300e-02 7.674380e+03 
4.892900e-02 7.504318e+03 
5.031200e-02 7.281996e+03 
5.155900e-02 7.071576e+03 
5.238100e-02 6.929287e+03 
5.378200e-02 6.682708e+03 
5.513400e-02 6.441978e+03 
5.627600e-02 6.240375e+03 
5.735300e-02 6.055389e+03 
5.870100e-02 5.834805e+03 
5.988700e-02 5.653783e+03 
6.113500e-02 5.476848e+03 
6.225900e-02 5.328887e+03 
6.340100e-02 5.187609e+03 
6.480200e-02 5.023583e+03 
6.601100e-02 4.888316e+03 
6.725500e-02 4.754011e+03 
6.829100e-02 4.646254e+03 
6.958600e-02 4.517259e+03 
7.071100e-02 4.411561e+03 
7.192300e-02 4.304829e+03 
7.307400e-02 4.210668e+03 
7.412300e-02 4.130975e+03 
7.550400e-02 4.035318e+03 
7.663100e-02 3.963589e+03 
7.791200e-02 3.889721e+03 
7.912700e-02 3.825662e+03 
8.027600e-02 3.769111e+03 
8.138400e-02 3.717492e+03 
8.272200e-02 3.658176e+03 
8.406100e-02 3.600933e+03 
8.534100e-02 3.546845e+03 
8.653800e-02 3.495740e+03 
8.759800e-02 3.449992e+03 
8.900300e-02 3.387957e+03 
9.009000e-02 3.338262e+03 
9.113300e-02 3.288602e+03 
9.239600e-02 3.227309e+03 
9.358000e-02 3.167949e+03 
9.496100e-02 3.095902e+03 
9.608400e-02 3.036576e+03 
9.727500e-02 2.973518e+03 
9.852600e-02 2.905288e+03 
9.973800e-02 2.840010e+03 
1.009000e-01 2.778299e+03 
1.020900e-01 2.715417e+03 
1.034000e-01 2.648173e+03 
1.046000e-01 2.588339e+03 
1.057200e-01 2.534560e+03 
1.069100e-01 2.479385e+03 
1.082500e-01 2.420325e+03 
1.093900e-01 2.372737e+03 
1.105400e-01 2.326707e+03 
1.116900e-01 2.283896e+03 
1.129600e-01 2.238703e+03 
1.142000e-01 2.197963e+03 
1.153300e-01 2.162798e+03 
1.166400e-01 2.124630e+03 
1.177800e-01 2.093799e+03 
1.190000e-01 2.062328e+03 
1.201200e-01 2.035688e+03 
1.213400e-01 2.007637e+03 
1.227100e-01 1.978638e+03 
1.238900e-01 1.954512e+03 
1.250700e-01 1.931598e+03 
1.263200e-01 1.907962e+03 
1.275500e-01 1.885406e+03 
1.287500e-01 1.863730e+03 
1.299900e-01 1.841564e+03 
1.311300e-01 1.821194e+03 
1.323500e-01 1.799202e+03 
1.335900e-01 1.776679e+03 
1.347100e-01 1.755883e+03 
1.359800e-01 1.732163e+03 
1.372100e-01 1.708406e+03 
1.384300e-01 1.684831e+03 
1.395700e-01 1.661995e+03 
1.407700e-01 1.638321e+03 
1.420300e-01 1.612490e+03 
1.432800e-01 1.587453e+03 
1.444500e-01 1.563467e+03 
1.456300e-01 1.539797e+03 
1.468900e-01 1.514783e+03 
1.480500e-01 1.492170e+03 
1.491700e-01 1.470868e+03 
1.503800e-01 1.448436e+03 
1.516400e-01 1.425726e+03 
1.528200e-01 1.405508e+03 
1.540200e-01 1.385369e+03 
1.551900e-01 1.366916e+03 
1.564300e-01 1.347943e+03 
1.576600e-01 1.329979e+03 
1.588700e-01 1.313225e+03 
1.600900e-01 1.296706e+03 
1.612700e-01 1.281891e+03 
1.625400e-01 1.266249e+03 
1.637600e-01 1.251884e+03 
1.649500e-01 1.238347e+03 
1.662200e-01 1.224207e+03 
1.674000e-01 1.211535e+03 
1.685000e-01 1.199921e+03 
1.697500e-01 1.186921e+03 
1.710300e-01 1.173826e+03 
1.722200e-01 1.161868e+03 
1.734400e-01 1.149549e+03 
1.746400e-01 1.137630e+03 
1.758700e-01 1.125493e+03 
1.770900e-01 1.113397e+03 
1.782700e-01 1.101895e+03 
1.794600e-01 1.090249e+03 
1.807000e-01 1.078159e+03 
1.819100e-01 1.066564e+03 
1.830100e-01 1.055936e+03 
1.842200e-01 1.044388e+03 
1.855000e-01 1.032375e+03 
1.867000e-01 1.021121e+03 
1.879200e-01 1.009868e+03 
1.890900e-01 9.992416e+02 
1.902800e-01 9.885511e+02 
1.915200e-01 9.775940e+02 
1.926900e-01 9.674369e+02 
1.939000e-01 9.571457e+02 
1.951700e-01 9.465214e+02 
1.963100e-01 9.371723e+02 
1.975100e-01 9.275791e+02 
1.987800e-01 9.175886e+02 
2.000100e-01 9.081217e+02 
2.012500e-01 8.988524e+02 
2.023400e-01 8.908245e+02 
2.036100e-01 8.816452e+02 
2.048900e-01 8.726788e+02 
2.060400e-01 8.647440e+02 
2.072200e-01 8.567293e+02 
2.084200e-01 8.488239e+02 
2.096900e-01 8.405823e+02 
2.109200e-01 8.327203e+02 
2.121100e-01 8.252960e+02 
2.132700e-01 8.181634e+02 
2.145200e-01 8.105867e+02 
2.157200e-01 8.034297e+02 
2.168800e-01 7.966121e+02 
2.180700e-01 7.897135e+02 
2.193400e-01 7.824402e+02 
2.206000e-01 7.753005e+02 
2.217500e-01 7.688738e+02 
2.229500e-01 7.622573e+02 
2.241400e-01 7.556981e+02 
2.253500e-01 7.491167e+02 
2.264900e-01 7.429979e+02 
2.277100e-01 7.364797e+02 
2.289900e-01 7.296736e+02 
2.301500e-01 7.235891e+02 
2.313600e-01 7.173246e+02 
2.325600e-01 7.110713e+02 
2.337700e-01 7.048496e+02 
2.350000e-01 6.986096e+02 
2.362000e-01 6.925517e+02 
2.374100e-01 6.864633e+02 
2.386500e-01 6.803069e+02 
2.399100e-01 6.741358e+02 
2.410400e-01 6.686097e+02 
2.422500e-01 6.627589e+02 
2.435000e-01 6.567942e+02 
2.447300e-01 6.509959e+02 
2.458700e-01 6.456633e+02 
2.470600e-01 6.401654e+02 
2.483300e-01 6.343738e+02 
2.495600e-01 6.288432e+02 
2.507600e-01 6.235226e+02 
2.519600e-01 6.182682e+02 
2.532200e-01 6.128212e+02 
2.543700e-01 6.079415e+02 
2.555500e-01 6.030145e+02 
2.568000e-01 5.978596e+02 
2.580100e-01 5.929318e+02 
2.592400e-01 5.880365e+02 
2.604100e-01 5.834589e+02 
2.616100e-01 5.788191e+02 
2.628400e-01 5.741204e+02 
2.640600e-01 5.695815e+02 
2.652200e-01 5.653418e+02 
2.664300e-01 5.609701e+02 
2.676500e-01 5.566139e+02 
2.688400e-01 5.524645e+02 
2.700700e-01 5.482566e+02 
2.712400e-01 5.442994e+02 
2.724800e-01 5.401530e+02 
2.736700e-01 5.362553e+02 
2.748800e-01 5.323734e+02 
2.761000e-01 5.285034e+02 
2.773200e-01 5.246769e+02 
2.785400e-01 5.209099e+02 
2.797000e-01 5.174016e+02 
2.808900e-01 5.138409e+02 
2.821400e-01 5.101419e+02 
2.833900e-01 5.064858e+02 
2.845500e-01 5.031600e+02 
2.857800e-01 4.996710e+02 
2.870300e-01 4.961642e+02 
2.882100e-01 4.928892e+02 
2.893900e-01 4.896620e+02 
2.906300e-01 4.863141e+02 
2.918900e-01 4.829491e+02 
2.930500e-01 4.798836e+02 
2.942500e-01 4.767465e+02 
2.954200e-01 4.737246e+02 
2.966500e-01 4.705804e+02 
2.978900e-01 4.674439e+02 
2.990400e-01 4.645646e+02 
3.002700e-01 4.615167e+02 
3.015100e-01 4.584765e+02 
3.026800e-01 4.556368e+02 
3.038500e-01 4.528248e+02 
3.050300e-01 4.500165e+02 
3.062600e-01 4.471148e+02 
3.075000e-01 4.442193e+02 
3.087000e-01 4.414454e+02 
3.099100e-01 4.386759e+02 
3.111200e-01 4.359326e+02 
3.123100e-01 4.332591e+02 
3.135300e-01 4.305449e+02 
3.147300e-01 4.279013e+02 
3.159900e-01 4.251530e+02 
3.171800e-01 4.225813e+02 
3.183700e-01 4.200330e+02 
3.196300e-01 4.173611e+02 
3.208400e-01 4.148203e+02 
3.220300e-01 4.123452e+02 
3.232000e-01 4.099341e+02 
3.244300e-01 4.074231e+02 
3.256700e-01 4.049162e+02 
3.269200e-01 4.024134e+02 
3.280800e-01 4.001126e+02 
3.292500e-01 3.978154e+02 
3.304800e-01 3.954234e+02 
3.317100e-01 3.930540e+02 
3.328900e-01 3.908018e+02 
3.340700e-01 3.885699e+02 
3.353600e-01 3.861571e+02 
3.365300e-01 3.839906e+02 
3.377100e-01 3.818250e+02 
3.389200e-01 3.796241e+02 
3.401600e-01 3.773894e+02 
3.413700e-01 3.752347e+02 
3.425300e-01 3.731915e+02 
3.437700e-01 3.710267e+02 
3.449800e-01 3.689333e+02 
3.461800e-01 3.668755e+02 
3.473600e-01 3.648730e+02 
3.485800e-01 3.628290e+02 
3.498100e-01 3.607864e+02 
3.510200e-01 3.587948e+02 
3.522000e-01 3.568693e+02 
3.533900e-01 3.549440e+02 
3.546400e-01 3.529526e+02 
3.558400e-01 3.510583e+02 
3.570600e-01 3.491490e+02 
3.582700e-01 3.472715e+02 
3.595000e-01 3.453795e+02 
3.607100e-01 3.435428e+02 
3.618900e-01 3.417734e+02 
3.631200e-01 3.399445e+02 
3.643200e-01 3.381752e+02 
3.655500e-01 3.363769e+02 
3.667300e-01 3.346661e+02 
3.679500e-01 3.329283e+02 
3.691900e-01 3.311769e+02 
3.703600e-01 3.295379e+02 
3.715700e-01 3.278565e+02 
3.727700e-01 3.262027e+02 
3.739900e-01 3.245407e+02 
3.752000e-01 3.229161e+02 
3.763900e-01 3.213312e+02 
3.775800e-01 3.197588e+02 
3.788200e-01 3.181336e+02 
3.800300e-01 3.165606e+02 
3.812100e-01 3.150479e+02 
3.824200e-01 3.135152e+02 
3.836100e-01 3.120196e+02 
3.848600e-01 3.104611e+02 
3.860400e-01 3.090015e+02 
3.872400e-01 3.075287e+02 
3.884600e-01 3.060542e+02 
3.896500e-01 3.046313e+02 
3.908700e-01 3.031838e+02 
3.920600e-01 3.017828e+02 
3.933100e-01 3.003226e+02 
3.945300e-01 2.989087e+02 
3.957200e-01 2.975522e+02 
3.969300e-01 2.961869e+02 
3.981700e-01 2.947985e+02 
3.993500e-01 2.934872e+02 
4.094840e-01 2.826675e+02 
4.272360e-01 2.655602e+02 
4.454600e-01 2.499735e+02 
4.630560e-01 2.364981e+02 
4.804610e-01 2.244415e+02 
4.980690e-01 2.133406e+02 
5.159230e-01 2.030474e+02 
5.317440e-01 1.946430e+02 
5.489640e-01 1.861679e+02 
5.671990e-01 1.778859e+02 
5.838690e-01 1.708739e+02 
6.018840e-01 1.638463e+02 
6.202330e-01 1.572205e+02 
6.379250e-01 1.512859e+02 
6.545410e-01 1.460947e+02 
6.714560e-01 1.411512e+02 
6.892080e-01 1.363012e+02 
7.066010e-01 1.318663e+02 
7.240540e-01 1.276902e+02 
7.420450e-01 1.236642e+02 
7.593780e-01 1.200250e+02 
7.764720e-01 1.166437e+02 
7.942840e-01 1.133243e+02 
8.116170e-01 1.102810e+02 
8.288310e-01 1.074238e+02 
8.462240e-01 1.046914e+02 
8.631980e-01 1.021613e+02 
8.810700e-01 9.963218e+01 
8.989410e-01 9.723020e+01 
9.166330e-01 9.496846e+01 
9.345640e-01 9.278872e+01 
9.515980e-01 9.081126e+01 
9.688720e-01 8.889125e+01 
9.865640e-01 8.701169e+01 
1.031870e+00 8.254086e+01 
1.063490e+00 7.968401e+01 
1.097920e+00 7.679110e+01 
1.134370e+00 7.393890e+01 
1.167730e+00 7.150227e+01 
1.203830e+00 6.902649e+01 
1.240470e+00 6.667184e+01 
1.275790e+00 6.453579e+01 
1.309140e+00 6.263159e+01 
1.342970e+00 6.079084e+01 
1.378420e+00 5.896467e+01 
1.413200e+00 5.726210e+01 
1.448110e+00 5.563453e+01 
1.484090e+00 5.403626e+01 
1.518820e+00 5.256453e+01 
1.552880e+00 5.118281e+01 
1.588630e+00 4.979460e+01 
1.623230e+00 4.850784e+01 
1.657720e+00 4.727748e+01 
1.692450e+00 4.608818e+01 
1.726400e+00 4.496978e+01 
1.762200e+00 4.383403e+01 
1.797880e+00 4.274584e+01 
1.833270e+00 4.170790e+01 
1.869070e+00 4.069621e+01 
1.903200e+00 3.976536e+01 
1.937740e+00 3.885648e+01 
1.973190e+00 3.795592e+01 
2.007440e+00 3.711561e+01 
2.042160e+00 3.629079e+01 
2.077900e+00 3.546958e+01 
2.112390e+00 3.470433e+01 
2.146220e+00 3.397534e+01 
2.181600e+00 3.323737e+01 
2.216930e+00 3.252273e+01 
2.250760e+00 3.185961e+01 
2.286500e+00 3.118077e+01 
2.321770e+00 3.053115e+01 
2.355950e+00 2.991984e+01 
2.391280e+00 2.930491e+01 
2.426240e+00 2.871398e+01 
2.460670e+00 2.814918e+01 
2.495640e+00 2.759262e+01 
2.531080e+00 2.704292e+01 
2.566220e+00 2.651240e+01 
2.600830e+00 2.600442e+01 
2.635080e+00 2.551572e+01 
2.670340e+00 2.502526e+01 
2.705970e+00 2.454288e+01 
2.740040e+00 2.409393e+01 
2.774520e+00 2.365064e+01 
2.809730e+00 2.320901e+01 
2.844390e+00 2.278587e+01 
2.879960e+00 2.236288e+01 
2.914860e+00 2.195764e+01 
2.949410e+00 2.156674e+01 
2.984440e+00 2.117939e+01 
3.019760e+00 2.079840e+01 
3.054730e+00 2.043091e+01 
3.089030e+00 2.007799e+01 
3.124060e+00 1.972672e+01 
3.159560e+00 1.937941e+01 
3.194710e+00 1.904313e+01 
3.229010e+00 1.872313e+01 
3.263320e+00 1.840898e+01 
3.297930e+00 1.809982e+01 
3.332830e+00 1.779498e+01 
3.368040e+00 1.749447e+01 
3.403300e+00 1.720066e+01 
3.438450e+00 1.691381e+01 
3.473060e+00 1.663821e+01 
3.508440e+00 1.636158e+01 
3.543110e+00 1.609713e+01 
3.577470e+00 1.584042e+01 
3.613040e+00 1.558072e+01 
3.648120e+00 1.532948e+01 
3.682910e+00 1.508601e+01 
3.718050e+00 1.484534e+01 
3.753320e+00 1.460891e+01 
3.787980e+00 1.438109e+01 
3.822290e+00 1.416041e+01 
3.857020e+00 1.394156e+01 
3.891920e+00 1.372628e+01 
3.926650e+00 1.351614e+01 
3.961970e+00 1.330705e+01 
3.997360e+00 1.310167e+01 
4.031670e+00 1.290685e+01 
4.066330e+00 1.271358e+01 
4.101420e+00 1.252222e+01 
4.136200e+00 1.233575e+01 
4.170810e+00 1.215423e+01 
4.206250e+00 1.197179e+01 
4.241580e+00 1.179378e+01 
4.276300e+00 1.162214e+01 
4.310970e+00 1.145410e+01 
4.346120e+00 1.128707e+01 
4.380600e+00 1.112619e+01 
4.414730e+00 1.097020e+01 
4.450350e+00 1.081018e+01 
4.485320e+00 1.065636e+01 
4.519810e+00 1.050742e+01 
4.555430e+00 1.035661e+01 
4.590870e+00 1.020943e+01 
4.625480e+00 1.006815e+01 
4.659910e+00 9.930371e+00 
4.695230e+00 9.791611e+00 
4.729960e+00 9.657827e+00 
4.764450e+00 9.527423e+00 
4.799530e+00 9.397158e+00 
4.834910e+00 9.268335e+00 
4.869700e+00 9.143758e+00 
4.904370e+00 9.021909e+00 
4.939450e+00 8.900902e+00 
4.973940e+00 8.784036e+00 
5.008430e+00 8.669329e+00 
5.043810e+00 8.553676e+00 
5.078840e+00 8.441200e+00 
5.113500e+00 8.331953e+00 
5.148890e+00 8.222327e+00 
5.184210e+00 8.114924e+00 
5.219060e+00 8.010844e+00 
5.253660e+00 7.909276e+00 
5.288570e+00 7.808618e+00 
5.323420e+00 7.709827e+00 
5.358440e+00 7.612210e+00 
5.393590e+00 7.515957e+00 
5.428310e+00 7.422577e+00 
5.462800e+00 7.331430e+00 
5.497640e+00 7.240933e+00 
5.532670e+00 7.151472e+00 
5.567280e+00 7.064577e+00 
5.602000e+00 6.978872e+00 
5.637270e+00 6.893259e+00 
5.672410e+00 6.809399e+00 
5.707020e+00 6.728179e+00 
5.742040e+00 6.647428e+00 
5.777430e+00 6.567195e+00 
5.812210e+00 6.489644e+00 
5.846820e+00 6.413708e+00 
5.881610e+00 6.338605e+00 
5.916510e+00 6.264479e+00 
5.951600e+00 6.191211e+00 
5.986560e+00 6.119413e+00 
6.021830e+00 6.048134e+00 
6.056490e+00 5.979245e+00 
6.091160e+00 5.911451e+00 
6.125830e+00 5.844710e+00 
6.161090e+00 5.777915e+00 
6.195760e+00 5.713307e+00 
6.230420e+00 5.649705e+00 
6.265690e+00 5.585983e+00 
6.300950e+00 5.523398e+00 
6.335620e+00 5.462795e+00 
6.370880e+00 5.402091e+00 
6.405550e+00 5.343358e+00 
6.440220e+00 5.285518e+00 
6.475480e+00 5.227570e+00 
6.510150e+00 5.171481e+00 
6.544810e+00 5.116333e+00 
6.580080e+00 5.061037e+00 
6.614750e+00 5.007474e+00 
6.649410e+00 4.954781e+00 
6.684080e+00 4.902845e+00 
6.719340e+00 4.850784e+00 
6.754010e+00 4.800381e+00 
6.788680e+00 4.750816e+00 
6.823940e+00 4.701122e+00 
6.859800e+00 4.651306e+00 
6.894470e+00 4.603929e+00 
6.929140e+00 4.557246e+00 
6.963800e+00 4.511218e+00 
6.999070e+00 4.465037e+00 
7.033730e+00 4.420407e+00 
7.068400e+00 4.376371e+00 
7.103660e+00 4.332195e+00 
7.138330e+00 4.289389e+00 
7.173600e+00 4.246516e+00 
7.208260e+00 4.204950e+00 
7.243530e+00 4.163219e+00 
7.277600e+00 4.123519e+00 
7.312860e+00 4.083044e+00 
7.348120e+00 4.043108e+00 
7.382790e+00 4.004355e+00 
7.417460e+00 3.966217e+00 
7.452720e+00 3.927991e+00 
7.487390e+00 3.890892e+00 
7.522650e+00 3.853648e+00 
7.557320e+00 3.817594e+00 
7.591990e+00 3.782031e+00 
7.627250e+00 3.746324e+00 
7.662510e+00 3.711072e+00 
7.697180e+00 3.676968e+00 
7.731850e+00 3.643334e+00 
7.766510e+00 3.610127e+00 
7.801180e+00 3.577319e+00 
7.836440e+00 3.544448e+00 
7.871110e+00 3.512575e+00 
7.906380e+00 3.480549e+00 
7.941040e+00 3.449461e+00 
7.976310e+00 3.418275e+00 
8.011570e+00 3.387553e+00 
8.046240e+00 3.357709e+00 
8.080900e+00 3.328230e+00 
8.115570e+00 3.299122e+00 
8.150830e+00 3.269985e+00 
8.185500e+00 3.241676e+00 
8.220770e+00 3.213217e+00 
8.255430e+00 3.185580e+00 
8.290100e+00 3.158390e+00 
8.324770e+00 3.131530e+00 
8.359430e+00 3.104987e+00 
8.394700e+00 3.078290e+00 
8.429960e+00 3.051974e+00 
8.464630e+00 3.026460e+00 
8.499890e+00 3.000809e+00 
8.534560e+00 2.975873e+00 
8.569200e+00 2.951239e+00 
