# Parameters:
# omega_b = 0.023059, omega_m = 0.122205, n_s = 0.963386, h = 66.338583, w = -1.000000, sigma_8 = 0.838583
# z = 1.700000
#
# k[1/Mpc] # P(k):
8.694000e-04 6.169356e+03 
2.077466e-03 1.297910e+04 
3.285532e-03 1.808380e+04 
4.493598e-03 2.183144e+04 
5.701664e-03 2.444744e+04 
6.909730e-03 2.614817e+04 
8.117797e-03 2.715771e+04 
9.325863e-03 2.759107e+04 
1.053393e-02 2.755731e+04 
1.174199e-02 2.715355e+04 
1.295006e-02 2.644335e+04 
1.415813e-02 2.550945e+04 
1.536619e-02 2.442257e+04 
1.657426e-02 2.323189e+04 
1.778233e-02 2.197989e+04 
1.899039e-02 2.072603e+04 
2.019846e-02 1.950145e+04 
2.140652e-02 1.833159e+04 
2.261459e-02 1.723026e+04 
2.382266e-02 1.621194e+04 
2.503072e-02 1.528436e+04 
2.623879e-02 1.444786e+04 
2.744685e-02 1.370217e+04 
2.865492e-02 1.304292e+04 
2.986299e-02 1.246301e+04 
3.100100e-02 1.198635e+04 
3.220400e-02 1.154714e+04 
3.288100e-02 1.132823e+04 
3.424300e-02 1.093813e+04 
3.555100e-02 1.061620e+04 
3.686000e-02 1.033670e+04 
3.795000e-02 1.012854e+04 
3.929100e-02 9.895972e+03 
4.039800e-02 9.714956e+03 
4.164000e-02 9.518146e+03 
4.294400e-02 9.307309e+03 
4.415000e-02 9.108988e+03 
4.542900e-02 8.883266e+03 
4.660900e-02 8.666702e+03 
4.782300e-02 8.422411e+03 
4.892900e-02 8.190871e+03 
5.031200e-02 7.886120e+03 
5.155900e-02 7.598009e+03 
5.238100e-02 7.404206e+03 
5.378200e-02 7.070967e+03 
5.513400e-02 6.749863e+03 
5.627600e-02 6.484261e+03 
5.735300e-02 6.242965e+03 
5.870100e-02 5.957972e+03 
5.988700e-02 5.726296e+03 
6.113500e-02 5.502778e+03 
6.225900e-02 5.319876e+03 
6.340100e-02 5.150688e+03 
6.480200e-02 4.962107e+03 
6.601100e-02 4.816104e+03 
6.725500e-02 4.679439e+03 
6.829100e-02 4.576412e+03 
6.958600e-02 4.458256e+03 
7.071100e-02 4.366176e+03 
7.192300e-02 4.276562e+03 
7.307400e-02 4.199867e+03 
7.412300e-02 4.136257e+03 
7.550400e-02 4.060911e+03 
7.663100e-02 4.004331e+03 
7.791200e-02 3.944685e+03 
7.912700e-02 3.890324e+03 
8.027600e-02 3.839584e+03 
8.138400e-02 3.790517e+03 
8.272200e-02 3.729907e+03 
8.406100e-02 3.666785e+03 
8.534100e-02 3.602106e+03 
8.653800e-02 3.537510e+03 
8.759800e-02 3.478001e+03 
8.900300e-02 3.395274e+03 
9.009000e-02 3.328018e+03 
9.113300e-02 3.260749e+03 
9.239600e-02 3.178093e+03 
9.358000e-02 3.098920e+03 
9.496100e-02 3.004936e+03 
9.608400e-02 2.929152e+03 
9.727500e-02 2.849977e+03 
9.852600e-02 2.767923e+03 
9.973800e-02 2.691397e+03 
1.009000e-01 2.620669e+03 
1.020900e-01 2.552686e+03 
1.034000e-01 2.482080e+03 
1.046000e-01 2.421389e+03 
1.057200e-01 2.370456e+03 
1.069100e-01 2.319505e+03 
1.082500e-01 2.268684e+03 
1.093900e-01 2.229896e+03 
1.105400e-01 2.193634e+03 
1.116900e-01 2.162486e+03 
1.129600e-01 2.130332e+03 
1.142000e-01 2.102974e+03 
1.153300e-01 2.079537e+03 
1.166400e-01 2.054406e+03 
1.177800e-01 2.033451e+03 
1.190000e-01 2.011742e+03 
1.201200e-01 1.991272e+03 
1.213400e-01 1.969322e+03 
1.227100e-01 1.942373e+03 
1.238900e-01 1.918963e+03 
1.250700e-01 1.893496e+03 
1.263200e-01 1.866053e+03 
1.275500e-01 1.837246e+03 
1.287500e-01 1.808619e+03 
1.299900e-01 1.777865e+03 
1.311300e-01 1.749395e+03 
1.323500e-01 1.718346e+03 
1.335900e-01 1.687081e+03 
1.347100e-01 1.658867e+03 
1.359800e-01 1.627552e+03 
1.372100e-01 1.597794e+03 
1.384300e-01 1.569141e+03 
1.395700e-01 1.543328e+03 
1.407700e-01 1.516870e+03 
1.420300e-01 1.490692e+03 
1.432800e-01 1.465339e+03 
1.444500e-01 1.443367e+03 
1.456300e-01 1.421682e+03 
1.468900e-01 1.400016e+03 
1.480500e-01 1.380787e+03 
1.491700e-01 1.363055e+03 
1.503800e-01 1.344874e+03 
1.516400e-01 1.326499e+03 
1.528200e-01 1.310354e+03 
1.540200e-01 1.294256e+03 
1.551900e-01 1.279296e+03 
1.564300e-01 1.263852e+03 
1.576600e-01 1.248942e+03 
1.588700e-01 1.234688e+03 
1.600900e-01 1.220584e+03 
1.612700e-01 1.207125e+03 
1.625400e-01 1.192911e+03 
1.637600e-01 1.179315e+03 
1.649500e-01 1.166179e+03 
1.662200e-01 1.152344e+03 
1.674000e-01 1.139302e+03 
1.685000e-01 1.127354e+03 
1.697500e-01 1.113731e+03 
1.710300e-01 1.099762e+03 
1.722200e-01 1.087014e+03 
1.734400e-01 1.073672e+03 
1.746400e-01 1.060764e+03 
1.758700e-01 1.047653e+03 
1.770900e-01 1.034644e+03 
1.782700e-01 1.022284e+03 
1.794600e-01 1.009927e+03 
1.807000e-01 9.972079e+02 
1.819100e-01 9.850178e+02 
1.830100e-01 9.741470e+02 
1.842200e-01 9.623923e+02 
1.855000e-01 9.501873e+02 
1.867000e-01 9.391409e+02 
1.879200e-01 9.281009e+02 
1.890900e-01 9.177364e+02 
1.902800e-01 9.076083e+02 
1.915200e-01 8.972295e+02 
1.926900e-01 8.876741e+02 
1.939000e-01 8.782024e+02 
1.951700e-01 8.684243e+02 
1.963100e-01 8.598632e+02 
1.975100e-01 8.511942e+02 
1.987800e-01 8.421655e+02 
2.000100e-01 8.336236e+02 
2.012500e-01 8.252924e+02 
2.023400e-01 8.180763e+02 
2.036100e-01 8.098131e+02 
2.048900e-01 8.016963e+02 
2.060400e-01 7.945131e+02 
2.072200e-01 7.872480e+02 
2.084200e-01 7.799720e+02 
2.096900e-01 7.723866e+02 
2.109200e-01 7.651506e+02 
2.121100e-01 7.581827e+02 
2.132700e-01 7.514821e+02 
2.145200e-01 7.443649e+02 
2.157200e-01 7.375571e+02 
2.168800e-01 7.310336e+02 
2.180700e-01 7.244337e+02 
2.193400e-01 7.174465e+02 
2.206000e-01 7.105334e+02 
2.217500e-01 7.043121e+02 
2.229500e-01 6.979084e+02 
2.241400e-01 6.915340e+02 
2.253500e-01 6.851390e+02 
2.264900e-01 6.791949e+02 
2.277100e-01 6.728778e+02 
2.289900e-01 6.662983e+02 
2.301500e-01 6.604179e+02 
2.313600e-01 6.543654e+02 
2.325600e-01 6.483898e+02 
2.337700e-01 6.424457e+02 
2.350000e-01 6.364854e+02 
2.362000e-01 6.307377e+02 
2.374100e-01 6.250061e+02 
2.386500e-01 6.192115e+02 
2.399100e-01 6.134039e+02 
2.410400e-01 6.082732e+02 
2.422500e-01 6.028501e+02 
2.435000e-01 5.973220e+02 
2.447300e-01 5.919612e+02 
2.458700e-01 5.870815e+02 
2.470600e-01 5.820507e+02 
2.483300e-01 5.767514e+02 
2.495600e-01 5.717087e+02 
2.507600e-01 5.668819e+02 
2.519600e-01 5.621152e+02 
2.532200e-01 5.571737e+02 
2.543700e-01 5.527563e+02 
2.555500e-01 5.483027e+02 
2.568000e-01 5.436429e+02 
2.580100e-01 5.391883e+02 
2.592400e-01 5.347594e+02 
2.604100e-01 5.306162e+02 
2.616100e-01 5.264167e+02 
2.628400e-01 5.221637e+02 
2.640600e-01 5.180401e+02 
2.652200e-01 5.141821e+02 
2.664300e-01 5.102040e+02 
2.676500e-01 5.062400e+02 
2.688400e-01 5.024463e+02 
2.700700e-01 4.985877e+02 
2.712400e-01 4.949592e+02 
2.724800e-01 4.911573e+02 
2.736700e-01 4.875685e+02 
2.748800e-01 4.839787e+02 
2.761000e-01 4.804001e+02 
2.773200e-01 4.768619e+02 
2.785400e-01 4.733707e+02 
2.797000e-01 4.701022e+02 
2.808900e-01 4.667852e+02 
2.821400e-01 4.633395e+02 
2.833900e-01 4.599333e+02 
2.845500e-01 4.568162e+02 
2.857800e-01 4.535464e+02 
2.870300e-01 4.502603e+02 
2.882100e-01 4.471917e+02 
2.893900e-01 4.441603e+02 
2.906300e-01 4.410115e+02 
2.918900e-01 4.378471e+02 
2.930500e-01 4.349646e+02 
2.942500e-01 4.320140e+02 
2.954200e-01 4.291685e+02 
2.966500e-01 4.262082e+02 
2.978900e-01 4.232555e+02 
2.990400e-01 4.205452e+02 
3.002700e-01 4.176773e+02 
3.015100e-01 4.148172e+02 
3.026800e-01 4.121462e+02 
3.038500e-01 4.095015e+02 
3.050300e-01 4.068605e+02 
3.062600e-01 4.041367e+02 
3.075000e-01 4.014191e+02 
3.087000e-01 3.988158e+02 
3.099100e-01 3.962170e+02 
3.111200e-01 3.936455e+02 
3.123100e-01 3.911441e+02 
3.135300e-01 3.886048e+02 
3.147300e-01 3.861318e+02 
3.159900e-01 3.835611e+02 
3.171800e-01 3.811606e+02 
3.183700e-01 3.787852e+02 
3.196300e-01 3.762948e+02 
3.208400e-01 3.739269e+02 
3.220300e-01 3.716204e+02 
3.232000e-01 3.693785e+02 
3.244300e-01 3.670458e+02 
3.256700e-01 3.647170e+02 
3.269200e-01 3.623924e+02 
3.280800e-01 3.602555e+02 
3.292500e-01 3.581264e+02 
3.304800e-01 3.559111e+02 
3.317100e-01 3.537168e+02 
3.328900e-01 3.516313e+02 
3.340700e-01 3.495646e+02 
3.353600e-01 3.473335e+02 
3.365300e-01 3.453315e+02 
3.377100e-01 3.433304e+02 
3.389200e-01 3.412969e+02 
3.401600e-01 3.392323e+02 
3.413700e-01 3.372427e+02 
3.425300e-01 3.353568e+02 
3.437700e-01 3.333589e+02 
3.449800e-01 3.314270e+02 
3.461800e-01 3.295282e+02 
3.473600e-01 3.276803e+02 
3.485800e-01 3.257940e+02 
3.498100e-01 3.239092e+02 
3.510200e-01 3.220716e+02 
3.522000e-01 3.202951e+02 
3.533900e-01 3.185188e+02 
3.546400e-01 3.166796e+02 
3.558400e-01 3.149300e+02 
3.570600e-01 3.131666e+02 
3.582700e-01 3.114328e+02 
3.595000e-01 3.096857e+02 
3.607100e-01 3.079877e+02 
3.618900e-01 3.063503e+02 
3.631200e-01 3.046580e+02 
3.643200e-01 3.030210e+02 
3.655500e-01 3.013574e+02 
3.667300e-01 2.997747e+02 
3.679500e-01 2.981625e+02 
3.691900e-01 2.965378e+02 
3.703600e-01 2.950175e+02 
3.715700e-01 2.934580e+02 
3.727700e-01 2.919242e+02 
3.739900e-01 2.903808e+02 
3.752000e-01 2.888685e+02 
3.763900e-01 2.873933e+02 
3.775800e-01 2.859299e+02 
3.788200e-01 2.844175e+02 
3.800300e-01 2.829537e+02 
3.812100e-01 2.815429e+02 
3.824200e-01 2.801112e+02 
3.836100e-01 2.787144e+02 
3.848600e-01 2.772589e+02 
3.860400e-01 2.758959e+02 
3.872400e-01 2.745206e+02 
3.884600e-01 2.731398e+02 
3.896500e-01 2.718058e+02 
3.908700e-01 2.704488e+02 
3.920600e-01 2.691355e+02 
3.933100e-01 2.677669e+02 
3.945300e-01 2.664417e+02 
3.957200e-01 2.651657e+02 
3.969300e-01 2.638800e+02 
3.981700e-01 2.625727e+02 
3.993500e-01 2.613382e+02 
4.094840e-01 2.511389e+02 
4.272360e-01 2.349174e+02 
4.454600e-01 2.201078e+02 
4.630560e-01 2.073182e+02 
4.804610e-01 1.959222e+02 
4.980690e-01 1.854948e+02 
5.159230e-01 1.758992e+02 
5.317440e-01 1.681205e+02 
5.489640e-01 1.603374e+02 
5.671990e-01 1.527903e+02 
5.838690e-01 1.464391e+02 
6.018840e-01 1.401089e+02 
6.202330e-01 1.341728e+02 
6.379250e-01 1.288739e+02 
6.545410e-01 1.242560e+02 
6.714560e-01 1.198668e+02 
6.892080e-01 1.155699e+02 
7.066010e-01 1.116459e+02 
7.240540e-01 1.079556e+02 
7.420450e-01 1.044006e+02 
7.593780e-01 1.011887e+02 
7.764720e-01 9.820613e+01 
7.942840e-01 9.527911e+01 
8.116170e-01 9.259616e+01 
8.288310e-01 9.007815e+01 
8.462240e-01 8.767052e+01 
8.631980e-01 8.544225e+01 
8.810700e-01 8.321561e+01 
8.989410e-01 8.110203e+01 
9.166330e-01 7.911289e+01 
9.345640e-01 7.719697e+01 
9.515980e-01 7.546009e+01 
9.688720e-01 7.377522e+01 
9.865640e-01 7.212722e+01 
1.031870e+00 6.821482e+01 
1.063490e+00 6.572164e+01 
1.097920e+00 6.320256e+01 
1.134370e+00 6.072635e+01 
1.167730e+00 5.861683e+01 
1.203830e+00 5.648113e+01 
1.240470e+00 5.445584e+01 
1.275790e+00 5.262526e+01 
1.309140e+00 5.099768e+01 
1.342970e+00 4.943079e+01 
1.378420e+00 4.788021e+01 
1.413200e+00 4.643950e+01 
1.448110e+00 4.506662e+01 
1.484090e+00 4.372210e+01 
1.518820e+00 4.248788e+01 
1.552880e+00 4.133276e+01 
1.588630e+00 4.017525e+01 
1.623230e+00 3.910509e+01 
1.657720e+00 3.808427e+01 
1.692450e+00 3.709996e+01 
1.726400e+00 3.617674e+01 
1.762200e+00 3.524137e+01 
1.797880e+00 3.434712e+01 
1.833270e+00 3.349588e+01 
1.869070e+00 3.266796e+01 
1.903200e+00 3.190767e+01 
1.937740e+00 3.116662e+01 
1.973190e+00 3.043361e+01 
2.007440e+00 2.975078e+01 
2.042160e+00 2.908165e+01 
2.077900e+00 2.841651e+01 
2.112390e+00 2.779756e+01 
2.146220e+00 2.720888e+01 
2.181600e+00 2.661371e+01 
2.216930e+00 2.603813e+01 
2.250760e+00 2.550465e+01 
2.286500e+00 2.495911e+01 
2.321770e+00 2.443764e+01 
2.355950e+00 2.394743e+01 
2.391280e+00 2.345501e+01 
2.426240e+00 2.298221e+01 
2.460670e+00 2.253062e+01 
2.495640e+00 2.208592e+01 
2.531080e+00 2.164727e+01 
2.566220e+00 2.122421e+01 
2.600830e+00 2.081939e+01 
2.635080e+00 2.043019e+01 
2.670340e+00 2.003989e+01 
2.705970e+00 1.965623e+01 
2.740040e+00 1.929931e+01 
2.774520e+00 1.894717e+01 
2.809730e+00 1.859652e+01 
2.844390e+00 1.826068e+01 
2.879960e+00 1.792509e+01 
2.914860e+00 1.760376e+01 
2.949410e+00 1.729387e+01 
2.984440e+00 1.698696e+01 
3.019760e+00 1.668518e+01 
3.054730e+00 1.639414e+01 
3.089030e+00 1.611478e+01 
3.124060e+00 1.583673e+01 
3.159560e+00 1.556186e+01 
3.194710e+00 1.529580e+01 
3.229010e+00 1.504263e+01 
3.263320e+00 1.479416e+01 
3.297930e+00 1.454965e+01 
3.332830e+00 1.430858e+01 
3.368040e+00 1.407095e+01 
3.403300e+00 1.383861e+01 
3.438450e+00 1.361181e+01 
3.473060e+00 1.339390e+01 
3.508440e+00 1.317518e+01 
3.543110e+00 1.296607e+01 
3.577470e+00 1.276306e+01 
3.613040e+00 1.255768e+01 
3.648120e+00 1.235899e+01 
3.682910e+00 1.216642e+01 
3.718050e+00 1.197602e+01 
3.753320e+00 1.178896e+01 
3.787980e+00 1.160871e+01 
3.822290e+00 1.143407e+01 
3.857020e+00 1.126083e+01 
3.891920e+00 1.109040e+01 
3.926650e+00 1.092402e+01 
3.961970e+00 1.075843e+01 
3.997360e+00 1.059574e+01 
4.031670e+00 1.044138e+01 
4.066330e+00 1.028822e+01 
4.101420e+00 1.013654e+01 
4.136200e+00 9.988673e+00 
4.170810e+00 9.844707e+00 
4.206250e+00 9.699968e+00 
4.241580e+00 9.558716e+00 
4.276300e+00 9.422462e+00 
4.310970e+00 9.289036e+00 
4.346120e+00 9.156373e+00 
4.380600e+00 9.028563e+00 
4.414730e+00 8.904609e+00 
4.450350e+00 8.777381e+00 
4.485320e+00 8.655052e+00 
4.519810e+00 8.536562e+00 
4.555430e+00 8.416540e+00 
4.590870e+00 8.299379e+00 
4.625480e+00 8.186879e+00 
4.659910e+00 8.077150e+00 
4.695230e+00 7.966559e+00 
4.729960e+00 7.859907e+00 
4.764450e+00 7.755917e+00 
4.799530e+00 7.651996e+00 
4.834910e+00 7.549210e+00 
4.869700e+00 7.449749e+00 
4.904370e+00 7.352442e+00 
4.939450e+00 7.255779e+00 
4.973940e+00 7.162372e+00 
5.008430e+00 7.070678e+00 
5.043810e+00 6.978184e+00 
5.078840e+00 6.888201e+00 
5.113500e+00 6.800788e+00 
5.148890e+00 6.713007e+00 
5.184210e+00 6.626990e+00 
5.219060e+00 6.543611e+00 
5.253660e+00 6.462196e+00 
5.288570e+00 6.381500e+00 
5.323420e+00 6.302268e+00 
5.358440e+00 6.223942e+00 
5.393590e+00 6.146701e+00 
5.428310e+00 6.071719e+00 
5.462800e+00 5.998500e+00 
5.497640e+00 5.925794e+00 
5.532670e+00 5.853884e+00 
5.567280e+00 5.784017e+00 
5.602000e+00 5.715099e+00 
5.637270e+00 5.646208e+00 
5.672410e+00 5.578711e+00 
5.707020e+00 5.513331e+00 
5.742040e+00 5.448281e+00 
5.777430e+00 5.383633e+00 
5.812210e+00 5.321139e+00 
5.846820e+00 5.259915e+00 
5.881610e+00 5.199349e+00 
5.916510e+00 5.139563e+00 
5.951600e+00 5.080430e+00 
5.986560e+00 5.022462e+00 
6.021830e+00 4.964907e+00 
6.056490e+00 4.909261e+00 
6.091160e+00 4.854483e+00 
6.125830e+00 4.800550e+00 
6.161090e+00 4.746554e+00 
6.195760e+00 4.694293e+00 
6.230420e+00 4.642840e+00 
6.265690e+00 4.591282e+00 
6.300950e+00 4.540620e+00 
6.335620e+00 4.491556e+00 
6.370880e+00 4.442406e+00 
6.405550e+00 4.394827e+00 
6.440220e+00 4.347960e+00 
6.475480e+00 4.301000e+00 
6.510150e+00 4.255533e+00 
6.544810e+00 4.210804e+00 
6.580080e+00 4.165950e+00 
6.614750e+00 4.122498e+00 
6.649410e+00 4.079731e+00 
6.684080e+00 4.037571e+00 
6.719340e+00 3.995306e+00 
6.754010e+00 3.954376e+00 
6.788680e+00 3.914106e+00 
6.823940e+00 3.873727e+00 
6.859800e+00 3.833245e+00 
6.894470e+00 3.794734e+00 
6.929140e+00 3.756780e+00 
6.963800e+00 3.719356e+00 
6.999070e+00 3.681802e+00 
7.033730e+00 3.645490e+00 
7.068400e+00 3.609657e+00 
7.103660e+00 3.573708e+00 
7.138330e+00 3.538866e+00 
7.173600e+00 3.503955e+00 
7.208260e+00 3.470107e+00 
7.243530e+00 3.436121e+00 
7.277600e+00 3.403782e+00 
7.312860e+00 3.370805e+00 
7.348120e+00 3.338264e+00 
7.382790e+00 3.306685e+00 
7.417460e+00 3.275595e+00 
7.452720e+00 3.244428e+00 
7.487390e+00 3.214177e+00 
7.522650e+00 3.183805e+00 
7.557320e+00 3.154395e+00 
7.591990e+00 3.125383e+00 
7.627250e+00 3.096250e+00 
7.662510e+00 3.067488e+00 
7.697180e+00 3.039653e+00 
7.731850e+00 3.012198e+00 
7.766510e+00 2.985088e+00 
7.801180e+00 2.958304e+00 
7.836440e+00 2.931461e+00 
7.871110e+00 2.905430e+00 
7.906380e+00 2.879272e+00 
7.941040e+00 2.853878e+00 
7.976310e+00 2.828399e+00 
8.011570e+00 2.803296e+00 
8.046240e+00 2.778909e+00 
8.080900e+00 2.754817e+00 
8.115570e+00 2.731027e+00 
8.150830e+00 2.707209e+00 
8.185500e+00 2.684066e+00 
8.220770e+00 2.660798e+00 
8.255430e+00 2.638201e+00 
8.290100e+00 2.615967e+00 
8.324770e+00 2.594001e+00 
8.359430e+00 2.572292e+00 
8.394700e+00 2.550456e+00 
8.429960e+00 2.528929e+00 
8.464630e+00 2.508056e+00 
8.499890e+00 2.487069e+00 
8.534560e+00 2.466666e+00 
8.569200e+00 2.446508e+00 
