# Parameters:
# omega_b = 0.023390, omega_m = 0.147283, n_s = 0.919291, h = 61.141732, w = -1.000000, sigma_8 = 0.874803
# z = 1.700000
#
# k[1/Mpc] # P(k):
8.694000e-04 4.601228e+03 
2.077466e-03 9.487253e+03 
3.285532e-03 1.320904e+04 
4.493598e-03 1.604482e+04 
5.701664e-03 1.813458e+04 
6.909730e-03 1.960828e+04 
8.117797e-03 2.060488e+04 
9.325863e-03 2.119544e+04 
1.053393e-02 2.144883e+04 
1.174199e-02 2.142766e+04 
1.295006e-02 2.117164e+04 
1.415813e-02 2.073408e+04 
1.536619e-02 2.016118e+04 
1.657426e-02 1.948435e+04 
1.778233e-02 1.873149e+04 
1.899039e-02 1.794452e+04 
2.019846e-02 1.714591e+04 
2.140652e-02 1.635589e+04 
2.261459e-02 1.558528e+04 
2.382266e-02 1.484789e+04 
2.503072e-02 1.415396e+04 
2.623879e-02 1.350763e+04 
2.744685e-02 1.291009e+04 
2.865492e-02 1.236429e+04 
2.986299e-02 1.186841e+04 
3.100100e-02 1.144624e+04 
3.220400e-02 1.104435e+04 
3.288100e-02 1.083797e+04 
3.424300e-02 1.046061e+04 
3.555100e-02 1.013999e+04 
3.686000e-02 9.854990e+03 
3.795000e-02 9.640100e+03 
3.929100e-02 9.399911e+03 
4.039800e-02 9.215938e+03 
4.164000e-02 9.020582e+03 
4.294400e-02 8.821499e+03 
4.415000e-02 8.641206e+03 
4.542900e-02 8.446512e+03 
4.660900e-02 8.265593e+03 
4.782300e-02 8.069186e+03 
4.892900e-02 7.886190e+03 
5.031200e-02 7.648661e+03 
5.155900e-02 7.425362e+03 
5.238100e-02 7.274868e+03 
5.378200e-02 7.014494e+03 
5.513400e-02 6.759762e+03 
5.627600e-02 6.544892e+03 
5.735300e-02 6.345440e+03 
5.870100e-02 6.103168e+03 
5.988700e-02 5.899686e+03 
6.113500e-02 5.696340e+03 
6.225900e-02 5.523333e+03 
6.340100e-02 5.357229e+03 
6.480200e-02 5.165655e+03 
6.601100e-02 5.010985e+03 
6.725500e-02 4.861478e+03 
6.829100e-02 4.744903e+03 
6.958600e-02 4.608281e+03 
7.071100e-02 4.498685e+03 
7.192300e-02 4.389567e+03 
7.307400e-02 4.294298e+03 
7.412300e-02 4.214172e+03 
7.550400e-02 4.118407e+03 
7.663100e-02 4.046674e+03 
7.791200e-02 3.972636e+03 
7.912700e-02 3.908040e+03 
8.027600e-02 3.850597e+03 
8.138400e-02 3.797747e+03 
8.272200e-02 3.736378e+03 
8.406100e-02 3.676458e+03 
8.534100e-02 3.619093e+03 
8.653800e-02 3.564386e+03 
8.759800e-02 3.515179e+03 
8.900300e-02 3.448179e+03 
9.009000e-02 3.394397e+03 
9.113300e-02 3.340691e+03 
9.239600e-02 3.274501e+03 
9.358000e-02 3.210589e+03 
9.496100e-02 3.133438e+03 
9.608400e-02 3.070207e+03 
9.727500e-02 3.003251e+03 
9.852600e-02 2.931463e+03 
9.973800e-02 2.863118e+03 
1.009000e-01 2.798786e+03 
1.020900e-01 2.733913e+03 
1.034000e-01 2.664871e+03 
1.046000e-01 2.603773e+03 
1.057200e-01 2.549397e+03 
1.069100e-01 2.493799e+03 
1.082500e-01 2.434807e+03 
1.093900e-01 2.387559e+03 
1.105400e-01 2.342024e+03 
1.116900e-01 2.299991e+03 
1.129600e-01 2.255699e+03 
1.142000e-01 2.215950e+03 
1.153300e-01 2.181643e+03 
1.166400e-01 2.144416e+03 
1.177800e-01 2.114235e+03 
1.190000e-01 2.083372e+03 
1.201200e-01 2.056958e+03 
1.213400e-01 2.029089e+03 
1.227100e-01 1.999722e+03 
1.238900e-01 1.975162e+03 
1.250700e-01 1.951420e+03 
1.263200e-01 1.926779e+03 
1.275500e-01 1.902927e+03 
1.287500e-01 1.879880e+03 
1.299900e-01 1.856115e+03 
1.311300e-01 1.834241e+03 
1.323500e-01 1.810577e+03 
1.335900e-01 1.786400e+03 
1.347100e-01 1.764153e+03 
1.359800e-01 1.738884e+03 
1.372100e-01 1.713776e+03 
1.384300e-01 1.688973e+03 
1.395700e-01 1.665199e+03 
1.407700e-01 1.640593e+03 
1.420300e-01 1.614106e+03 
1.432800e-01 1.588437e+03 
1.444500e-01 1.564163e+03 
1.456300e-01 1.540211e+03 
1.468900e-01 1.515082e+03 
1.480500e-01 1.492420e+03 
1.491700e-01 1.471132e+03 
1.503800e-01 1.448796e+03 
1.516400e-01 1.426193e+03 
1.528200e-01 1.406126e+03 
1.540200e-01 1.386135e+03 
1.551900e-01 1.367816e+03 
1.564300e-01 1.348981e+03 
1.576600e-01 1.331124e+03 
1.588700e-01 1.314442e+03 
1.600900e-01 1.297990e+03 
1.612700e-01 1.283153e+03 
1.625400e-01 1.267488e+03 
1.637600e-01 1.253043e+03 
1.649500e-01 1.239395e+03 
1.662200e-01 1.225126e+03 
1.674000e-01 1.212259e+03 
1.685000e-01 1.200467e+03 
1.697500e-01 1.187234e+03 
1.710300e-01 1.173871e+03 
1.722200e-01 1.161669e+03 
1.734400e-01 1.149063e+03 
1.746400e-01 1.136866e+03 
1.758700e-01 1.124447e+03 
1.770900e-01 1.112070e+03 
1.782700e-01 1.100304e+03 
1.794600e-01 1.088405e+03 
1.807000e-01 1.076064e+03 
1.819100e-01 1.064229e+03 
1.830100e-01 1.053417e+03 
1.842200e-01 1.041678e+03 
1.855000e-01 1.029469e+03 
1.867000e-01 1.018080e+03 
1.879200e-01 1.006694e+03 
1.890900e-01 9.959508e+02 
1.902800e-01 9.851830e+02 
1.915200e-01 9.741475e+02 
1.926900e-01 9.639271e+02 
1.939000e-01 9.536012e+02 
1.951700e-01 9.429414e+02 
1.963100e-01 9.335675e+02 
1.975100e-01 9.239654e+02 
1.987800e-01 9.139657e+02 
2.000100e-01 9.044923e+02 
2.012500e-01 8.952212e+02 
2.023400e-01 8.871919e+02 
2.036100e-01 8.780095e+02 
2.048900e-01 8.690336e+02 
2.060400e-01 8.610906e+02 
2.072200e-01 8.530664e+02 
2.084200e-01 8.451363e+02 
2.096900e-01 8.368692e+02 
2.109200e-01 8.289831e+02 
2.121100e-01 8.215182e+02 
2.132700e-01 8.143459e+02 
2.145200e-01 8.067273e+02 
2.157200e-01 7.995207e+02 
2.168800e-01 7.926513e+02 
2.180700e-01 7.857006e+02 
2.193400e-01 7.783702e+02 
2.206000e-01 7.711699e+02 
2.217500e-01 7.646890e+02 
2.229500e-01 7.580171e+02 
2.241400e-01 7.514053e+02 
2.253500e-01 7.447717e+02 
2.264900e-01 7.386047e+02 
2.277100e-01 7.320409e+02 
2.289900e-01 7.251937e+02 
2.301500e-01 7.190728e+02 
2.313600e-01 7.127712e+02 
2.325600e-01 7.064983e+02 
2.337700e-01 7.002574e+02 
2.350000e-01 6.939983e+02 
2.362000e-01 6.879308e+02 
2.374100e-01 6.818431e+02 
2.386500e-01 6.756877e+02 
2.399100e-01 6.695177e+02 
2.410400e-01 6.640078e+02 
2.422500e-01 6.581761e+02 
2.435000e-01 6.522310e+02 
2.447300e-01 6.464545e+02 
2.458700e-01 6.411524e+02 
2.470600e-01 6.356861e+02 
2.483300e-01 6.299278e+02 
2.495600e-01 6.244325e+02 
2.507600e-01 6.191506e+02 
2.519600e-01 6.139345e+02 
2.532200e-01 6.085272e+02 
2.543700e-01 6.036845e+02 
2.555500e-01 5.987959e+02 
2.568000e-01 5.936811e+02 
2.580100e-01 5.887916e+02 
2.592400e-01 5.839329e+02 
2.604100e-01 5.793887e+02 
2.616100e-01 5.747829e+02 
2.628400e-01 5.701185e+02 
2.640600e-01 5.656087e+02 
2.652200e-01 5.613945e+02 
2.664300e-01 5.570491e+02 
2.676500e-01 5.527192e+02 
2.688400e-01 5.485903e+02 
2.700700e-01 5.444004e+02 
2.712400e-01 5.404602e+02 
2.724800e-01 5.363317e+02 
2.736700e-01 5.324472e+02 
2.748800e-01 5.285748e+02 
2.761000e-01 5.247143e+02 
2.773200e-01 5.208972e+02 
2.785400e-01 5.171376e+02 
2.797000e-01 5.136323e+02 
2.808900e-01 5.100748e+02 
2.821400e-01 5.063790e+02 
2.833900e-01 5.027261e+02 
2.845500e-01 4.993989e+02 
2.857800e-01 4.959085e+02 
2.870300e-01 4.924003e+02 
2.882100e-01 4.891241e+02 
2.893900e-01 4.858942e+02 
2.906300e-01 4.825424e+02 
2.918900e-01 4.791736e+02 
2.930500e-01 4.761048e+02 
2.942500e-01 4.729641e+02 
2.954200e-01 4.699381e+02 
2.966500e-01 4.667897e+02 
2.978900e-01 4.636491e+02 
2.990400e-01 4.607661e+02 
3.002700e-01 4.577146e+02 
3.015100e-01 4.546709e+02 
3.026800e-01 4.518280e+02 
3.038500e-01 4.490130e+02 
3.050300e-01 4.462017e+02 
3.062600e-01 4.432981e+02 
3.075000e-01 4.404007e+02 
3.087000e-01 4.376250e+02 
3.099100e-01 4.348539e+02 
3.111200e-01 4.321096e+02 
3.123100e-01 4.294361e+02 
3.135300e-01 4.267220e+02 
3.147300e-01 4.240786e+02 
3.159900e-01 4.213304e+02 
3.171800e-01 4.187600e+02 
3.183700e-01 4.162137e+02 
3.196300e-01 4.135440e+02 
3.208400e-01 4.110054e+02 
3.220300e-01 4.085324e+02 
3.232000e-01 4.061244e+02 
3.244300e-01 4.036172e+02 
3.256700e-01 4.011139e+02 
3.269200e-01 3.986150e+02 
3.280800e-01 3.963177e+02 
3.292500e-01 3.940250e+02 
3.304800e-01 3.916381e+02 
3.317100e-01 3.892737e+02 
3.328900e-01 3.870264e+02 
3.340700e-01 3.847992e+02 
3.353600e-01 3.823923e+02 
3.365300e-01 3.802314e+02 
3.377100e-01 3.780713e+02 
3.389200e-01 3.758763e+02 
3.401600e-01 3.736474e+02 
3.413700e-01 3.714986e+02 
3.425300e-01 3.694611e+02 
3.437700e-01 3.673024e+02 
3.449800e-01 3.652149e+02 
3.461800e-01 3.631631e+02 
3.473600e-01 3.611663e+02 
3.485800e-01 3.591281e+02 
3.498100e-01 3.570914e+02 
3.510200e-01 3.551056e+02 
3.522000e-01 3.531857e+02 
3.533900e-01 3.512660e+02 
3.546400e-01 3.492800e+02 
3.558400e-01 3.473908e+02 
3.570600e-01 3.454867e+02 
3.582700e-01 3.436144e+02 
3.595000e-01 3.417275e+02 
3.607100e-01 3.398955e+02 
3.618900e-01 3.381302e+02 
3.631200e-01 3.363056e+02 
3.643200e-01 3.345406e+02 
3.655500e-01 3.327466e+02 
3.667300e-01 3.310399e+02 
3.679500e-01 3.293054e+02 
3.691900e-01 3.275573e+02 
3.703600e-01 3.259214e+02 
3.715700e-01 3.242433e+02 
3.727700e-01 3.225927e+02 
3.739900e-01 3.209335e+02 
3.752000e-01 3.193109e+02 
3.763900e-01 3.177280e+02 
3.775800e-01 3.161576e+02 
3.788200e-01 3.145345e+02 
3.800300e-01 3.129635e+02 
3.812100e-01 3.114521e+02 
3.824200e-01 3.099203e+02 
3.836100e-01 3.084256e+02 
3.848600e-01 3.068682e+02 
3.860400e-01 3.054095e+02 
3.872400e-01 3.039377e+02 
3.884600e-01 3.024634e+02 
3.896500e-01 3.010403e+02 
3.908700e-01 2.995927e+02 
3.920600e-01 2.981917e+02 
3.933100e-01 2.967314e+02 
3.945300e-01 2.953174e+02 
3.957200e-01 2.939600e+02 
3.969300e-01 2.925934e+02 
3.981700e-01 2.912037e+02 
3.993500e-01 2.898913e+02 
4.094840e-01 2.790599e+02 
4.272360e-01 2.619164e+02 
4.454600e-01 2.462932e+02 
4.630560e-01 2.327922e+02 
4.804610e-01 2.207252e+02 
4.980690e-01 2.096311e+02 
5.159230e-01 1.993620e+02 
5.317440e-01 1.909908e+02 
5.489640e-01 1.825636e+02 
5.671990e-01 1.743425e+02 
5.838690e-01 1.673913e+02 
6.018840e-01 1.604332e+02 
6.202330e-01 1.538806e+02 
6.379250e-01 1.480159e+02 
6.545410e-01 1.428900e+02 
6.714560e-01 1.380108e+02 
6.892080e-01 1.332260e+02 
7.066010e-01 1.288519e+02 
7.240540e-01 1.247342e+02 
7.420450e-01 1.207651e+02 
7.593780e-01 1.171775e+02 
7.764720e-01 1.138445e+02 
7.942840e-01 1.105726e+02 
8.116170e-01 1.075729e+02 
8.288310e-01 1.047566e+02 
8.462240e-01 1.020633e+02 
8.631980e-01 9.956951e+01 
8.810700e-01 9.707659e+01 
8.989410e-01 9.470907e+01 
9.166330e-01 9.247979e+01 
9.345640e-01 9.033152e+01 
9.515980e-01 8.838268e+01 
9.688720e-01 8.649058e+01 
9.865640e-01 8.463851e+01 
1.031870e+00 8.023409e+01 
1.063490e+00 7.742077e+01 
1.097920e+00 7.457272e+01 
1.134370e+00 7.176604e+01 
1.167730e+00 6.936932e+01 
1.203830e+00 6.693551e+01 
1.240470e+00 6.462190e+01 
1.275790e+00 6.252447e+01 
1.309140e+00 6.065555e+01 
1.342970e+00 5.885017e+01 
1.378420e+00 5.705996e+01 
1.413200e+00 5.539200e+01 
1.448110e+00 5.379853e+01 
1.484090e+00 5.223449e+01 
1.518820e+00 5.079521e+01 
1.552880e+00 4.944483e+01 
1.588630e+00 4.808885e+01 
1.623230e+00 4.683262e+01 
1.657720e+00 4.563203e+01 
1.692450e+00 4.447215e+01 
1.726400e+00 4.338207e+01 
1.762200e+00 4.227563e+01 
1.797880e+00 4.121602e+01 
1.833270e+00 4.020582e+01 
1.869070e+00 3.922168e+01 
1.903200e+00 3.831655e+01 
1.937740e+00 3.743317e+01 
1.973190e+00 3.655828e+01 
2.007440e+00 3.574226e+01 
2.042160e+00 3.494158e+01 
2.077900e+00 3.414473e+01 
2.112390e+00 3.340250e+01 
2.146220e+00 3.269569e+01 
2.181600e+00 3.198044e+01 
2.216930e+00 3.128803e+01 
2.250760e+00 3.064577e+01 
2.286500e+00 2.998849e+01 
2.321770e+00 2.935971e+01 
2.355950e+00 2.876817e+01 
2.391280e+00 2.817337e+01 
2.426240e+00 2.760194e+01 
2.460670e+00 2.705591e+01 
2.495640e+00 2.651798e+01 
2.531080e+00 2.598689e+01 
2.566220e+00 2.547443e+01 
2.600830e+00 2.498385e+01 
2.635080e+00 2.451201e+01 
2.670340e+00 2.403863e+01 
2.705970e+00 2.357314e+01 
2.740040e+00 2.313997e+01 
2.774520e+00 2.271240e+01 
2.809730e+00 2.228651e+01 
2.844390e+00 2.187852e+01 
2.879960e+00 2.147078e+01 
2.914860e+00 2.108024e+01 
2.949410e+00 2.070355e+01 
2.984440e+00 2.033038e+01 
3.019760e+00 1.996339e+01 
3.054730e+00 1.960945e+01 
3.089030e+00 1.926965e+01 
3.124060e+00 1.893146e+01 
3.159560e+00 1.859714e+01 
3.194710e+00 1.827350e+01 
3.229010e+00 1.796554e+01 
3.263320e+00 1.766328e+01 
3.297930e+00 1.736585e+01 
3.332830e+00 1.707262e+01 
3.368040e+00 1.678359e+01 
3.403300e+00 1.650104e+01 
3.438450e+00 1.622523e+01 
3.473060e+00 1.596025e+01 
3.508440e+00 1.569432e+01 
3.543110e+00 1.544012e+01 
3.577470e+00 1.519340e+01 
3.613040e+00 1.494383e+01 
3.648120e+00 1.470240e+01 
3.682910e+00 1.446846e+01 
3.718050e+00 1.423725e+01 
3.753320e+00 1.401012e+01 
3.787980e+00 1.379128e+01 
3.822290e+00 1.357930e+01 
3.857020e+00 1.336912e+01 
3.891920e+00 1.316236e+01 
3.926650e+00 1.296057e+01 
3.961970e+00 1.275980e+01 
3.997360e+00 1.256261e+01 
4.031670e+00 1.237556e+01 
4.066330e+00 1.219002e+01 
4.101420e+00 1.200632e+01 
4.136200e+00 1.182732e+01 
4.170810e+00 1.165308e+01 
4.206250e+00 1.147798e+01 
4.241580e+00 1.130713e+01 
4.276300e+00 1.114240e+01 
4.310970e+00 1.098114e+01 
4.346120e+00 1.082085e+01 
4.380600e+00 1.066648e+01 
4.414730e+00 1.051679e+01 
4.450350e+00 1.036325e+01 
4.485320e+00 1.021565e+01 
4.519810e+00 1.007276e+01 
4.555430e+00 9.928074e+00 
4.590870e+00 9.786871e+00 
4.625480e+00 9.651334e+00 
4.659910e+00 9.519157e+00 
4.695230e+00 9.386045e+00 
4.729960e+00 9.257709e+00 
4.764450e+00 9.132620e+00 
4.799530e+00 9.007673e+00 
4.834910e+00 8.884110e+00 
4.869700e+00 8.764621e+00 
4.904370e+00 8.647747e+00 
4.939450e+00 8.531684e+00 
4.973940e+00 8.419597e+00 
5.008430e+00 8.309583e+00 
5.043810e+00 8.198664e+00 
5.078840e+00 8.090793e+00 
5.113500e+00 7.986020e+00 
5.148890e+00 7.880891e+00 
5.184210e+00 7.777894e+00 
5.219060e+00 7.678084e+00 
5.253660e+00 7.580684e+00 
5.288570e+00 7.484156e+00 
5.323420e+00 7.389420e+00 
5.358440e+00 7.295811e+00 
5.393590e+00 7.203511e+00 
5.428310e+00 7.113969e+00 
5.462800e+00 7.026569e+00 
5.497640e+00 6.939793e+00 
5.532670e+00 6.854014e+00 
5.567280e+00 6.770695e+00 
5.602000e+00 6.688519e+00 
5.637270e+00 6.606432e+00 
5.672410e+00 6.526025e+00 
5.707020e+00 6.448151e+00 
5.742040e+00 6.370727e+00 
5.777430e+00 6.293801e+00 
5.812210e+00 6.219447e+00 
5.846820e+00 6.146643e+00 
5.881610e+00 6.074639e+00 
5.916510e+00 6.003570e+00 
5.951600e+00 5.933326e+00 
5.986560e+00 5.864490e+00 
6.021830e+00 5.796153e+00 
6.056490e+00 5.730110e+00 
6.091160e+00 5.665119e+00 
6.125830e+00 5.601138e+00 
6.161090e+00 5.537104e+00 
6.195760e+00 5.475165e+00 
6.230420e+00 5.414191e+00 
6.265690e+00 5.353102e+00 
6.300950e+00 5.293110e+00 
6.335620e+00 5.235018e+00 
6.370880e+00 5.176830e+00 
6.405550e+00 5.120530e+00 
6.440220e+00 5.065087e+00 
6.475480e+00 5.009540e+00 
6.510150e+00 4.955776e+00 
6.544810e+00 4.902916e+00 
6.580080e+00 4.849913e+00 
6.614750e+00 4.798571e+00 
6.649410e+00 4.748066e+00 
6.684080e+00 4.698286e+00 
6.719340e+00 4.648386e+00 
6.754010e+00 4.600076e+00 
6.788680e+00 4.552571e+00 
6.823940e+00 4.504942e+00 
6.859800e+00 4.457197e+00 
6.894470e+00 4.411793e+00 
6.929140e+00 4.367055e+00 
6.963800e+00 4.322946e+00 
6.999070e+00 4.278689e+00 
7.033730e+00 4.235920e+00 
7.068400e+00 4.193719e+00 
7.103660e+00 4.151385e+00 
7.138330e+00 4.110364e+00 
7.173600e+00 4.069280e+00 
7.208260e+00 4.029448e+00 
7.243530e+00 3.989458e+00 
7.277600e+00 3.951417e+00 
7.312860e+00 3.912635e+00 
7.348120e+00 3.874369e+00 
7.382790e+00 3.837238e+00 
7.417460e+00 3.800696e+00 
7.452720e+00 3.764073e+00 
7.487390e+00 3.728528e+00 
7.522650e+00 3.692845e+00 
7.557320e+00 3.658303e+00 
7.591990e+00 3.624232e+00 
7.627250e+00 3.590022e+00 
7.662510e+00 3.556250e+00 
7.697180e+00 3.523578e+00 
7.731850e+00 3.491359e+00 
7.766510e+00 3.459547e+00 
7.801180e+00 3.428119e+00 
7.836440e+00 3.396631e+00 
7.871110e+00 3.366101e+00 
7.906380e+00 3.335423e+00 
7.941040e+00 3.305645e+00 
7.976310e+00 3.275773e+00 
8.011570e+00 3.246348e+00 
8.046240e+00 3.217764e+00 
8.080900e+00 3.189529e+00 
8.115570e+00 3.161650e+00 
8.150830e+00 3.133745e+00 
8.185500e+00 3.106633e+00 
8.220770e+00 3.079377e+00 
8.255430e+00 3.052907e+00 
8.290100e+00 3.026871e+00 
8.324770e+00 3.001150e+00 
8.359430e+00 2.975733e+00 
8.394700e+00 2.950168e+00 
8.429960e+00 2.924969e+00 
8.464630e+00 2.900540e+00 
8.499890e+00 2.875978e+00 
8.534560e+00 2.852102e+00 
8.569200e+00 2.828515e+00 
