# Parameters:
# omega_b = 0.021941, omega_m = 0.153346, n_s = 1.029528, h = 74.370079, w = -1.000000, sigma_8 = 0.766142
# z = 1.700000
#
# k[1/Mpc] # P(k):
8.694000e-04 1.567571e+03 
2.077466e-03 3.573178e+03 
3.285532e-03 5.257693e+03 
4.493598e-03 6.639703e+03 
5.701664e-03 7.739701e+03 
6.909730e-03 8.587271e+03 
8.117797e-03 9.226406e+03 
9.325863e-03 9.679615e+03 
1.053393e-02 9.972189e+03 
1.174199e-02 1.012925e+04 
1.295006e-02 1.016659e+04 
1.415813e-02 1.010712e+04 
1.536619e-02 9.970540e+03 
1.657426e-02 9.769817e+03 
1.778233e-02 9.517895e+03 
1.899039e-02 9.234993e+03 
2.019846e-02 8.932361e+03 
2.140652e-02 8.620449e+03 
2.261459e-02 8.304986e+03 
2.382266e-02 7.994091e+03 
2.503072e-02 7.694451e+03 
2.623879e-02 7.409532e+03 
2.744685e-02 7.140690e+03 
2.865492e-02 6.891092e+03 
2.986299e-02 6.661000e+03 
3.100100e-02 6.462386e+03 
3.220400e-02 6.271087e+03 
3.288100e-02 6.171884e+03 
3.424300e-02 5.988987e+03 
3.555100e-02 5.831982e+03 
3.686000e-02 5.691110e+03 
3.795000e-02 5.584146e+03 
3.929100e-02 5.463776e+03 
4.039800e-02 5.371177e+03 
4.164000e-02 5.272469e+03 
4.294400e-02 5.171578e+03 
4.415000e-02 5.080112e+03 
4.542900e-02 4.981208e+03 
4.660900e-02 4.889193e+03 
4.782300e-02 4.789151e+03 
4.892900e-02 4.695636e+03 
5.031200e-02 4.573763e+03 
5.155900e-02 4.458524e+03 
5.238100e-02 4.380312e+03 
5.378200e-02 4.243570e+03 
5.513400e-02 4.106809e+03 
5.627600e-02 3.988053e+03 
5.735300e-02 3.873785e+03 
5.870100e-02 3.727919e+03 
5.988700e-02 3.598296e+03 
6.113500e-02 3.461821e+03 
6.225900e-02 3.340774e+03 
6.340100e-02 3.222041e+03 
6.480200e-02 3.084899e+03 
6.601100e-02 2.976732e+03 
6.725500e-02 2.876219e+03 
6.829100e-02 2.801753e+03 
6.958600e-02 2.718260e+03 
7.071100e-02 2.654720e+03 
7.192300e-02 2.594116e+03 
7.307400e-02 2.543274e+03 
7.412300e-02 2.501892e+03 
7.550400e-02 2.454224e+03 
7.663100e-02 2.419477e+03 
7.791200e-02 2.384743e+03 
7.912700e-02 2.355084e+03 
8.027600e-02 2.328963e+03 
8.138400e-02 2.304972e+03 
8.272200e-02 2.276919e+03 
8.406100e-02 2.249019e+03 
8.534100e-02 2.221398e+03 
8.653800e-02 2.194042e+03 
8.759800e-02 2.168731e+03 
8.900300e-02 2.133106e+03 
9.009000e-02 2.103493e+03 
9.113300e-02 2.072994e+03 
9.239600e-02 2.034620e+03 
9.358000e-02 1.996635e+03 
9.496100e-02 1.949527e+03 
9.608400e-02 1.910274e+03 
9.727500e-02 1.868226e+03 
9.852600e-02 1.822156e+03 
9.973800e-02 1.777986e+03 
1.009000e-01 1.736168e+03 
1.020900e-01 1.693620e+03 
1.034000e-01 1.648321e+03 
1.046000e-01 1.608228e+03 
1.057200e-01 1.572762e+03 
1.069100e-01 1.536652e+03 
1.082500e-01 1.498847e+03 
1.093900e-01 1.469038e+03 
1.105400e-01 1.440588e+03 
1.116900e-01 1.415150e+03 
1.129600e-01 1.388665e+03 
1.142000e-01 1.365795e+03 
1.153300e-01 1.346450e+03 
1.166400e-01 1.326088e+03 
1.177800e-01 1.310157e+03 
1.190000e-01 1.294147e+03 
1.201200e-01 1.280950e+03 
1.213400e-01 1.267122e+03 
1.227100e-01 1.252920e+03 
1.238900e-01 1.241046e+03 
1.250700e-01 1.229530e+03 
1.263200e-01 1.217452e+03 
1.275500e-01 1.205474e+03 
1.287500e-01 1.193620e+03 
1.299900e-01 1.180953e+03 
1.311300e-01 1.168919e+03 
1.323500e-01 1.155345e+03 
1.335900e-01 1.141054e+03 
1.347100e-01 1.127361e+03 
1.359800e-01 1.111489e+03 
1.372100e-01 1.095099e+03 
1.384300e-01 1.078704e+03 
1.395700e-01 1.062514e+03 
1.407700e-01 1.045725e+03 
1.420300e-01 1.027245e+03 
1.432800e-01 1.009352e+03 
1.444500e-01 9.923235e+02 
1.456300e-01 9.755372e+02 
1.468900e-01 9.580959e+02 
1.480500e-01 9.424259e+02 
1.491700e-01 9.279072e+02 
1.503800e-01 9.129240e+02 
1.516400e-01 8.978872e+02 
1.528200e-01 8.850545e+02 
1.540200e-01 8.722723e+02 
1.551900e-01 8.611177e+02 
1.564300e-01 8.497859e+02 
1.576600e-01 8.393297e+02 
1.588700e-01 8.299149e+02 
1.600900e-01 8.206495e+02 
1.612700e-01 8.127436e+02 
1.625400e-01 8.043920e+02 
1.637600e-01 7.968002e+02 
1.649500e-01 7.896920e+02 
1.662200e-01 7.822423e+02 
1.674000e-01 7.754387e+02 
1.685000e-01 7.692012e+02 
1.697500e-01 7.620178e+02 
1.710300e-01 7.545800e+02 
1.722200e-01 7.477867e+02 
1.734400e-01 7.402971e+02 
1.746400e-01 7.330297e+02 
1.758700e-01 7.254747e+02 
1.770900e-01 7.176352e+02 
1.782700e-01 7.101813e+02 
1.794600e-01 7.024310e+02 
1.807000e-01 6.942527e+02 
1.819100e-01 6.864109e+02 
1.830100e-01 6.790840e+02 
1.842200e-01 6.711029e+02 
1.855000e-01 6.628023e+02 
1.867000e-01 6.550074e+02 
1.879200e-01 6.472176e+02 
1.890900e-01 6.398794e+02 
1.902800e-01 6.325763e+02 
1.915200e-01 6.250939e+02 
1.926900e-01 6.181958e+02 
1.939000e-01 6.113238e+02 
1.951700e-01 6.042312e+02 
1.963100e-01 5.980341e+02 
1.975100e-01 5.917906e+02 
1.987800e-01 5.852892e+02 
2.000100e-01 5.791691e+02 
2.012500e-01 5.732701e+02 
2.023400e-01 5.681610e+02 
2.036100e-01 5.623368e+02 
2.048900e-01 5.567158e+02 
2.060400e-01 5.517411e+02 
2.072200e-01 5.467182e+02 
2.084200e-01 5.417900e+02 
2.096900e-01 5.366518e+02 
2.109200e-01 5.317497e+02 
2.121100e-01 5.271097e+02 
2.132700e-01 5.226510e+02 
2.145200e-01 5.179144e+02 
2.157200e-01 5.134208e+02 
2.168800e-01 5.091311e+02 
2.180700e-01 5.047902e+02 
2.193400e-01 5.002054e+02 
2.206000e-01 4.956899e+02 
2.217500e-01 4.916252e+02 
2.229500e-01 4.874402e+02 
2.241400e-01 4.832884e+02 
2.253500e-01 4.791223e+02 
2.264900e-01 4.752490e+02 
2.277100e-01 4.711357e+02 
2.289900e-01 4.668551e+02 
2.301500e-01 4.630281e+02 
2.313600e-01 4.590880e+02 
2.325600e-01 4.552028e+02 
2.337700e-01 4.513368e+02 
2.350000e-01 4.474590e+02 
2.362000e-01 4.437222e+02 
2.374100e-01 4.399993e+02 
2.386500e-01 4.362342e+02 
2.399100e-01 4.324593e+02 
2.410400e-01 4.291271e+02 
2.422500e-01 4.256042e+02 
2.435000e-01 4.220118e+02 
2.447300e-01 4.185265e+02 
2.458700e-01 4.153514e+02 
2.470600e-01 4.120768e+02 
2.483300e-01 4.086263e+02 
2.495600e-01 4.053366e+02 
2.507600e-01 4.021796e+02 
2.519600e-01 3.990609e+02 
2.532200e-01 3.958267e+02 
2.543700e-01 3.929214e+02 
2.555500e-01 3.899823e+02 
2.568000e-01 3.869062e+02 
2.580100e-01 3.839648e+02 
2.592400e-01 3.810179e+02 
2.604100e-01 3.782509e+02 
2.616100e-01 3.754457e+02 
2.628400e-01 3.726041e+02 
2.640600e-01 3.698246e+02 
2.652200e-01 3.672142e+02 
2.664300e-01 3.645220e+02 
2.676500e-01 3.618389e+02 
2.688400e-01 3.592518e+02 
2.700700e-01 3.566083e+02 
2.712400e-01 3.541220e+02 
2.724800e-01 3.515166e+02 
2.736700e-01 3.490445e+02 
2.748800e-01 3.465588e+02 
2.761000e-01 3.440807e+02 
2.773200e-01 3.416302e+02 
2.785400e-01 3.392059e+02 
2.797000e-01 3.369232e+02 
2.808900e-01 3.346065e+02 
2.821400e-01 3.321997e+02 
2.833900e-01 3.298197e+02 
2.845500e-01 3.276305e+02 
2.857800e-01 3.253340e+02 
2.870300e-01 3.230257e+02 
2.882100e-01 3.208702e+02 
2.893900e-01 3.187353e+02 
2.906300e-01 3.165147e+02 
2.918900e-01 3.142830e+02 
2.930500e-01 3.122500e+02 
2.942500e-01 3.101674e+02 
2.954200e-01 3.081546e+02 
2.966500e-01 3.060604e+02 
2.978900e-01 3.039715e+02 
2.990400e-01 3.020540e+02 
3.002700e-01 3.000221e+02 
3.015100e-01 2.979942e+02 
3.026800e-01 2.961003e+02 
3.038500e-01 2.942250e+02 
3.050300e-01 2.923522e+02 
3.062600e-01 2.904173e+02 
3.075000e-01 2.884867e+02 
3.087000e-01 2.866373e+02 
3.099100e-01 2.847910e+02 
3.111200e-01 2.829634e+02 
3.123100e-01 2.811842e+02 
3.135300e-01 2.793781e+02 
3.147300e-01 2.776191e+02 
3.159900e-01 2.757905e+02 
3.171800e-01 2.740817e+02 
3.183700e-01 2.723900e+02 
3.196300e-01 2.706163e+02 
3.208400e-01 2.689298e+02 
3.220300e-01 2.672869e+02 
3.232000e-01 2.656898e+02 
3.244300e-01 2.640278e+02 
3.256700e-01 2.623685e+02 
3.269200e-01 2.607122e+02 
3.280800e-01 2.591895e+02 
3.292500e-01 2.576721e+02 
3.304800e-01 2.560929e+02 
3.317100e-01 2.545287e+02 
3.328900e-01 2.530420e+02 
3.340700e-01 2.515688e+02 
3.353600e-01 2.499784e+02 
3.365300e-01 2.485513e+02 
3.377100e-01 2.471248e+02 
3.389200e-01 2.456752e+02 
3.401600e-01 2.442033e+02 
3.413700e-01 2.427855e+02 
3.425300e-01 2.414421e+02 
3.437700e-01 2.400188e+02 
3.449800e-01 2.386424e+02 
3.461800e-01 2.372896e+02 
3.473600e-01 2.359734e+02 
3.485800e-01 2.346304e+02 
3.498100e-01 2.332885e+02 
3.510200e-01 2.319802e+02 
3.522000e-01 2.307152e+02 
3.533900e-01 2.294505e+02 
3.546400e-01 2.281425e+02 
3.558400e-01 2.268982e+02 
3.570600e-01 2.256442e+02 
3.582700e-01 2.244111e+02 
3.595000e-01 2.231685e+02 
3.607100e-01 2.219616e+02 
3.618900e-01 2.207982e+02 
3.631200e-01 2.195958e+02 
3.643200e-01 2.184327e+02 
3.655500e-01 2.172506e+02 
3.667300e-01 2.161259e+02 
3.679500e-01 2.149815e+02 
3.691900e-01 2.138282e+02 
3.703600e-01 2.127489e+02 
3.715700e-01 2.116418e+02 
3.727700e-01 2.105529e+02 
3.739900e-01 2.094578e+02 
3.752000e-01 2.083857e+02 
3.763900e-01 2.073399e+02 
3.775800e-01 2.063024e+02 
3.788200e-01 2.052301e+02 
3.800300e-01 2.041923e+02 
3.812100e-01 2.031923e+02 
3.824200e-01 2.021777e+02 
3.836100e-01 2.011878e+02 
3.848600e-01 2.001563e+02 
3.860400e-01 1.991903e+02 
3.872400e-01 1.982156e+02 
3.884600e-01 1.972375e+02 
3.896500e-01 1.962927e+02 
3.908700e-01 1.953318e+02 
3.920600e-01 1.944017e+02 
3.933100e-01 1.934323e+02 
3.945300e-01 1.924937e+02 
3.957200e-01 1.915900e+02 
3.969300e-01 1.906795e+02 
3.981700e-01 1.897536e+02 
3.993500e-01 1.888793e+02 
4.094840e-01 1.816558e+02 
4.272360e-01 1.701509e+02 
4.454600e-01 1.596173e+02 
4.630560e-01 1.504846e+02 
4.804610e-01 1.423104e+02 
4.980690e-01 1.347939e+02 
5.159230e-01 1.278473e+02 
5.317440e-01 1.221934e+02 
5.489640e-01 1.165185e+02 
5.671990e-01 1.109962e+02 
5.838690e-01 1.063372e+02 
6.018840e-01 1.016802e+02 
6.202330e-01 9.730455e+01 
6.379250e-01 9.339517e+01 
6.545410e-01 8.998361e+01 
6.714560e-01 8.673819e+01 
6.892080e-01 8.356134e+01 
7.066010e-01 8.065821e+01 
7.240540e-01 7.793026e+01 
7.420450e-01 7.530238e+01 
7.593780e-01 7.293090e+01 
7.764720e-01 7.072951e+01 
7.942840e-01 6.857210e+01 
8.116170e-01 6.659682e+01 
8.288310e-01 6.474657e+01 
8.462240e-01 6.297969e+01 
8.631980e-01 6.134749e+01 
8.810700e-01 5.971999e+01 
8.989410e-01 5.817863e+01 
9.166330e-01 5.673180e+01 
9.345640e-01 5.533941e+01 
9.515980e-01 5.408060e+01 
9.688720e-01 5.286364e+01 
9.865640e-01 5.167583e+01 
1.031870e+00 4.886865e+01 
1.063490e+00 4.708882e+01 
1.097920e+00 4.529927e+01 
1.134370e+00 4.354867e+01 
1.167730e+00 4.206398e+01 
1.203830e+00 4.056870e+01 
1.240470e+00 3.915650e+01 
1.275790e+00 3.788465e+01 
1.309140e+00 3.675757e+01 
1.342970e+00 3.567856e+01 
1.378420e+00 3.461287e+01 
1.413200e+00 3.362567e+01 
1.448110e+00 3.268683e+01 
1.484090e+00 3.177077e+01 
1.518820e+00 3.093114e+01 
1.552880e+00 3.014676e+01 
1.588630e+00 2.936191e+01 
1.623230e+00 2.863777e+01 
1.657720e+00 2.794812e+01 
1.692450e+00 2.728366e+01 
1.726400e+00 2.666033e+01 
1.762200e+00 2.602959e+01 
1.797880e+00 2.542744e+01 
1.833270e+00 2.485425e+01 
1.869070e+00 2.429654e+01 
1.903200e+00 2.378525e+01 
1.937740e+00 2.328650e+01 
1.973190e+00 2.279265e+01 
2.007440e+00 2.233234e+01 
2.042160e+00 2.188172e+01 
2.077900e+00 2.143357e+01 
2.112390e+00 2.101559e+01 
2.146220e+00 2.061828e+01 
2.181600e+00 2.021613e+01 
2.216930e+00 1.982717e+01 
2.250760e+00 1.946612e+01 
2.286500e+00 1.909633e+01 
2.321770e+00 1.874257e+01 
2.355950e+00 1.840974e+01 
2.391280e+00 1.807501e+01 
2.426240e+00 1.775330e+01 
2.460670e+00 1.744553e+01 
2.495640e+00 1.714185e+01 
2.531080e+00 1.684171e+01 
2.566220e+00 1.655228e+01 
2.600830e+00 1.627495e+01 
2.635080e+00 1.600776e+01 
2.670340e+00 1.573887e+01 
2.705970e+00 1.547443e+01 
2.740040e+00 1.522818e+01 
2.774520e+00 1.498462e+01 
2.809730e+00 1.474176e+01 
2.844390e+00 1.450876e+01 
2.879960e+00 1.427522e+01 
2.914860e+00 1.405119e+01 
2.949410e+00 1.383487e+01 
2.984440e+00 1.362028e+01 
3.019760e+00 1.340888e+01 
3.054730e+00 1.320471e+01 
3.089030e+00 1.300799e+01 
3.124060e+00 1.281183e+01 
3.159560e+00 1.261743e+01 
3.194710e+00 1.242893e+01 
3.229010e+00 1.224934e+01 
3.263320e+00 1.207255e+01 
3.297930e+00 1.189832e+01 
3.332830e+00 1.172615e+01 
3.368040e+00 1.155596e+01 
3.403300e+00 1.138920e+01 
3.438450e+00 1.122598e+01 
3.473060e+00 1.106897e+01 
3.508440e+00 1.091091e+01 
3.543110e+00 1.075957e+01 
3.577470e+00 1.061192e+01 
3.613040e+00 1.046242e+01 
3.648120e+00 1.031759e+01 
3.682910e+00 1.017686e+01 
3.718050e+00 1.003713e+01 
3.753320e+00 9.899684e+00 
3.787980e+00 9.767029e+00 
3.822290e+00 9.638212e+00 
3.857020e+00 9.510036e+00 
3.891920e+00 9.383697e+00 
3.926650e+00 9.260015e+00 
3.961970e+00 9.136684e+00 
3.997360e+00 9.015054e+00 
4.031670e+00 8.899515e+00 
4.066330e+00 8.784541e+00 
4.101420e+00 8.670580e+00 
4.136200e+00 8.559001e+00 
4.170810e+00 8.450283e+00 
4.206250e+00 8.340567e+00 
4.241580e+00 8.233352e+00 
4.276300e+00 8.129617e+00 
4.310970e+00 8.027829e+00 
4.346120e+00 7.926416e+00 
4.380600e+00 7.828425e+00 
4.414730e+00 7.733311e+00 
4.450350e+00 7.635315e+00 
4.485320e+00 7.541020e+00 
4.519810e+00 7.449304e+00 
4.555430e+00 7.356193e+00 
4.590870e+00 7.265169e+00 
4.625480e+00 7.177573e+00 
4.659910e+00 7.092071e+00 
4.695230e+00 7.005489e+00 
4.729960e+00 6.921877e+00 
4.764450e+00 6.840151e+00 
4.799530e+00 6.758185e+00 
4.834910e+00 6.677053e+00 
4.869700e+00 6.598321e+00 
4.904370e+00 6.521211e+00 
4.939450e+00 6.444471e+00 
4.973940e+00 6.370040e+00 
5.008430e+00 6.296923e+00 
5.043810e+00 6.222962e+00 
5.078840e+00 6.150867e+00 
5.113500e+00 6.080783e+00 
5.148890e+00 6.010023e+00 
5.184210e+00 5.940624e+00 
5.219060e+00 5.873257e+00 
5.253660e+00 5.807295e+00 
5.288570e+00 5.741871e+00 
5.323420e+00 5.677497e+00 
5.358440e+00 5.613713e+00 
5.393590e+00 5.550770e+00 
5.428310e+00 5.489425e+00 
5.462800e+00 5.429378e+00 
5.497640e+00 5.369715e+00 
5.532670e+00 5.310506e+00 
5.567280e+00 5.252894e+00 
5.602000e+00 5.196029e+00 
5.637270e+00 5.138992e+00 
5.672410e+00 5.083037e+00 
5.707020e+00 5.028804e+00 
5.742040e+00 4.974628e+00 
5.777430e+00 4.920716e+00 
5.812210e+00 4.868570e+00 
5.846820e+00 4.817330e+00 
5.881610e+00 4.766580e+00 
5.916510e+00 4.716455e+00 
5.951600e+00 4.666709e+00 
5.986560e+00 4.617853e+00 
6.021830e+00 4.569318e+00 
6.056490e+00 4.522265e+00 
6.091160e+00 4.475833e+00 
6.125830e+00 4.430094e+00 
6.161090e+00 4.384238e+00 
6.195760e+00 4.339750e+00 
6.230420e+00 4.295928e+00 
6.265690e+00 4.251987e+00 
6.300950e+00 4.208580e+00 
6.335620e+00 4.166522e+00 
6.370880e+00 4.124369e+00 
6.405550e+00 4.083466e+00 
6.440220e+00 4.043124e+00 
6.475480e+00 4.002682e+00 
6.510150e+00 3.963463e+00 
6.544810e+00 3.924757e+00 
6.580080e+00 3.885926e+00 
6.614750e+00 3.848291e+00 
6.649410e+00 3.811142e+00 
6.684080e+00 3.774485e+00 
6.719340e+00 3.737721e+00 
6.754010e+00 3.702058e+00 
6.788680e+00 3.666852e+00 
6.823940e+00 3.631536e+00 
6.859800e+00 3.596116e+00 
6.894470e+00 3.562309e+00 
6.929140e+00 3.528943e+00 
6.963800e+00 3.496030e+00 
6.999070e+00 3.462985e+00 
7.033730e+00 3.430938e+00 
7.068400e+00 3.399302e+00 
7.103660e+00 3.367551e+00 
7.138330e+00 3.336739e+00 
7.173600e+00 3.305799e+00 
7.208260e+00 3.275789e+00 
7.243530e+00 3.245646e+00 
7.277600e+00 3.216895e+00 
7.312860e+00 3.187512e+00 
7.348120e+00 3.158507e+00 
7.382790e+00 3.130351e+00 
7.417460e+00 3.102551e+00 
7.452720e+00 3.074635e+00 
7.487390e+00 3.047532e+00 
7.522650e+00 3.020312e+00 
7.557320e+00 2.993905e+00 
7.591990e+00 2.967832e+00 
7.627250e+00 2.941643e+00 
7.662510e+00 2.915778e+00 
7.697180e+00 2.890675e+00 
7.731850e+00 2.865883e+00 
7.766510e+00 2.841396e+00 
7.801180e+00 2.817195e+00 
7.836440e+00 2.792890e+00 
7.871110e+00 2.769285e+00 
7.906380e+00 2.745558e+00 
7.941040e+00 2.722518e+00 
7.976310e+00 2.699364e+00 
8.011570e+00 2.676506e+00 
8.046240e+00 2.654294e+00 
8.080900e+00 2.632347e+00 
8.115570e+00 2.610658e+00 
8.150830e+00 2.588900e+00 
8.185500e+00 2.567753e+00 
8.220770e+00 2.546487e+00 
8.255430e+00 2.525829e+00 
8.290100e+00 2.505424e+00 
8.324770e+00 2.485252e+00 
8.359430e+00 2.465313e+00 
8.394700e+00 2.445251e+00 
8.429960e+00 2.425446e+00 
8.464630e+00 2.406213e+00 
8.499890e+00 2.386871e+00 
8.534560e+00 2.368064e+00 
8.569200e+00 2.349479e+00 
