# Parameters:
# omega_b = 0.022681, omega_m = 0.127717, n_s = 1.042126, h = 58.307087, w = -1.000000, sigma_8 = 0.803937
# z = 1.700000
#
# k[1/Mpc] # P(k):
8.694000e-04 3.623267e+03 
2.077466e-03 8.193547e+03 
3.285532e-03 1.189137e+04 
4.493598e-03 1.478910e+04 
5.701664e-03 1.696742e+04 
6.909730e-03 1.852516e+04 
8.117797e-03 1.958776e+04 
9.325863e-03 2.022027e+04 
1.053393e-02 2.049130e+04 
1.174199e-02 2.046679e+04 
1.295006e-02 2.018856e+04 
1.415813e-02 1.971470e+04 
1.536619e-02 1.909758e+04 
1.657426e-02 1.837381e+04 
1.778233e-02 1.757509e+04 
1.899039e-02 1.674757e+04 
2.019846e-02 1.591705e+04 
2.140652e-02 1.510581e+04 
2.261459e-02 1.432649e+04 
2.382266e-02 1.359336e+04 
2.503072e-02 1.291582e+04 
2.623879e-02 1.229704e+04 
2.744685e-02 1.173878e+04 
2.865492e-02 1.124044e+04 
2.986299e-02 1.079844e+04 
3.100100e-02 1.043252e+04 
3.220400e-02 1.009339e+04 
3.288100e-02 9.923605e+03 
3.424300e-02 9.619956e+03 
3.555100e-02 9.368338e+03 
3.686000e-02 9.149137e+03 
3.795000e-02 8.985447e+03 
3.929100e-02 8.802055e+03 
4.039800e-02 8.659046e+03 
4.164000e-02 8.503186e+03 
4.294400e-02 8.335722e+03 
4.415000e-02 8.177860e+03 
4.542900e-02 7.997580e+03 
4.660900e-02 7.824121e+03 
4.782300e-02 7.627509e+03 
4.892900e-02 7.440422e+03 
5.031200e-02 7.193010e+03 
5.155900e-02 6.957627e+03 
5.238100e-02 6.798586e+03 
5.378200e-02 6.524018e+03 
5.513400e-02 6.258635e+03 
5.627600e-02 6.039314e+03 
5.735300e-02 5.841027e+03 
5.870100e-02 5.609215e+03 
5.988700e-02 5.423444e+03 
6.113500e-02 5.246613e+03 
6.225900e-02 5.103094e+03 
6.340100e-02 4.969840e+03 
6.480200e-02 4.818760e+03 
6.601100e-02 4.697378e+03 
6.725500e-02 4.578836e+03 
6.829100e-02 4.485200e+03 
6.958600e-02 4.374037e+03 
7.071100e-02 4.284016e+03 
7.192300e-02 4.193929e+03 
7.307400e-02 4.115061e+03 
7.412300e-02 4.048647e+03 
7.550400e-02 3.969104e+03 
7.663100e-02 3.909261e+03 
7.791200e-02 3.846790e+03 
7.912700e-02 3.791184e+03 
8.027600e-02 3.740648e+03 
8.138400e-02 3.693085e+03 
8.272200e-02 3.636229e+03 
8.406100e-02 3.578942e+03 
8.534100e-02 3.522164e+03 
8.653800e-02 3.466643e+03 
8.759800e-02 3.416006e+03 
8.900300e-02 3.346165e+03 
9.009000e-02 3.289588e+03 
9.113300e-02 3.232904e+03 
9.239600e-02 3.163017e+03 
9.358000e-02 3.095659e+03 
9.496100e-02 3.014849e+03 
9.608400e-02 2.949057e+03 
9.727500e-02 2.879773e+03 
9.852600e-02 2.806652e+03 
9.973800e-02 2.737704e+03 
1.009000e-01 2.673352e+03 
1.020900e-01 2.609992e+03 
1.034000e-01 2.543363e+03 
1.046000e-01 2.485240e+03 
1.057200e-01 2.435014e+03 
1.069100e-01 2.384200e+03 
1.082500e-01 2.331890e+03 
1.093900e-01 2.290941e+03 
1.105400e-01 2.252023e+03 
1.116900e-01 2.217247e+03 
1.129600e-01 2.180914e+03 
1.142000e-01 2.149016e+03 
1.153300e-01 2.121534e+03 
1.166400e-01 2.091809e+03 
1.177800e-01 2.067351e+03 
1.190000e-01 2.042163e+03 
1.201200e-01 2.019557e+03 
1.213400e-01 1.995507e+03 
1.227100e-01 1.968116e+03 
1.238900e-01 1.944747e+03 
1.250700e-01 1.920661e+03 
1.263200e-01 1.895138e+03 
1.275500e-01 1.869267e+03 
1.287500e-01 1.843870e+03 
1.299900e-01 1.817060e+03 
1.311300e-01 1.792321e+03 
1.323500e-01 1.765464e+03 
1.335900e-01 1.738295e+03 
1.347100e-01 1.713632e+03 
1.359800e-01 1.686028e+03 
1.372100e-01 1.659381e+03 
1.384300e-01 1.633464e+03 
1.395700e-01 1.609549e+03 
1.407700e-01 1.584928e+03 
1.420300e-01 1.559697e+03 
1.432800e-01 1.535242e+03 
1.444500e-01 1.513192e+03 
1.456300e-01 1.491422e+03 
1.468900e-01 1.469120e+03 
1.480500e-01 1.449153e+03 
1.491700e-01 1.430533e+03 
1.503800e-01 1.411171e+03 
1.516400e-01 1.391560e+03 
1.528200e-01 1.374134e+03 
1.540200e-01 1.356760e+03 
1.551900e-01 1.340615e+03 
1.564300e-01 1.323949e+03 
1.576600e-01 1.307942e+03 
1.588700e-01 1.292739e+03 
1.600900e-01 1.277713e+03 
1.612700e-01 1.263663e+03 
1.625400e-01 1.248826e+03 
1.637600e-01 1.234842e+03 
1.649500e-01 1.221450e+03 
1.662200e-01 1.207391e+03 
1.674000e-01 1.194401e+03 
1.685000e-01 1.182497e+03 
1.697500e-01 1.169037e+03 
1.710300e-01 1.155343e+03 
1.722200e-01 1.142843e+03 
1.734400e-01 1.129891e+03 
1.746400e-01 1.117360e+03 
1.758700e-01 1.104636e+03 
1.770900e-01 1.092023e+03 
1.782700e-01 1.080034e+03 
1.794600e-01 1.068015e+03 
1.807000e-01 1.055618e+03 
1.819100e-01 1.043732e+03 
1.830100e-01 1.033039e+03 
1.842200e-01 1.021456e+03 
1.855000e-01 1.009418e+03 
1.867000e-01 9.983814e+02 
1.879200e-01 9.873476e+02 
1.890900e-01 9.769620e+02 
1.902800e-01 9.666889e+02 
1.915200e-01 9.561588e+02 
1.926900e-01 9.464324e+02 
1.939000e-01 9.366930e+02 
1.951700e-01 9.266367e+02 
1.963100e-01 9.178079e+02 
1.975100e-01 9.088059e+02 
1.987800e-01 8.994293e+02 
2.000100e-01 8.905467e+02 
2.012500e-01 8.818578e+02 
2.023400e-01 8.743312e+02 
2.036100e-01 8.657139e+02 
2.048900e-01 8.572579e+02 
2.060400e-01 8.497735e+02 
2.072200e-01 8.422064e+02 
2.084200e-01 8.346659e+02 
2.096900e-01 8.268038e+02 
2.109200e-01 8.193029e+02 
2.121100e-01 8.121270e+02 
2.132700e-01 8.052279e+02 
2.145200e-01 7.978987e+02 
2.157200e-01 7.909147e+02 
2.168800e-01 7.842338e+02 
2.180700e-01 7.774734e+02 
2.193400e-01 7.703206e+02 
2.206000e-01 7.632526e+02 
2.217500e-01 7.568907e+02 
2.229500e-01 7.503410e+02 
2.241400e-01 7.438078e+02 
2.253500e-01 7.372517e+02 
2.264900e-01 7.311568e+02 
2.277100e-01 7.246578e+02 
2.289900e-01 7.178651e+02 
2.301500e-01 7.117930e+02 
2.313600e-01 7.055416e+02 
2.325600e-01 6.993090e+02 
2.337700e-01 6.931083e+02 
2.350000e-01 6.868897e+02 
2.362000e-01 6.808621e+02 
2.374100e-01 6.748153e+02 
2.386500e-01 6.687013e+02 
2.399100e-01 6.625729e+02 
2.410400e-01 6.571069e+02 
2.422500e-01 6.513226e+02 
2.435000e-01 6.454258e+02 
2.447300e-01 6.396986e+02 
2.458700e-01 6.344506e+02 
2.470600e-01 6.290399e+02 
2.483300e-01 6.233403e+02 
2.495600e-01 6.179064e+02 
2.507600e-01 6.126909e+02 
2.519600e-01 6.075404e+02 
2.532200e-01 6.022009e+02 
2.543700e-01 5.974261e+02 
2.555500e-01 5.926109e+02 
2.568000e-01 5.875728e+02 
2.580100e-01 5.827565e+02 
2.592400e-01 5.779779e+02 
2.604100e-01 5.735120e+02 
2.616100e-01 5.689852e+02 
2.628400e-01 5.644009e+02 
2.640600e-01 5.599742e+02 
2.652200e-01 5.558400e+02 
2.664300e-01 5.515769e+02 
2.676500e-01 5.473288e+02 
2.688400e-01 5.432811e+02 
2.700700e-01 5.391754e+02 
2.712400e-01 5.353143e+02 
2.724800e-01 5.312685e+02 
2.736700e-01 5.274629e+02 
2.748800e-01 5.236703e+02 
2.761000e-01 5.198892e+02 
2.773200e-01 5.161506e+02 
2.785400e-01 5.124682e+02 
2.797000e-01 5.090352e+02 
2.808900e-01 5.055509e+02 
2.821400e-01 5.019311e+02 
2.833900e-01 4.983530e+02 
2.845500e-01 4.950940e+02 
2.857800e-01 4.916749e+02 
2.870300e-01 4.882384e+02 
2.882100e-01 4.850290e+02 
2.893900e-01 4.818647e+02 
2.906300e-01 4.785810e+02 
2.918900e-01 4.752805e+02 
2.930500e-01 4.722738e+02 
2.942500e-01 4.691966e+02 
2.954200e-01 4.662320e+02 
2.966500e-01 4.631473e+02 
2.978900e-01 4.600703e+02 
2.990400e-01 4.572454e+02 
3.002700e-01 4.542561e+02 
3.015100e-01 4.512747e+02 
3.026800e-01 4.484900e+02 
3.038500e-01 4.457324e+02 
3.050300e-01 4.429784e+02 
3.062600e-01 4.401356e+02 
3.075000e-01 4.372988e+02 
3.087000e-01 4.345811e+02 
3.099100e-01 4.318677e+02 
3.111200e-01 4.291813e+02 
3.123100e-01 4.265653e+02 
3.135300e-01 4.239095e+02 
3.147300e-01 4.213227e+02 
3.159900e-01 4.186333e+02 
3.171800e-01 4.161190e+02 
3.183700e-01 4.136289e+02 
3.196300e-01 4.110179e+02 
3.208400e-01 4.085351e+02 
3.220300e-01 4.061163e+02 
3.232000e-01 4.037624e+02 
3.244300e-01 4.013118e+02 
3.256700e-01 3.988651e+02 
3.269200e-01 3.964225e+02 
3.280800e-01 3.941768e+02 
3.292500e-01 3.919365e+02 
3.304800e-01 3.896043e+02 
3.317100e-01 3.872941e+02 
3.328900e-01 3.850981e+02 
3.340700e-01 3.829218e+02 
3.353600e-01 3.805700e+02 
3.365300e-01 3.784588e+02 
3.377100e-01 3.763483e+02 
3.389200e-01 3.742034e+02 
3.401600e-01 3.720255e+02 
3.413700e-01 3.699257e+02 
3.425300e-01 3.679345e+02 
3.437700e-01 3.658248e+02 
3.449800e-01 3.637847e+02 
3.461800e-01 3.617793e+02 
3.473600e-01 3.598274e+02 
3.485800e-01 3.578345e+02 
3.498100e-01 3.558429e+02 
3.510200e-01 3.539010e+02 
3.522000e-01 3.520235e+02 
3.533900e-01 3.501461e+02 
3.546400e-01 3.482025e+02 
3.558400e-01 3.463535e+02 
3.570600e-01 3.444898e+02 
3.582700e-01 3.426572e+02 
3.595000e-01 3.408103e+02 
3.607100e-01 3.390160e+02 
3.618900e-01 3.372863e+02 
3.631200e-01 3.354984e+02 
3.643200e-01 3.337688e+02 
3.655500e-01 3.320108e+02 
3.667300e-01 3.303383e+02 
3.679500e-01 3.286361e+02 
3.691900e-01 3.269206e+02 
3.703600e-01 3.253152e+02 
3.715700e-01 3.236683e+02 
3.727700e-01 3.220482e+02 
3.739900e-01 3.204190e+02 
3.752000e-01 3.188242e+02 
3.763900e-01 3.172683e+02 
3.775800e-01 3.157247e+02 
3.788200e-01 3.141293e+02 
3.800300e-01 3.125850e+02 
3.812100e-01 3.110978e+02 
3.824200e-01 3.095895e+02 
3.836100e-01 3.081176e+02 
3.848600e-01 3.065839e+02 
3.860400e-01 3.051475e+02 
3.872400e-01 3.036981e+02 
3.884600e-01 3.022444e+02 
3.896500e-01 3.008406e+02 
3.908700e-01 2.994126e+02 
3.920600e-01 2.980304e+02 
3.933100e-01 2.965898e+02 
3.945300e-01 2.951948e+02 
3.957200e-01 2.938535e+02 
3.969300e-01 2.925025e+02 
3.981700e-01 2.911288e+02 
3.993500e-01 2.898314e+02 
4.094840e-01 2.791143e+02 
4.272360e-01 2.620955e+02 
4.454600e-01 2.465480e+02 
4.630560e-01 2.330921e+02 
4.804610e-01 2.210584e+02 
4.980690e-01 2.099962e+02 
5.159230e-01 1.997624e+02 
5.317440e-01 1.914254e+02 
5.489640e-01 1.830398e+02 
5.671990e-01 1.748663e+02 
5.838690e-01 1.679590e+02 
6.018840e-01 1.610482e+02 
6.202330e-01 1.545432e+02 
6.379250e-01 1.487220e+02 
6.545410e-01 1.436352e+02 
6.714560e-01 1.387931e+02 
6.892080e-01 1.340448e+02 
7.066010e-01 1.297037e+02 
7.240540e-01 1.256164e+02 
7.420450e-01 1.216763e+02 
7.593780e-01 1.181144e+02 
7.764720e-01 1.148048e+02 
7.942840e-01 1.115555e+02 
8.116170e-01 1.085762e+02 
8.288310e-01 1.057787e+02 
8.462240e-01 1.031033e+02 
8.631980e-01 1.006258e+02 
8.810700e-01 9.814902e+01 
8.989410e-01 9.579675e+01 
9.166330e-01 9.358183e+01 
9.345640e-01 9.144714e+01 
9.515980e-01 8.951066e+01 
9.688720e-01 8.763062e+01 
9.865640e-01 8.579036e+01 
1.031870e+00 8.141367e+01 
1.063490e+00 7.861770e+01 
1.097920e+00 7.578737e+01 
1.134370e+00 7.299751e+01 
1.167730e+00 7.061489e+01 
1.203830e+00 6.819483e+01 
1.240470e+00 6.589368e+01 
1.275790e+00 6.380679e+01 
1.309140e+00 6.194675e+01 
1.342970e+00 6.014916e+01 
1.378420e+00 5.836598e+01 
1.413200e+00 5.670376e+01 
1.448110e+00 5.511487e+01 
1.484090e+00 5.355470e+01 
1.518820e+00 5.211804e+01 
1.552880e+00 5.076927e+01 
1.588630e+00 4.941407e+01 
1.623230e+00 4.815783e+01 
1.657720e+00 4.695657e+01 
1.692450e+00 4.579527e+01 
1.726400e+00 4.470299e+01 
1.762200e+00 4.359358e+01 
1.797880e+00 4.253046e+01 
1.833270e+00 4.151625e+01 
1.869070e+00 4.052740e+01 
1.903200e+00 3.961738e+01 
1.937740e+00 3.872865e+01 
1.973190e+00 3.784778e+01 
2.007440e+00 3.702560e+01 
2.042160e+00 3.621835e+01 
2.077900e+00 3.541441e+01 
2.112390e+00 3.466503e+01 
2.146220e+00 3.395090e+01 
2.181600e+00 3.322775e+01 
2.216930e+00 3.252721e+01 
2.250760e+00 3.187698e+01 
2.286500e+00 3.121108e+01 
2.321770e+00 3.057365e+01 
2.355950e+00 2.997358e+01 
2.391280e+00 2.936972e+01 
2.426240e+00 2.878922e+01 
2.460670e+00 2.823419e+01 
2.495640e+00 2.768706e+01 
2.531080e+00 2.714643e+01 
2.566220e+00 2.662448e+01 
2.600830e+00 2.612453e+01 
2.635080e+00 2.564338e+01 
2.670340e+00 2.516024e+01 
2.705970e+00 2.468491e+01 
2.740040e+00 2.424235e+01 
2.774520e+00 2.380520e+01 
2.809730e+00 2.336949e+01 
2.844390e+00 2.295189e+01 
2.879960e+00 2.253425e+01 
2.914860e+00 2.213396e+01 
2.949410e+00 2.174769e+01 
2.984440e+00 2.136478e+01 
3.019760e+00 2.098800e+01 
3.054730e+00 2.062445e+01 
3.089030e+00 2.027513e+01 
3.124060e+00 1.992731e+01 
3.159560e+00 1.958328e+01 
3.194710e+00 1.925003e+01 
3.229010e+00 1.893281e+01 
3.263320e+00 1.862123e+01 
3.297930e+00 1.831451e+01 
3.332830e+00 1.801193e+01 
3.368040e+00 1.771353e+01 
3.403300e+00 1.742169e+01 
3.438450e+00 1.713661e+01 
3.473060e+00 1.686266e+01 
3.508440e+00 1.658751e+01 
3.543110e+00 1.632441e+01 
3.577470e+00 1.606886e+01 
3.613040e+00 1.581029e+01 
3.648120e+00 1.556001e+01 
3.682910e+00 1.531741e+01 
3.718050e+00 1.507746e+01 
3.753320e+00 1.484168e+01 
3.787980e+00 1.461439e+01 
3.822290e+00 1.439415e+01 
3.857020e+00 1.417564e+01 
3.891920e+00 1.396062e+01 
3.926650e+00 1.375065e+01 
3.961970e+00 1.354167e+01 
3.997360e+00 1.333629e+01 
4.031670e+00 1.314142e+01 
4.066330e+00 1.294801e+01 
4.101420e+00 1.275648e+01 
4.136200e+00 1.256973e+01 
4.170810e+00 1.238791e+01 
4.206250e+00 1.220507e+01 
4.241580e+00 1.202663e+01 
4.276300e+00 1.185450e+01 
4.310970e+00 1.168593e+01 
4.346120e+00 1.151831e+01 
4.380600e+00 1.135681e+01 
4.414730e+00 1.120018e+01 
4.450350e+00 1.103942e+01 
4.485320e+00 1.088486e+01 
4.519810e+00 1.073514e+01 
4.555430e+00 1.058349e+01 
4.590870e+00 1.043544e+01 
4.625480e+00 1.029328e+01 
4.659910e+00 1.015462e+01 
4.695230e+00 1.001489e+01 
4.729960e+00 9.880146e+00 
4.764450e+00 9.748766e+00 
4.799530e+00 9.617470e+00 
4.834910e+00 9.487612e+00 
4.869700e+00 9.361970e+00 
4.904370e+00 9.239057e+00 
4.939450e+00 9.116963e+00 
4.973940e+00 8.998990e+00 
5.008430e+00 8.883184e+00 
5.043810e+00 8.766376e+00 
5.078840e+00 8.652744e+00 
5.113500e+00 8.542362e+00 
5.148890e+00 8.431529e+00 
5.184210e+00 8.322931e+00 
5.219060e+00 8.217669e+00 
5.253660e+00 8.114902e+00 
5.288570e+00 8.013045e+00 
5.323420e+00 7.913045e+00 
5.358440e+00 7.814196e+00 
5.393590e+00 7.716719e+00 
5.428310e+00 7.622111e+00 
5.462800e+00 7.529738e+00 
5.497640e+00 7.438015e+00 
5.532670e+00 7.347307e+00 
5.567280e+00 7.259182e+00 
5.602000e+00 7.172258e+00 
5.637270e+00 7.085380e+00 
5.672410e+00 7.000264e+00 
5.707020e+00 6.917821e+00 
5.742040e+00 6.835812e+00 
5.777430e+00 6.754314e+00 
5.812210e+00 6.675534e+00 
5.846820e+00 6.598365e+00 
5.881610e+00 6.522030e+00 
5.916510e+00 6.446680e+00 
5.951600e+00 6.372168e+00 
5.986560e+00 6.299130e+00 
6.021830e+00 6.226616e+00 
6.056490e+00 6.156511e+00 
6.091160e+00 6.087503e+00 
6.125830e+00 6.019561e+00 
6.161090e+00 5.951548e+00 
6.195760e+00 5.885734e+00 
6.230420e+00 5.820939e+00 
6.265690e+00 5.756015e+00 
6.300950e+00 5.692219e+00 
6.335620e+00 5.630437e+00 
6.370880e+00 5.568549e+00 
6.405550e+00 5.508646e+00 
6.440220e+00 5.449644e+00 
6.475480e+00 5.390525e+00 
6.510150e+00 5.333292e+00 
6.544810e+00 5.276993e+00 
6.580080e+00 5.220540e+00 
6.614750e+00 5.165852e+00 
6.649410e+00 5.112030e+00 
6.684080e+00 5.058972e+00 
6.719340e+00 5.005784e+00 
6.754010e+00 4.954279e+00 
6.788680e+00 4.903611e+00 
6.823940e+00 4.852807e+00 
6.859800e+00 4.801876e+00 
6.894470e+00 4.753420e+00 
6.929140e+00 4.705664e+00 
6.963800e+00 4.658577e+00 
6.999070e+00 4.611328e+00 
7.033730e+00 4.565643e+00 
7.068400e+00 4.520563e+00 
7.103660e+00 4.475338e+00 
7.138330e+00 4.431507e+00 
7.173600e+00 4.387593e+00 
7.208260e+00 4.345015e+00 
7.243530e+00 4.302265e+00 
7.277600e+00 4.261584e+00 
7.312860e+00 4.220098e+00 
7.348120e+00 4.179161e+00 
7.382790e+00 4.139435e+00 
7.417460e+00 4.100325e+00 
7.452720e+00 4.061117e+00 
7.487390e+00 4.023062e+00 
7.522650e+00 3.984857e+00 
7.557320e+00 3.947859e+00 
7.591990e+00 3.911360e+00 
7.627250e+00 3.874710e+00 
7.662510e+00 3.838527e+00 
7.697180e+00 3.803508e+00 
7.731850e+00 3.768967e+00 
7.766510e+00 3.734861e+00 
7.801180e+00 3.701166e+00 
7.836440e+00 3.667393e+00 
7.871110e+00 3.634638e+00 
7.906380e+00 3.601724e+00 
7.941040e+00 3.569774e+00 
7.976310e+00 3.537714e+00 
8.011570e+00 3.506124e+00 
8.046240e+00 3.475435e+00 
8.080900e+00 3.445120e+00 
8.115570e+00 3.415183e+00 
8.150830e+00 3.385205e+00 
8.185500e+00 3.356078e+00 
8.220770e+00 3.326795e+00 
8.255430e+00 3.298357e+00 
8.290100e+00 3.270367e+00 
8.324770e+00 3.242714e+00 
8.359430e+00 3.215387e+00 
8.394700e+00 3.187899e+00 
8.429960e+00 3.160798e+00 
8.464630e+00 3.134515e+00 
8.499890e+00 3.108090e+00 
8.534560e+00 3.082401e+00 
8.569200e+00 3.057022e+00 
