# Parameters:
# omega_b = 0.023484, omega_m = 0.149213, n_s = 0.911417, h = 70.354331, w = -1.000000, sigma_8 = 0.832283
# z = 1.700000
#
# k[1/Mpc] # P(k):
8.694000e-04 3.875232e+03 
2.077466e-03 7.954427e+03 
3.285532e-03 1.105140e+04 
4.493598e-03 1.340380e+04 
5.701664e-03 1.513417e+04 
6.909730e-03 1.635296e+04 
8.117797e-03 1.717661e+04 
9.325863e-03 1.766495e+04 
1.053393e-02 1.787562e+04 
1.174199e-02 1.786040e+04 
1.295006e-02 1.765269e+04 
1.415813e-02 1.729644e+04 
1.536619e-02 1.682861e+04 
1.657426e-02 1.627401e+04 
1.778233e-02 1.565576e+04 
1.899039e-02 1.500851e+04 
2.019846e-02 1.435062e+04 
2.140652e-02 1.369855e+04 
2.261459e-02 1.306118e+04 
2.382266e-02 1.245012e+04 
2.503072e-02 1.187404e+04 
2.623879e-02 1.133652e+04 
2.744685e-02 1.083853e+04 
2.865492e-02 1.038278e+04 
2.986299e-02 9.967880e+03 
3.100100e-02 9.613794e+03 
3.220400e-02 9.275956e+03 
3.288100e-02 9.102076e+03 
3.424300e-02 8.783509e+03 
3.555100e-02 8.512086e+03 
3.686000e-02 8.270182e+03 
3.795000e-02 8.087434e+03 
3.929100e-02 7.882846e+03 
4.039800e-02 7.726056e+03 
4.164000e-02 7.559614e+03 
4.294400e-02 7.390332e+03 
4.415000e-02 7.237368e+03 
4.542900e-02 7.072822e+03 
4.660900e-02 6.920347e+03 
4.782300e-02 6.755573e+03 
4.892900e-02 6.602414e+03 
5.031200e-02 6.404088e+03 
5.155900e-02 6.218057e+03 
5.238100e-02 6.092694e+03 
5.378200e-02 5.875436e+03 
5.513400e-02 5.661389e+03 
5.627600e-02 5.478618e+03 
5.735300e-02 5.306053e+03 
5.870100e-02 5.091120e+03 
5.988700e-02 4.905204e+03 
6.113500e-02 4.714334e+03 
6.225900e-02 4.548623e+03 
6.340100e-02 4.388397e+03 
6.480200e-02 4.204732e+03 
6.601100e-02 4.059882e+03 
6.725500e-02 3.924283e+03 
6.829100e-02 3.822532e+03 
6.958600e-02 3.706948e+03 
7.071100e-02 3.617469e+03 
7.192300e-02 3.530784e+03 
7.307400e-02 3.456884e+03 
7.412300e-02 3.395839e+03 
7.550400e-02 3.324176e+03 
7.663100e-02 3.271089e+03 
7.791200e-02 3.216803e+03 
7.912700e-02 3.169485e+03 
8.027600e-02 3.127203e+03 
8.138400e-02 3.087979e+03 
8.272200e-02 3.041799e+03 
8.406100e-02 2.995865e+03 
8.534100e-02 2.950788e+03 
8.653800e-02 2.906849e+03 
8.759800e-02 2.866760e+03 
8.900300e-02 2.811338e+03 
9.009000e-02 2.766217e+03 
9.113300e-02 2.720688e+03 
9.239600e-02 2.664227e+03 
9.358000e-02 2.609353e+03 
9.496100e-02 2.542740e+03 
9.608400e-02 2.488019e+03 
9.727500e-02 2.430006e+03 
9.852600e-02 2.367741e+03 
9.973800e-02 2.308553e+03 
1.009000e-01 2.252926e+03 
1.020900e-01 2.197133e+03 
1.034000e-01 2.138014e+03 
1.046000e-01 2.085968e+03 
1.057200e-01 2.040209e+03 
1.069100e-01 1.993677e+03 
1.082500e-01 1.945039e+03 
1.093900e-01 1.906616e+03 
1.105400e-01 1.869899e+03 
1.116900e-01 1.836784e+03 
1.129600e-01 1.802165e+03 
1.142000e-01 1.771811e+03 
1.153300e-01 1.745866e+03 
1.166400e-01 1.718120e+03 
1.177800e-01 1.695894e+03 
1.190000e-01 1.673295e+03 
1.201200e-01 1.654030e+03 
1.213400e-01 1.633718e+03 
1.227100e-01 1.612083e+03 
1.238900e-01 1.593886e+03 
1.250700e-01 1.575939e+03 
1.263200e-01 1.557117e+03 
1.275500e-01 1.538461e+03 
1.287500e-01 1.520171e+03 
1.299900e-01 1.500900e+03 
1.311300e-01 1.482919e+03 
1.323500e-01 1.463110e+03 
1.335900e-01 1.442677e+03 
1.347100e-01 1.423625e+03 
1.359800e-01 1.401887e+03 
1.372100e-01 1.380093e+03 
1.384300e-01 1.358540e+03 
1.395700e-01 1.337814e+03 
1.407700e-01 1.316381e+03 
1.420300e-01 1.293367e+03 
1.432800e-01 1.271082e+03 
1.444500e-01 1.250206e+03 
1.456300e-01 1.229621e+03 
1.468900e-01 1.208277e+03 
1.480500e-01 1.189110e+03 
1.491700e-01 1.171275e+03 
1.503800e-01 1.152774e+03 
1.516400e-01 1.134137e+03 
1.528200e-01 1.117938e+03 
1.540200e-01 1.101802e+03 
1.551900e-01 1.087341e+03 
1.564300e-01 1.072553e+03 
1.576600e-01 1.058681e+03 
1.588700e-01 1.045904e+03 
1.600900e-01 1.033312e+03 
1.612700e-01 1.022150e+03 
1.625400e-01 1.010362e+03 
1.637600e-01 9.995076e+02 
1.649500e-01 9.892605e+02 
1.662200e-01 9.785250e+02 
1.674000e-01 9.687323e+02 
1.685000e-01 9.597562e+02 
1.697500e-01 9.495525e+02 
1.710300e-01 9.391180e+02 
1.722200e-01 9.295902e+02 
1.734400e-01 9.194514e+02 
1.746400e-01 9.096302e+02 
1.758700e-01 8.995443e+02 
1.770900e-01 8.893202e+02 
1.782700e-01 8.796016e+02 
1.794600e-01 8.696676e+02 
1.807000e-01 8.592954e+02 
1.819100e-01 8.493513e+02 
1.830100e-01 8.402061e+02 
1.842200e-01 8.302686e+02 
1.855000e-01 8.199371e+02 
1.867000e-01 8.103122e+02 
1.879200e-01 8.006935e+02 
1.890900e-01 7.916322e+02 
1.902800e-01 7.826134e+02 
1.915200e-01 7.733733e+02 
1.926900e-01 7.648423e+02 
1.939000e-01 7.563033e+02 
1.951700e-01 7.474905e+02 
1.963100e-01 7.397695e+02 
1.975100e-01 7.319347e+02 
1.987800e-01 7.237768e+02 
2.000100e-01 7.160734e+02 
2.012500e-01 7.085911e+02 
2.023400e-01 7.021116e+02 
2.036100e-01 6.947120e+02 
2.048900e-01 6.875175e+02 
2.060400e-01 6.811514e+02 
2.072200e-01 6.747214e+02 
2.084200e-01 6.683786e+02 
2.096900e-01 6.617666e+02 
2.109200e-01 6.554596e+02 
2.121100e-01 6.494804e+02 
2.132700e-01 6.437355e+02 
2.145200e-01 6.376334e+02 
2.157200e-01 6.318498e+02 
2.168800e-01 6.263318e+02 
2.180700e-01 6.207488e+02 
2.193400e-01 6.148579e+02 
2.206000e-01 6.090663e+02 
2.217500e-01 6.038537e+02 
2.229500e-01 5.984878e+02 
2.241400e-01 5.931768e+02 
2.253500e-01 5.878486e+02 
2.264900e-01 5.828956e+02 
2.277100e-01 5.776378e+02 
2.289900e-01 5.721682e+02 
2.301500e-01 5.672790e+02 
2.313600e-01 5.622461e+02 
2.325600e-01 5.572781e+02 
2.337700e-01 5.523354e+02 
2.350000e-01 5.473785e+02 
2.362000e-01 5.425958e+02 
2.374100e-01 5.378236e+02 
2.386500e-01 5.329981e+02 
2.399100e-01 5.281611e+02 
2.410400e-01 5.238793e+02 
2.422500e-01 5.193518e+02 
2.435000e-01 5.147360e+02 
2.447300e-01 5.102567e+02 
2.458700e-01 5.061688e+02 
2.470600e-01 5.019539e+02 
2.483300e-01 4.975133e+02 
2.495600e-01 4.932802e+02 
2.507600e-01 4.892183e+02 
2.519600e-01 4.852065e+02 
2.532200e-01 4.810471e+02 
2.543700e-01 4.773174e+02 
2.555500e-01 4.735492e+02 
2.568000e-01 4.696063e+02 
2.580100e-01 4.658366e+02 
2.592400e-01 4.620744e+02 
2.604100e-01 4.585484e+02 
2.616100e-01 4.549744e+02 
2.628400e-01 4.513546e+02 
2.640600e-01 4.478318e+02 
2.652200e-01 4.445306e+02 
2.664300e-01 4.411266e+02 
2.676500e-01 4.377345e+02 
2.688400e-01 4.344790e+02 
2.700700e-01 4.311623e+02 
2.712400e-01 4.280432e+02 
2.724800e-01 4.247751e+02 
2.736700e-01 4.216849e+02 
2.748800e-01 4.185887e+02 
2.761000e-01 4.155022e+02 
2.773200e-01 4.124505e+02 
2.785400e-01 4.094370e+02 
2.797000e-01 4.066112e+02 
2.808900e-01 4.037433e+02 
2.821400e-01 4.007643e+02 
2.833900e-01 3.978191e+02 
2.845500e-01 3.951204e+02 
2.857800e-01 3.922895e+02 
2.870300e-01 3.894444e+02 
2.882100e-01 3.867877e+02 
2.893900e-01 3.841613e+02 
2.906300e-01 3.814322e+02 
2.918900e-01 3.786895e+02 
2.930500e-01 3.761913e+02 
2.942500e-01 3.736333e+02 
2.954200e-01 3.711645e+02 
2.966500e-01 3.685961e+02 
2.978900e-01 3.660343e+02 
2.990400e-01 3.636828e+02 
3.002700e-01 3.611927e+02 
3.015100e-01 3.587085e+02 
3.026800e-01 3.563886e+02 
3.038500e-01 3.540915e+02 
3.050300e-01 3.517977e+02 
3.062600e-01 3.494289e+02 
3.075000e-01 3.470655e+02 
3.087000e-01 3.448015e+02 
3.099100e-01 3.425415e+02 
3.111200e-01 3.403044e+02 
3.123100e-01 3.381265e+02 
3.135300e-01 3.359157e+02 
3.147300e-01 3.337627e+02 
3.159900e-01 3.315246e+02 
3.171800e-01 3.294332e+02 
3.183700e-01 3.273626e+02 
3.196300e-01 3.251918e+02 
3.208400e-01 3.231279e+02 
3.220300e-01 3.211175e+02 
3.232000e-01 3.191622e+02 
3.244300e-01 3.171273e+02 
3.256700e-01 3.150959e+02 
3.269200e-01 3.130682e+02 
3.280800e-01 3.112042e+02 
3.292500e-01 3.093461e+02 
3.304800e-01 3.074125e+02 
3.317100e-01 3.054973e+02 
3.328900e-01 3.036770e+02 
3.340700e-01 3.018733e+02 
3.353600e-01 2.999258e+02 
3.365300e-01 2.981782e+02 
3.377100e-01 2.964314e+02 
3.389200e-01 2.946564e+02 
3.401600e-01 2.928543e+02 
3.413700e-01 2.911181e+02 
3.425300e-01 2.894726e+02 
3.437700e-01 2.877294e+02 
3.449800e-01 2.860439e+02 
3.461800e-01 2.843872e+02 
3.473600e-01 2.827754e+02 
3.485800e-01 2.811309e+02 
3.498100e-01 2.794877e+02 
3.510200e-01 2.778856e+02 
3.522000e-01 2.763369e+02 
3.533900e-01 2.747885e+02 
3.546400e-01 2.731870e+02 
3.558400e-01 2.716637e+02 
3.570600e-01 2.701285e+02 
3.582700e-01 2.686191e+02 
3.595000e-01 2.670981e+02 
3.607100e-01 2.656210e+02 
3.618900e-01 2.641976e+02 
3.631200e-01 2.627265e+02 
3.643200e-01 2.613035e+02 
3.655500e-01 2.598572e+02 
3.667300e-01 2.584815e+02 
3.679500e-01 2.570825e+02 
3.691900e-01 2.556727e+02 
3.703600e-01 2.543535e+02 
3.715700e-01 2.530003e+02 
3.727700e-01 2.516694e+02 
3.739900e-01 2.503312e+02 
3.752000e-01 2.490217e+02 
3.763900e-01 2.477443e+02 
3.775800e-01 2.464771e+02 
3.788200e-01 2.451674e+02 
3.800300e-01 2.439000e+02 
3.812100e-01 2.426797e+02 
3.824200e-01 2.414422e+02 
3.836100e-01 2.402349e+02 
3.848600e-01 2.389770e+02 
3.860400e-01 2.377990e+02 
3.872400e-01 2.366103e+02 
3.884600e-01 2.354186e+02 
3.896500e-01 2.342679e+02 
3.908700e-01 2.330974e+02 
3.920600e-01 2.319646e+02 
3.933100e-01 2.307841e+02 
3.945300e-01 2.296410e+02 
3.957200e-01 2.285420e+02 
3.969300e-01 2.274351e+02 
3.981700e-01 2.263096e+02 
3.993500e-01 2.252468e+02 
4.094840e-01 2.164732e+02 
4.272360e-01 2.025519e+02 
4.454600e-01 1.898531e+02 
4.630560e-01 1.788802e+02 
4.804610e-01 1.690865e+02 
4.980690e-01 1.601024e+02 
5.159230e-01 1.518130e+02 
5.317440e-01 1.450758e+02 
5.489640e-01 1.383186e+02 
5.671990e-01 1.317496e+02 
5.838690e-01 1.262116e+02 
6.018840e-01 1.206815e+02 
6.202330e-01 1.154882e+02 
6.379250e-01 1.108497e+02 
6.545410e-01 1.068035e+02 
6.714560e-01 1.029562e+02 
6.892080e-01 9.918979e+01 
7.066010e-01 9.574942e+01 
7.240540e-01 9.251556e+01 
7.420450e-01 8.940057e+01 
7.593780e-01 8.658809e+01 
7.764720e-01 8.397732e+01 
7.942840e-01 8.141711e+01 
8.116170e-01 7.907191e+01 
8.288310e-01 7.687310e+01 
8.462240e-01 7.477216e+01 
8.631980e-01 7.282961e+01 
8.810700e-01 7.089056e+01 
8.989410e-01 6.905201e+01 
9.166330e-01 6.732385e+01 
9.345640e-01 6.566016e+01 
9.515980e-01 6.415387e+01 
9.688720e-01 6.269496e+01 
9.865640e-01 6.126937e+01 
1.031870e+00 5.789227e+01 
1.063490e+00 5.574542e+01 
1.097920e+00 5.358099e+01 
1.134370e+00 5.145841e+01 
1.167730e+00 4.965392e+01 
1.203830e+00 4.783157e+01 
1.240470e+00 4.610689e+01 
1.275790e+00 4.455087e+01 
1.309140e+00 4.316967e+01 
1.342970e+00 4.184360e+01 
1.378420e+00 4.053280e+01 
1.413200e+00 3.931687e+01 
1.448110e+00 3.815962e+01 
1.484090e+00 3.702840e+01 
1.518820e+00 3.599111e+01 
1.552880e+00 3.502146e+01 
1.588630e+00 3.405082e+01 
1.623230e+00 3.315456e+01 
1.657720e+00 3.230051e+01 
1.692450e+00 3.147765e+01 
1.726400e+00 3.070621e+01 
1.762200e+00 2.992539e+01 
1.797880e+00 2.917965e+01 
1.833270e+00 2.847007e+01 
1.869070e+00 2.778020e+01 
1.903200e+00 2.714739e+01 
1.937740e+00 2.653064e+01 
1.973190e+00 2.592065e+01 
2.007440e+00 2.535253e+01 
2.042160e+00 2.479629e+01 
2.077900e+00 2.424351e+01 
2.112390e+00 2.372887e+01 
2.146220e+00 2.323975e+01 
2.181600e+00 2.274522e+01 
2.216930e+00 2.226716e+01 
2.250760e+00 2.182400e+01 
2.286500e+00 2.137071e+01 
2.321770e+00 2.093747e+01 
2.355950e+00 2.053023e+01 
2.391280e+00 2.012118e+01 
2.426240e+00 1.972842e+01 
2.460670e+00 1.935319e+01 
2.495640e+00 1.898351e+01 
2.531080e+00 1.861878e+01 
2.566220e+00 1.826716e+01 
2.600830e+00 1.793064e+01 
2.635080e+00 1.760695e+01 
2.670340e+00 1.728206e+01 
2.705970e+00 1.696275e+01 
2.740040e+00 1.666567e+01 
2.774520e+00 1.637241e+01 
2.809730e+00 1.608035e+01 
2.844390e+00 1.580051e+01 
2.879960e+00 1.552066e+01 
2.914860e+00 1.525262e+01 
2.949410e+00 1.499407e+01 
2.984440e+00 1.473794e+01 
3.019760e+00 1.448600e+01 
3.054730e+00 1.424294e+01 
3.089030e+00 1.400941e+01 
3.124060e+00 1.377687e+01 
3.159560e+00 1.354683e+01 
3.194710e+00 1.332410e+01 
3.229010e+00 1.311211e+01 
3.263320e+00 1.290390e+01 
3.297930e+00 1.269892e+01 
3.332830e+00 1.249673e+01 
3.368040e+00 1.229727e+01 
3.403300e+00 1.210212e+01 
3.438450e+00 1.191151e+01 
3.473060e+00 1.172832e+01 
3.508440e+00 1.154432e+01 
3.543110e+00 1.136831e+01 
3.577470e+00 1.119720e+01 
3.613040e+00 1.102406e+01 
3.648120e+00 1.085652e+01 
3.682910e+00 1.069402e+01 
3.718050e+00 1.053314e+01 
3.753320e+00 1.037504e+01 
3.787980e+00 1.022264e+01 
3.822290e+00 1.007488e+01 
3.857020e+00 9.928191e+00 
3.891920e+00 9.783790e+00 
3.926650e+00 9.642713e+00 
3.961970e+00 9.502227e+00 
3.997360e+00 9.364039e+00 
4.031670e+00 9.232885e+00 
4.066330e+00 9.102654e+00 
4.101420e+00 8.973644e+00 
4.136200e+00 8.847719e+00 
4.170810e+00 8.725082e+00 
4.206250e+00 8.601654e+00 
4.241580e+00 8.481149e+00 
4.276300e+00 8.364803e+00 
4.310970e+00 8.250803e+00 
4.346120e+00 8.137384e+00 
4.380600e+00 8.028022e+00 
4.414730e+00 7.921929e+00 
4.450350e+00 7.812917e+00 
4.485320e+00 7.708074e+00 
4.519810e+00 7.606389e+00 
4.555430e+00 7.503314e+00 
4.590870e+00 7.402654e+00 
4.625480e+00 7.305942e+00 
4.659910e+00 7.211589e+00 
4.695230e+00 7.116351e+00 
4.729960e+00 7.024465e+00 
4.764450e+00 6.934802e+00 
4.799530e+00 6.845096e+00 
4.834910e+00 6.756346e+00 
4.869700e+00 6.670399e+00 
4.904370e+00 6.586285e+00 
4.939450e+00 6.502678e+00 
4.973940e+00 6.421794e+00 
5.008430e+00 6.342373e+00 
5.043810e+00 6.262192e+00 
5.078840e+00 6.184140e+00 
5.113500e+00 6.108299e+00 
5.148890e+00 6.032006e+00 
5.184210e+00 5.957224e+00 
5.219060e+00 5.884702e+00 
5.253660e+00 5.813831e+00 
5.288570e+00 5.743568e+00 
5.323420e+00 5.674537e+00 
5.358440e+00 5.606249e+00 
5.393590e+00 5.538890e+00 
5.428310e+00 5.473415e+00 
5.462800e+00 5.409429e+00 
5.497640e+00 5.345877e+00 
5.532670e+00 5.282952e+00 
5.567280e+00 5.221786e+00 
5.602000e+00 5.161437e+00 
5.637270e+00 5.101051e+00 
5.672410e+00 5.041862e+00 
5.707020e+00 4.984518e+00 
5.742040e+00 4.927390e+00 
5.777430e+00 4.870590e+00 
5.812210e+00 4.815672e+00 
5.846820e+00 4.761818e+00 
5.881610e+00 4.708523e+00 
5.916510e+00 4.655904e+00 
5.951600e+00 4.603805e+00 
5.986560e+00 4.552701e+00 
6.021830e+00 4.501953e+00 
6.056490e+00 4.452843e+00 
6.091160e+00 4.404461e+00 
6.125830e+00 4.356815e+00 
6.161090e+00 4.309095e+00 
6.195760e+00 4.262877e+00 
6.230420e+00 4.217366e+00 
6.265690e+00 4.171751e+00 
6.300950e+00 4.126848e+00 
6.335620e+00 4.083356e+00 
6.370880e+00 4.039779e+00 
6.405550e+00 3.997565e+00 
6.440220e+00 3.955966e+00 
6.475480e+00 3.914278e+00 
6.510150e+00 3.873895e+00 
6.544810e+00 3.834128e+00 
6.580080e+00 3.794244e+00 
6.614750e+00 3.755600e+00 
6.649410e+00 3.717532e+00 
6.684080e+00 3.679994e+00 
6.719340e+00 3.642356e+00 
6.754010e+00 3.605886e+00 
6.788680e+00 3.569966e+00 
6.823940e+00 3.533942e+00 
6.859800e+00 3.497822e+00 
6.894470e+00 3.463425e+00 
6.929140e+00 3.429509e+00 
6.963800e+00 3.396063e+00 
6.999070e+00 3.362495e+00 
7.033730e+00 3.330009e+00 
7.068400e+00 3.297947e+00 
7.103660e+00 3.265778e+00 
7.138330e+00 3.234587e+00 
7.173600e+00 3.203315e+00 
7.208260e+00 3.172990e+00 
7.243530e+00 3.142538e+00 
7.277600e+00 3.113540e+00 
7.312860e+00 3.083949e+00 
7.348120e+00 3.054747e+00 
7.382790e+00 3.026404e+00 
7.417460e+00 2.998475e+00 
7.452720e+00 2.970462e+00 
7.487390e+00 2.943270e+00 
7.522650e+00 2.915966e+00 
7.557320e+00 2.889514e+00 
7.591990e+00 2.863414e+00 
7.627250e+00 2.837202e+00 
7.662510e+00 2.811321e+00 
7.697180e+00 2.786251e+00 
7.731850e+00 2.761514e+00 
7.766510e+00 2.737086e+00 
7.801180e+00 2.712948e+00 
7.836440e+00 2.688743e+00 
7.871110e+00 2.665260e+00 
7.906380e+00 2.641660e+00 
7.941040e+00 2.618748e+00 
7.976310e+00 2.595748e+00 
8.011570e+00 2.573073e+00 
8.046240e+00 2.551043e+00 
8.080900e+00 2.529279e+00 
8.115570e+00 2.507782e+00 
8.150830e+00 2.486249e+00 
8.185500e+00 2.465324e+00 
8.220770e+00 2.444286e+00 
8.255430e+00 2.423851e+00 
8.290100e+00 2.403720e+00 
8.324770e+00 2.383828e+00 
8.359430e+00 2.364168e+00 
8.394700e+00 2.344390e+00 
8.429960e+00 2.324885e+00 
8.464630e+00 2.305965e+00 
8.499890e+00 2.286940e+00 
8.534560e+00 2.268444e+00 
8.569200e+00 2.250169e+00 
