# Parameters:
# omega_b = 0.022823, omega_m = 0.145906, n_s = 1.009055, h = 63.503937, w = -1.000000, sigma_8 = 0.720472
# z = 1.700000
#
# k[1/Mpc] # P(k):
8.694000e-04 2.035417e+03 
2.077466e-03 4.540776e+03 
3.285532e-03 6.583979e+03 
4.493598e-03 8.217451e+03 
5.701664e-03 9.481393e+03 
6.909730e-03 1.042298e+04 
8.117797e-03 1.110389e+04 
9.325863e-03 1.155588e+04 
1.053393e-02 1.181305e+04 
1.174199e-02 1.190838e+04 
1.295006e-02 1.186255e+04 
1.415813e-02 1.170462e+04 
1.536619e-02 1.146038e+04 
1.657426e-02 1.114722e+04 
1.778233e-02 1.078120e+04 
1.899039e-02 1.038677e+04 
2.019846e-02 9.977524e+03 
2.140652e-02 9.565859e+03 
2.261459e-02 9.158623e+03 
2.382266e-02 8.764827e+03 
2.503072e-02 8.391364e+03 
2.623879e-02 8.041493e+03 
2.744685e-02 7.716591e+03 
2.865492e-02 7.418995e+03 
2.986299e-02 7.148193e+03 
3.100100e-02 6.917593e+03 
3.220400e-02 6.698201e+03 
3.288100e-02 6.585663e+03 
3.424300e-02 6.380185e+03 
3.555100e-02 6.205809e+03 
3.686000e-02 6.050954e+03 
3.795000e-02 5.934176e+03 
3.929100e-02 5.803381e+03 
4.039800e-02 5.702782e+03 
4.164000e-02 5.595308e+03 
4.294400e-02 5.484527e+03 
4.415000e-02 5.383279e+03 
4.542900e-02 5.272431e+03 
4.660900e-02 5.168431e+03 
4.782300e-02 5.054027e+03 
4.892900e-02 4.946541e+03 
5.031200e-02 4.805795e+03 
5.155900e-02 4.672374e+03 
5.238100e-02 4.581959e+03 
5.378200e-02 4.424723e+03 
5.513400e-02 4.269860e+03 
5.627600e-02 4.138465e+03 
5.735300e-02 4.015793e+03 
5.870100e-02 3.865693e+03 
5.988700e-02 3.738558e+03 
6.113500e-02 3.610429e+03 
6.225900e-02 3.500595e+03 
6.340100e-02 3.394648e+03 
6.480200e-02 3.272242e+03 
6.601100e-02 3.173770e+03 
6.725500e-02 3.079246e+03 
6.829100e-02 3.006340e+03 
6.958600e-02 2.921704e+03 
7.071100e-02 2.854669e+03 
7.192300e-02 2.788677e+03 
7.307400e-02 2.731712e+03 
7.412300e-02 2.684281e+03 
7.550400e-02 2.628269e+03 
7.663100e-02 2.586694e+03 
7.791200e-02 2.544257e+03 
7.912700e-02 2.507505e+03 
8.027600e-02 2.474930e+03 
8.138400e-02 2.444971e+03 
8.272200e-02 2.410087e+03 
8.406100e-02 2.375789e+03 
8.534100e-02 2.342532e+03 
8.653800e-02 2.310341e+03 
8.759800e-02 2.281050e+03 
8.900300e-02 2.240610e+03 
9.009000e-02 2.207649e+03 
9.113300e-02 2.174264e+03 
9.239600e-02 2.132713e+03 
9.358000e-02 2.092101e+03 
9.496100e-02 2.042387e+03 
9.608400e-02 2.001276e+03 
9.727500e-02 1.957467e+03 
9.852600e-02 1.909912e+03 
9.973800e-02 1.864450e+03 
1.009000e-01 1.821509e+03 
1.020900e-01 1.777971e+03 
1.034000e-01 1.731623e+03 
1.046000e-01 1.690602e+03 
1.057200e-01 1.654229e+03 
1.069100e-01 1.617133e+03 
1.082500e-01 1.578091e+03 
1.093900e-01 1.547111e+03 
1.105400e-01 1.517425e+03 
1.116900e-01 1.490526e+03 
1.129600e-01 1.462374e+03 
1.142000e-01 1.437638e+03 
1.153300e-01 1.416508e+03 
1.166400e-01 1.393934e+03 
1.177800e-01 1.375933e+03 
1.190000e-01 1.357668e+03 
1.201200e-01 1.342263e+03 
1.213400e-01 1.326049e+03 
1.227100e-01 1.309057e+03 
1.238900e-01 1.294822e+03 
1.250700e-01 1.280959e+03 
1.263200e-01 1.266472e+03 
1.275500e-01 1.252227e+03 
1.287500e-01 1.238285e+03 
1.299900e-01 1.223632e+03 
1.311300e-01 1.209937e+03 
1.323500e-01 1.194812e+03 
1.335900e-01 1.179144e+03 
1.347100e-01 1.164451e+03 
1.359800e-01 1.147612e+03 
1.372100e-01 1.130590e+03 
1.384300e-01 1.113688e+03 
1.395700e-01 1.097283e+03 
1.407700e-01 1.080294e+03 
1.420300e-01 1.061859e+03 
1.432800e-01 1.044002e+03 
1.444500e-01 1.027116e+03 
1.456300e-01 1.010462e+03 
1.468900e-01 9.931099e+02 
1.480500e-01 9.775013e+02 
1.491700e-01 9.629547e+02 
1.503800e-01 9.478353e+02 
1.516400e-01 9.326024e+02 
1.528200e-01 9.193553e+02 
1.540200e-01 9.061597e+02 
1.551900e-01 8.943541e+02 
1.564300e-01 8.822857e+02 
1.576600e-01 8.709863e+02 
1.588700e-01 8.606051e+02 
1.600900e-01 8.503758e+02 
1.612700e-01 8.413612e+02 
1.625400e-01 8.318404e+02 
1.637600e-01 8.230994e+02 
1.649500e-01 8.148632e+02 
1.662200e-01 8.062378e+02 
1.674000e-01 7.983914e+02 
1.685000e-01 7.911988e+02 
1.697500e-01 7.830207e+02 
1.710300e-01 7.746553e+02 
1.722200e-01 7.670162e+02 
1.734400e-01 7.588653e+02 
1.746400e-01 7.509680e+02 
1.758700e-01 7.428451e+02 
1.770900e-01 7.345864e+02 
1.782700e-01 7.267350e+02 
1.794600e-01 7.186865e+02 
1.807000e-01 7.102673e+02 
1.819100e-01 7.021948e+02 
1.830100e-01 6.947414e+02 
1.842200e-01 6.866367e+02 
1.855000e-01 6.782087e+02 
1.867000e-01 6.703288e+02 
1.879200e-01 6.624535e+02 
1.890900e-01 6.550310e+02 
1.902800e-01 6.476272e+02 
1.915200e-01 6.400413e+02 
1.926900e-01 6.330350e+02 
1.939000e-01 6.260149e+02 
1.951700e-01 6.187692e+02 
1.963100e-01 6.124212e+02 
1.975100e-01 6.059797e+02 
1.987800e-01 5.992723e+02 
2.000100e-01 5.929408e+02 
2.012500e-01 5.867964e+02 
2.023400e-01 5.814752e+02 
2.036100e-01 5.754008e+02 
2.048900e-01 5.695049e+02 
2.060400e-01 5.642875e+02 
2.072200e-01 5.590184e+02 
2.084200e-01 5.538314e+02 
2.096900e-01 5.484240e+02 
2.109200e-01 5.432657e+02 
2.121100e-01 5.383826e+02 
2.132700e-01 5.336910e+02 
2.145200e-01 5.287073e+02 
2.157200e-01 5.239844e+02 
2.168800e-01 5.194784e+02 
2.180700e-01 5.149192e+02 
2.193400e-01 5.101067e+02 
2.206000e-01 5.053720e+02 
2.217500e-01 5.011104e+02 
2.229500e-01 4.967232e+02 
2.241400e-01 4.923702e+02 
2.253500e-01 4.880028e+02 
2.264900e-01 4.839426e+02 
2.277100e-01 4.796258e+02 
2.289900e-01 4.751277e+02 
2.301500e-01 4.711068e+02 
2.313600e-01 4.669674e+02 
2.325600e-01 4.628659e+02 
2.337700e-01 4.587851e+02 
2.350000e-01 4.546926e+02 
2.362000e-01 4.507378e+02 
2.374100e-01 4.467847e+02 
2.386500e-01 4.427874e+02 
2.399100e-01 4.387805e+02 
2.410400e-01 4.352244e+02 
2.422500e-01 4.314631e+02 
2.435000e-01 4.276284e+02 
2.447300e-01 4.239057e+02 
2.458700e-01 4.205025e+02 
2.470600e-01 4.169935e+02 
2.483300e-01 4.132967e+02 
2.495600e-01 4.097708e+02 
2.507600e-01 4.063849e+02 
2.519600e-01 4.030409e+02 
2.532200e-01 3.995739e+02 
2.543700e-01 3.964639e+02 
2.555500e-01 3.933209e+02 
2.568000e-01 3.900323e+02 
2.580100e-01 3.868883e+02 
2.592400e-01 3.837499e+02 
2.604100e-01 3.808083e+02 
2.616100e-01 3.778266e+02 
2.628400e-01 3.748069e+02 
2.640600e-01 3.718681e+02 
2.652200e-01 3.691142e+02 
2.664300e-01 3.662745e+02 
2.676500e-01 3.634449e+02 
2.688400e-01 3.607292e+02 
2.700700e-01 3.579625e+02 
2.712400e-01 3.553607e+02 
2.724800e-01 3.526347e+02 
2.736700e-01 3.500570e+02 
2.748800e-01 3.474743e+02 
2.761000e-01 3.448998e+02 
2.773200e-01 3.423543e+02 
2.785400e-01 3.398405e+02 
2.797000e-01 3.374827e+02 
2.808900e-01 3.350900e+02 
2.821400e-01 3.326045e+02 
2.833900e-01 3.301473e+02 
2.845500e-01 3.278953e+02 
2.857800e-01 3.255330e+02 
2.870300e-01 3.231589e+02 
2.882100e-01 3.209420e+02 
2.893900e-01 3.187497e+02 
2.906300e-01 3.164714e+02 
2.918900e-01 3.141819e+02 
2.930500e-01 3.120963e+02 
2.942500e-01 3.099607e+02 
2.954200e-01 3.078984e+02 
2.966500e-01 3.057530e+02 
2.978900e-01 3.036131e+02 
2.990400e-01 3.016490e+02 
3.002700e-01 2.995681e+02 
3.015100e-01 2.974916e+02 
3.026800e-01 2.955524e+02 
3.038500e-01 2.936325e+02 
3.050300e-01 2.917152e+02 
3.062600e-01 2.897336e+02 
3.075000e-01 2.877565e+02 
3.087000e-01 2.858627e+02 
3.099100e-01 2.839723e+02 
3.111200e-01 2.821006e+02 
3.123100e-01 2.802777e+02 
3.135300e-01 2.784273e+02 
3.147300e-01 2.766253e+02 
3.159900e-01 2.747522e+02 
3.171800e-01 2.730011e+02 
3.183700e-01 2.712671e+02 
3.196300e-01 2.694492e+02 
3.208400e-01 2.677208e+02 
3.220300e-01 2.660372e+02 
3.232000e-01 2.643996e+02 
3.244300e-01 2.626951e+02 
3.256700e-01 2.609937e+02 
3.269200e-01 2.592953e+02 
3.280800e-01 2.577342e+02 
3.292500e-01 2.561777e+02 
3.304800e-01 2.545579e+02 
3.317100e-01 2.529537e+02 
3.328900e-01 2.514290e+02 
3.340700e-01 2.499182e+02 
3.353600e-01 2.482871e+02 
3.365300e-01 2.468235e+02 
3.377100e-01 2.453607e+02 
3.389200e-01 2.438743e+02 
3.401600e-01 2.423652e+02 
3.413700e-01 2.409118e+02 
3.425300e-01 2.395346e+02 
3.437700e-01 2.380758e+02 
3.449800e-01 2.366652e+02 
3.461800e-01 2.352789e+02 
3.473600e-01 2.339304e+02 
3.485800e-01 2.325550e+02 
3.498100e-01 2.311809e+02 
3.510200e-01 2.298413e+02 
3.522000e-01 2.285462e+02 
3.533900e-01 2.272514e+02 
3.546400e-01 2.259136e+02 
3.558400e-01 2.246412e+02 
3.570600e-01 2.233589e+02 
3.582700e-01 2.220982e+02 
3.595000e-01 2.208278e+02 
3.607100e-01 2.195948e+02 
3.618900e-01 2.184072e+02 
3.631200e-01 2.171797e+02 
3.643200e-01 2.159925e+02 
3.655500e-01 2.147859e+02 
3.667300e-01 2.136381e+02 
3.679500e-01 2.124723e+02 
3.691900e-01 2.112975e+02 
3.703600e-01 2.101982e+02 
3.715700e-01 2.090707e+02 
3.727700e-01 2.079617e+02 
3.739900e-01 2.068472e+02 
3.752000e-01 2.057575e+02 
3.763900e-01 2.046945e+02 
3.775800e-01 2.036401e+02 
3.788200e-01 2.025504e+02 
3.800300e-01 2.014958e+02 
3.812100e-01 2.004810e+02 
3.824200e-01 1.994525e+02 
3.836100e-01 1.984490e+02 
3.848600e-01 1.974034e+02 
3.860400e-01 1.964243e+02 
3.872400e-01 1.954364e+02 
3.884600e-01 1.944466e+02 
3.896500e-01 1.934914e+02 
3.908700e-01 1.925197e+02 
3.920600e-01 1.915793e+02 
3.933100e-01 1.905992e+02 
3.945300e-01 1.896503e+02 
3.957200e-01 1.887386e+02 
3.969300e-01 1.878206e+02 
3.981700e-01 1.868872e+02 
3.993500e-01 1.860058e+02 
4.094840e-01 1.787329e+02 
4.272360e-01 1.672037e+02 
4.454600e-01 1.566872e+02 
4.630560e-01 1.475923e+02 
4.804610e-01 1.394631e+02 
4.980690e-01 1.319917e+02 
5.159230e-01 1.250862e+02 
5.317440e-01 1.194646e+02 
5.489640e-01 1.138192e+02 
5.671990e-01 1.083229e+02 
5.838690e-01 1.036851e+02 
6.018840e-01 9.904880e+01 
6.202330e-01 9.469212e+01 
6.379250e-01 9.080051e+01 
6.545410e-01 8.740469e+01 
6.714560e-01 8.417544e+01 
6.892080e-01 8.101524e+01 
7.066010e-01 7.812845e+01 
7.240540e-01 7.541699e+01 
7.420450e-01 7.280585e+01 
7.593780e-01 7.045023e+01 
7.764720e-01 6.826455e+01 
7.942840e-01 6.612314e+01 
8.116170e-01 6.416307e+01 
8.288310e-01 6.232753e+01 
8.462240e-01 6.057511e+01 
8.631980e-01 5.895668e+01 
8.810700e-01 5.734319e+01 
8.989410e-01 5.581537e+01 
9.166330e-01 5.438141e+01 
9.345640e-01 5.300184e+01 
9.515980e-01 5.175474e+01 
9.688720e-01 5.054915e+01 
9.865640e-01 4.937256e+01 
1.031870e+00 4.659284e+01 
1.063490e+00 4.483126e+01 
1.097920e+00 4.306025e+01 
1.134370e+00 4.132882e+01 
1.167730e+00 3.986092e+01 
1.203830e+00 3.838341e+01 
1.240470e+00 3.698882e+01 
1.275790e+00 3.573384e+01 
1.309140e+00 3.462234e+01 
1.342970e+00 3.355913e+01 
1.378420e+00 3.250983e+01 
1.413200e+00 3.153872e+01 
1.448110e+00 3.061616e+01 
1.484090e+00 2.971661e+01 
1.518820e+00 2.889309e+01 
1.552880e+00 2.812463e+01 
1.588630e+00 2.735653e+01 
1.623230e+00 2.664856e+01 
1.657720e+00 2.597494e+01 
1.692450e+00 2.532667e+01 
1.726400e+00 2.471940e+01 
1.762200e+00 2.410561e+01 
1.797880e+00 2.352023e+01 
1.833270e+00 2.296363e+01 
1.869070e+00 2.242284e+01 
1.903200e+00 2.192753e+01 
1.937740e+00 2.144493e+01 
1.973190e+00 2.096771e+01 
2.007440e+00 2.052343e+01 
2.042160e+00 2.008896e+01 
2.077900e+00 1.965738e+01 
2.112390e+00 1.925537e+01 
2.146220e+00 1.887369e+01 
2.181600e+00 1.848781e+01 
2.216930e+00 1.811500e+01 
2.250760e+00 1.776935e+01 
2.286500e+00 1.741572e+01 
2.321770e+00 1.707780e+01 
2.355950e+00 1.676020e+01 
2.391280e+00 1.644125e+01 
2.426240e+00 1.613501e+01 
2.460670e+00 1.584234e+01 
2.495640e+00 1.555385e+01 
2.531080e+00 1.526914e+01 
2.566220e+00 1.499483e+01 
2.600830e+00 1.473224e+01 
2.635080e+00 1.447951e+01 
2.670340e+00 1.422557e+01 
2.705970e+00 1.397603e+01 
2.740040e+00 1.374385e+01 
2.774520e+00 1.351449e+01 
2.809730e+00 1.328603e+01 
2.844390e+00 1.306702e+01 
2.879960e+00 1.284776e+01 
2.914860e+00 1.263769e+01 
2.949410e+00 1.243499e+01 
2.984440e+00 1.223412e+01 
3.019760e+00 1.203643e+01 
3.054730e+00 1.184563e+01 
3.089030e+00 1.166208e+01 
3.124060e+00 1.147917e+01 
3.159560e+00 1.129807e+01 
3.194710e+00 1.112266e+01 
3.229010e+00 1.095564e+01 
3.263320e+00 1.079143e+01 
3.297930e+00 1.062970e+01 
3.332830e+00 1.047004e+01 
3.368040e+00 1.031236e+01 
3.403300e+00 1.015797e+01 
3.438450e+00 1.000704e+01 
3.473060e+00 9.861908e+00 
3.508440e+00 9.715998e+00 
3.543110e+00 9.576347e+00 
3.577470e+00 9.440302e+00 
3.613040e+00 9.302597e+00 
3.648120e+00 9.169318e+00 
3.682910e+00 9.039899e+00 
3.718050e+00 8.911540e+00 
3.753320e+00 8.785349e+00 
3.787980e+00 8.663651e+00 
3.822290e+00 8.545553e+00 
3.857020e+00 8.428151e+00 
3.891920e+00 8.312497e+00 
3.926650e+00 8.199382e+00 
3.961970e+00 8.086645e+00 
3.997360e+00 7.975580e+00 
4.031670e+00 7.870114e+00 
4.066330e+00 7.765275e+00 
4.101420e+00 7.661378e+00 
4.136200e+00 7.559781e+00 
4.170810e+00 7.460803e+00 
4.206250e+00 7.361030e+00 
4.241580e+00 7.263563e+00 
4.276300e+00 7.169340e+00 
4.310970e+00 7.076935e+00 
4.346120e+00 6.984922e+00 
4.380600e+00 6.896091e+00 
4.414730e+00 6.809883e+00 
4.450350e+00 6.721160e+00 
4.485320e+00 6.635801e+00 
4.519810e+00 6.552858e+00 
4.555430e+00 6.468696e+00 
4.590870e+00 6.386457e+00 
4.625480e+00 6.307375e+00 
4.659910e+00 6.230195e+00 
4.695230e+00 6.152122e+00 
4.729960e+00 6.076750e+00 
4.764450e+00 6.003120e+00 
4.799530e+00 5.929336e+00 
4.834910e+00 5.856315e+00 
4.869700e+00 5.785512e+00 
4.904370e+00 5.716185e+00 
4.939450e+00 5.647219e+00 
4.973940e+00 5.580388e+00 
5.008430e+00 5.514745e+00 
5.043810e+00 5.448392e+00 
5.078840e+00 5.383744e+00 
5.113500e+00 5.320907e+00 
5.148890e+00 5.257538e+00 
5.184210e+00 5.195398e+00 
5.219060e+00 5.135098e+00 
5.253660e+00 5.076098e+00 
5.288570e+00 5.017587e+00 
5.323420e+00 4.960046e+00 
5.358440e+00 4.903067e+00 
5.393590e+00 4.846848e+00 
5.428310e+00 4.792098e+00 
5.462800e+00 4.738532e+00 
5.497640e+00 4.685314e+00 
5.532670e+00 4.632540e+00 
5.567280e+00 4.581205e+00 
5.602000e+00 4.530542e+00 
5.637270e+00 4.479770e+00 
5.672410e+00 4.429977e+00 
5.707020e+00 4.381722e+00 
5.742040e+00 4.333559e+00 
5.777430e+00 4.285644e+00 
5.812210e+00 4.239304e+00 
5.846820e+00 4.193800e+00 
5.881610e+00 4.148742e+00 
5.916510e+00 4.104245e+00 
5.951600e+00 4.060119e+00 
5.986560e+00 4.016800e+00 
6.021830e+00 3.973771e+00 
6.056490e+00 3.932078e+00 
6.091160e+00 3.890956e+00 
6.125830e+00 3.850452e+00 
6.161090e+00 3.809859e+00 
6.195760e+00 3.770502e+00 
6.230420e+00 3.731738e+00 
6.265690e+00 3.692873e+00 
6.300950e+00 3.654521e+00 
6.335620e+00 3.617365e+00 
6.370880e+00 3.580129e+00 
6.405550e+00 3.544018e+00 
6.440220e+00 3.508414e+00 
6.475480e+00 3.472726e+00 
6.510150e+00 3.438129e+00 
6.544810e+00 3.404011e+00 
6.580080e+00 3.369785e+00 
6.614750e+00 3.336616e+00 
6.649410e+00 3.303901e+00 
6.684080e+00 3.271626e+00 
6.719340e+00 3.239259e+00 
6.754010e+00 3.207873e+00 
6.788680e+00 3.176910e+00 
6.823940e+00 3.145853e+00 
6.859800e+00 3.114707e+00 
6.894470e+00 3.085003e+00 
6.929140e+00 3.055696e+00 
6.963800e+00 3.026790e+00 
6.999070e+00 2.997770e+00 
7.033730e+00 2.969651e+00 
7.068400e+00 2.941895e+00 
7.103660e+00 2.914040e+00 
7.138330e+00 2.887017e+00 
7.173600e+00 2.859897e+00 
7.208260e+00 2.833595e+00 
7.243530e+00 2.807178e+00 
7.277600e+00 2.781995e+00 
7.312860e+00 2.756273e+00 
7.348120e+00 2.730885e+00 
7.382790e+00 2.706240e+00 
7.417460e+00 2.681924e+00 
7.452720e+00 2.657517e+00 
7.487390e+00 2.633821e+00 
7.522650e+00 2.610024e+00 
7.557320e+00 2.586954e+00 
7.591990e+00 2.564181e+00 
7.627250e+00 2.541308e+00 
7.662510e+00 2.518720e+00 
7.697180e+00 2.496813e+00 
7.731850e+00 2.475184e+00 
7.766510e+00 2.453822e+00 
7.801180e+00 2.432711e+00 
7.836440e+00 2.411523e+00 
7.871110e+00 2.390954e+00 
7.906380e+00 2.370280e+00 
7.941040e+00 2.350206e+00 
7.976310e+00 2.330041e+00 
8.011570e+00 2.310145e+00 
8.046240e+00 2.290812e+00 
8.080900e+00 2.271710e+00 
8.115570e+00 2.252837e+00 
8.150830e+00 2.233918e+00 
8.185500e+00 2.215531e+00 
8.220770e+00 2.197041e+00 
8.255430e+00 2.179081e+00 
8.290100e+00 2.161357e+00 
8.324770e+00 2.143839e+00 
8.359430e+00 2.126523e+00 
8.394700e+00 2.109102e+00 
8.429960e+00 2.091912e+00 
8.464630e+00 2.075228e+00 
8.499890e+00 2.058449e+00 
8.534560e+00 2.042135e+00 
8.569200e+00 2.026015e+00 
