# Parameters:
# omega_b = 0.022224, omega_m = 0.142047, n_s = 0.920866, h = 84.527559, w = -1.000000, sigma_8 = 0.887402
# z = 1.700000
#
# k[1/Mpc] # P(k):
8.694000e-04 4.305674e+03 
2.077466e-03 8.850055e+03 
3.285532e-03 1.229059e+04 
4.493598e-03 1.488038e+04 
5.701664e-03 1.676062e+04 
6.909730e-03 1.806161e+04 
8.117797e-03 1.891893e+04 
9.325863e-03 1.940223e+04 
1.053393e-02 1.957738e+04 
1.174199e-02 1.950289e+04 
1.295006e-02 1.921737e+04 
1.415813e-02 1.877174e+04 
1.536619e-02 1.820716e+04 
1.657426e-02 1.755136e+04 
1.778233e-02 1.683139e+04 
1.899039e-02 1.608645e+04 
2.019846e-02 1.533731e+04 
2.140652e-02 1.460178e+04 
2.261459e-02 1.388974e+04 
2.382266e-02 1.321335e+04 
2.503072e-02 1.258125e+04 
2.623879e-02 1.199645e+04 
2.744685e-02 1.145962e+04 
2.865492e-02 1.097214e+04 
2.986299e-02 1.053152e+04 
3.100100e-02 1.015822e+04 
3.220400e-02 9.804161e+03 
3.288100e-02 9.622869e+03 
3.424300e-02 9.291783e+03 
3.555100e-02 9.010457e+03 
3.686000e-02 8.759809e+03 
3.795000e-02 8.570099e+03 
3.929100e-02 8.356500e+03 
4.039800e-02 8.191396e+03 
4.164000e-02 8.014515e+03 
4.294400e-02 7.831760e+03 
4.415000e-02 7.664876e+03 
4.542900e-02 7.482882e+03 
4.660900e-02 7.312957e+03 
4.782300e-02 7.127980e+03 
4.892900e-02 6.955528e+03 
5.031200e-02 6.732008e+03 
5.155900e-02 6.522804e+03 
5.238100e-02 6.382131e+03 
5.378200e-02 6.138702e+03 
5.513400e-02 5.898810e+03 
5.627600e-02 5.693092e+03 
5.735300e-02 5.497049e+03 
5.870100e-02 5.249157e+03 
5.988700e-02 5.030972e+03 
6.113500e-02 4.803886e+03 
6.225900e-02 4.605559e+03 
6.340100e-02 4.414658e+03 
6.480200e-02 4.199118e+03 
6.601100e-02 4.034600e+03 
6.725500e-02 3.886594e+03 
6.829100e-02 3.780816e+03 
6.958600e-02 3.665489e+03 
7.071100e-02 3.580658e+03 
7.192300e-02 3.501862e+03 
7.307400e-02 3.437236e+03 
7.412300e-02 3.385435e+03 
7.550400e-02 3.326363e+03 
7.663100e-02 3.283269e+03 
7.791200e-02 3.239393e+03 
7.912700e-02 3.200452e+03 
8.027600e-02 3.164642e+03 
8.138400e-02 3.130279e+03 
8.272200e-02 3.087924e+03 
8.406100e-02 3.043580e+03 
8.534100e-02 2.997518e+03 
8.653800e-02 2.950722e+03 
8.759800e-02 2.907032e+03 
8.900300e-02 2.845318e+03 
9.009000e-02 2.794260e+03 
9.113300e-02 2.742345e+03 
9.239600e-02 2.677801e+03 
9.358000e-02 2.615057e+03 
9.496100e-02 2.539266e+03 
9.608400e-02 2.477410e+03 
9.727500e-02 2.412211e+03 
9.852600e-02 2.343326e+03 
9.973800e-02 2.278526e+03 
1.009000e-01 2.218187e+03 
1.020900e-01 2.159148e+03 
1.034000e-01 2.097411e+03 
1.046000e-01 2.043901e+03 
1.057200e-01 1.998345e+03 
1.069100e-01 1.952588e+03 
1.082500e-01 1.906412e+03 
1.093900e-01 1.870969e+03 
1.105400e-01 1.837712e+03 
1.116900e-01 1.809091e+03 
1.129600e-01 1.779604e+03 
1.142000e-01 1.754820e+03 
1.153300e-01 1.733899e+03 
1.166400e-01 1.711962e+03 
1.177800e-01 1.694413e+03 
1.190000e-01 1.676586e+03 
1.201200e-01 1.660787e+03 
1.213400e-01 1.644021e+03 
1.227100e-01 1.624623e+03 
1.238900e-01 1.607925e+03 
1.250700e-01 1.590182e+03 
1.263200e-01 1.571077e+03 
1.275500e-01 1.551053e+03 
1.287500e-01 1.530974e+03 
1.299900e-01 1.509131e+03 
1.311300e-01 1.488551e+03 
1.323500e-01 1.465592e+03 
1.335900e-01 1.441964e+03 
1.347100e-01 1.419996e+03 
1.359800e-01 1.395138e+03 
1.372100e-01 1.370596e+03 
1.384300e-01 1.346578e+03 
1.395700e-01 1.324030e+03 
1.407700e-01 1.300816e+03 
1.420300e-01 1.276741e+03 
1.432800e-01 1.253443e+03 
1.444500e-01 1.232449e+03 
1.456300e-01 1.211751e+03 
1.468900e-01 1.190832e+03 
1.480500e-01 1.172205e+03 
1.491700e-01 1.155101e+03 
1.503800e-01 1.137652e+03 
1.516400e-01 1.120137e+03 
1.528200e-01 1.105218e+03 
1.540200e-01 1.090350e+03 
1.551900e-01 1.077193e+03 
1.564300e-01 1.063777e+03 
1.576600e-01 1.051211e+03 
1.588700e-01 1.039665e+03 
1.600900e-01 1.028275e+03 
1.612700e-01 1.018073e+03 
1.625400e-01 1.007297e+03 
1.637600e-01 9.972168e+02 
1.649500e-01 9.876064e+02 
1.662200e-01 9.774868e+02 
1.674000e-01 9.679777e+02 
1.685000e-01 9.592609e+02 
1.697500e-01 9.491831e+02 
1.710300e-01 9.387120e+02 
1.722200e-01 9.291509e+02 
1.734400e-01 9.187185e+02 
1.746400e-01 9.086040e+02 
1.758700e-01 8.981710e+02 
1.770900e-01 8.875027e+02 
1.782700e-01 8.773642e+02 
1.794600e-01 8.669841e+02 
1.807000e-01 8.561365e+02 
1.819100e-01 8.457398e+02 
1.830100e-01 8.362329e+02 
1.842200e-01 8.259138e+02 
1.855000e-01 8.151942e+02 
1.867000e-01 8.053347e+02 
1.879200e-01 7.954835e+02 
1.890900e-01 7.862300e+02 
1.902800e-01 7.771505e+02 
1.915200e-01 7.678490e+02 
1.926900e-01 7.592969e+02 
1.939000e-01 7.508511e+02 
1.951700e-01 7.421342e+02 
1.963100e-01 7.345276e+02 
1.975100e-01 7.268902e+02 
1.987800e-01 7.189371e+02 
2.000100e-01 7.114456e+02 
2.012500e-01 7.042137e+02 
2.023400e-01 6.979502e+02 
2.036100e-01 6.907983e+02 
2.048900e-01 6.838510e+02 
2.060400e-01 6.777027e+02 
2.072200e-01 6.714896e+02 
2.084200e-01 6.653285e+02 
2.096900e-01 6.589052e+02 
2.109200e-01 6.527776e+02 
2.121100e-01 6.469143e+02 
2.132700e-01 6.412776e+02 
2.145200e-01 6.352901e+02 
2.157200e-01 6.295782e+02 
2.168800e-01 6.241116e+02 
2.180700e-01 6.185806e+02 
2.193400e-01 6.127316e+02 
2.206000e-01 6.069573e+02 
2.217500e-01 6.017603e+02 
2.229500e-01 5.964105e+02 
2.241400e-01 5.911095e+02 
2.253500e-01 5.857913e+02 
2.264900e-01 5.808475e+02 
2.277100e-01 5.756117e+02 
2.289900e-01 5.701780e+02 
2.301500e-01 5.653210e+02 
2.313600e-01 5.603215e+02 
2.325600e-01 5.554331e+02 
2.337700e-01 5.505693e+02 
2.350000e-01 5.456913e+02 
2.362000e-01 5.410107e+02 
2.374100e-01 5.363709e+02 
2.386500e-01 5.316789e+02 
2.399100e-01 5.269751e+02 
2.410400e-01 5.228572e+02 
2.422500e-01 5.185082e+02 
2.435000e-01 5.140736e+02 
2.447300e-01 5.097776e+02 
2.458700e-01 5.058887e+02 
2.470600e-01 5.018781e+02 
2.483300e-01 4.976520e+02 
2.495600e-01 4.936320e+02 
2.507600e-01 4.897867e+02 
2.519600e-01 4.859879e+02 
2.532200e-01 4.820487e+02 
2.543700e-01 4.785161e+02 
2.555500e-01 4.749466e+02 
2.568000e-01 4.712108e+02 
2.580100e-01 4.676384e+02 
2.592400e-01 4.640610e+02 
2.604100e-01 4.607025e+02 
2.616100e-01 4.572976e+02 
2.628400e-01 4.538485e+02 
2.640600e-01 4.504712e+02 
2.652200e-01 4.472980e+02 
2.664300e-01 4.440255e+02 
2.676500e-01 4.407639e+02 
2.688400e-01 4.376141e+02 
2.700700e-01 4.343926e+02 
2.712400e-01 4.313627e+02 
2.724800e-01 4.281876e+02 
2.736700e-01 4.251707e+02 
2.748800e-01 4.221328e+02 
2.761000e-01 4.191041e+02 
2.773200e-01 4.161094e+02 
2.785400e-01 4.131444e+02 
2.797000e-01 4.103485e+02 
2.808900e-01 4.075107e+02 
2.821400e-01 4.045628e+02 
2.833900e-01 4.016476e+02 
2.845500e-01 3.989610e+02 
2.857800e-01 3.961428e+02 
2.870300e-01 3.933103e+02 
2.882100e-01 3.906652e+02 
2.893900e-01 3.880442e+02 
2.906300e-01 3.853173e+02 
2.918900e-01 3.825768e+02 
2.930500e-01 3.800804e+02 
2.942500e-01 3.775233e+02 
2.954200e-01 3.750525e+02 
2.966500e-01 3.724819e+02 
2.978900e-01 3.699179e+02 
2.990400e-01 3.675643e+02 
3.002700e-01 3.650721e+02 
3.015100e-01 3.625858e+02 
3.026800e-01 3.602638e+02 
3.038500e-01 3.579647e+02 
3.050300e-01 3.556689e+02 
3.062600e-01 3.533009e+02 
3.075000e-01 3.509382e+02 
3.087000e-01 3.486749e+02 
3.099100e-01 3.464154e+02 
3.111200e-01 3.441803e+02 
3.123100e-01 3.420069e+02 
3.135300e-01 3.398006e+02 
3.147300e-01 3.376519e+02 
3.159900e-01 3.354182e+02 
3.171800e-01 3.333334e+02 
3.183700e-01 3.312711e+02 
3.196300e-01 3.291090e+02 
3.208400e-01 3.270531e+02 
3.220300e-01 3.250505e+02 
3.232000e-01 3.231055e+02 
3.244300e-01 3.210824e+02 
3.256700e-01 3.190626e+02 
3.269200e-01 3.170464e+02 
3.280800e-01 3.151929e+02 
3.292500e-01 3.133475e+02 
3.304800e-01 3.114276e+02 
3.317100e-01 3.095260e+02 
3.328900e-01 3.077185e+02 
3.340700e-01 3.059273e+02 
3.353600e-01 3.039945e+02 
3.365300e-01 3.022604e+02 
3.377100e-01 3.005271e+02 
3.389200e-01 2.987656e+02 
3.401600e-01 2.969771e+02 
3.413700e-01 2.952541e+02 
3.425300e-01 2.936211e+02 
3.437700e-01 2.918911e+02 
3.449800e-01 2.902181e+02 
3.461800e-01 2.885738e+02 
3.473600e-01 2.869735e+02 
3.485800e-01 2.853399e+02 
3.498100e-01 2.837075e+02 
3.510200e-01 2.821159e+02 
3.522000e-01 2.805771e+02 
3.533900e-01 2.790386e+02 
3.546400e-01 2.774449e+02 
3.558400e-01 2.759289e+02 
3.570600e-01 2.744008e+02 
3.582700e-01 2.728984e+02 
3.595000e-01 2.713843e+02 
3.607100e-01 2.699120e+02 
3.618900e-01 2.684918e+02 
3.631200e-01 2.670239e+02 
3.643200e-01 2.656039e+02 
3.655500e-01 2.641608e+02 
3.667300e-01 2.627878e+02 
3.679500e-01 2.613875e+02 
3.691900e-01 2.599762e+02 
3.703600e-01 2.586556e+02 
3.715700e-01 2.573010e+02 
3.727700e-01 2.559686e+02 
3.739900e-01 2.546272e+02 
3.752000e-01 2.533117e+02 
3.763900e-01 2.520284e+02 
3.775800e-01 2.507554e+02 
3.788200e-01 2.494397e+02 
3.800300e-01 2.481662e+02 
3.812100e-01 2.469374e+02 
3.824200e-01 2.456895e+02 
3.836100e-01 2.444719e+02 
3.848600e-01 2.432033e+02 
3.860400e-01 2.420152e+02 
3.872400e-01 2.408164e+02 
3.884600e-01 2.396111e+02 
3.896500e-01 2.384461e+02 
3.908700e-01 2.372610e+02 
3.920600e-01 2.361141e+02 
3.933100e-01 2.349188e+02 
3.945300e-01 2.337614e+02 
3.957200e-01 2.326449e+02 
3.969300e-01 2.315193e+02 
3.981700e-01 2.303747e+02 
3.993500e-01 2.292939e+02 
4.094840e-01 2.203566e+02 
4.272360e-01 2.060847e+02 
4.454600e-01 1.930158e+02 
4.630560e-01 1.817068e+02 
4.804610e-01 1.716211e+02 
4.980690e-01 1.623915e+02 
5.159230e-01 1.539039e+02 
5.317440e-01 1.470285e+02 
5.489640e-01 1.401580e+02 
5.671990e-01 1.335035e+02 
5.838690e-01 1.279083e+02 
6.018840e-01 1.223350e+02 
6.202330e-01 1.171134e+02 
6.379250e-01 1.124548e+02 
6.545410e-01 1.083971e+02 
6.714560e-01 1.045407e+02 
6.892080e-01 1.007673e+02 
7.066010e-01 9.732143e+01 
7.240540e-01 9.408222e+01 
7.420450e-01 9.096196e+01 
7.593780e-01 8.814401e+01 
7.764720e-01 8.552749e+01 
7.942840e-01 8.296082e+01 
8.116170e-01 8.060892e+01 
8.288310e-01 7.840301e+01 
8.462240e-01 7.629458e+01 
8.631980e-01 7.434449e+01 
8.810700e-01 7.239726e+01 
8.989410e-01 7.055038e+01 
9.166330e-01 6.881390e+01 
9.345640e-01 6.714185e+01 
9.515980e-01 6.562763e+01 
9.688720e-01 6.416069e+01 
9.865640e-01 6.272709e+01 
1.031870e+00 5.932983e+01 
1.063490e+00 5.716953e+01 
1.097920e+00 5.499132e+01 
1.134370e+00 5.285452e+01 
1.167730e+00 5.103774e+01 
1.203830e+00 4.920260e+01 
1.240470e+00 4.746537e+01 
1.275790e+00 4.589781e+01 
1.309140e+00 4.450607e+01 
1.342970e+00 4.316940e+01 
1.378420e+00 4.184782e+01 
1.413200e+00 4.062156e+01 
1.448110e+00 3.945410e+01 
1.484090e+00 3.831245e+01 
1.518820e+00 3.726520e+01 
1.552880e+00 3.628585e+01 
1.588630e+00 3.530508e+01 
1.623230e+00 3.439902e+01 
1.657720e+00 3.353529e+01 
1.692450e+00 3.270272e+01 
1.726400e+00 3.192178e+01 
1.762200e+00 3.113089e+01 
1.797880e+00 3.037514e+01 
1.833270e+00 2.965571e+01 
1.869070e+00 2.895583e+01 
1.903200e+00 2.831344e+01 
1.937740e+00 2.768708e+01 
1.973190e+00 2.706722e+01 
2.007440e+00 2.648959e+01 
2.042160e+00 2.592366e+01 
2.077900e+00 2.536094e+01 
2.112390e+00 2.483681e+01 
2.146220e+00 2.433830e+01 
2.181600e+00 2.383402e+01 
2.216930e+00 2.334620e+01 
2.250760e+00 2.289375e+01 
2.286500e+00 2.243071e+01 
2.321770e+00 2.198789e+01 
2.355950e+00 2.157141e+01 
2.391280e+00 2.115276e+01 
2.426240e+00 2.075056e+01 
2.460670e+00 2.036610e+01 
2.495640e+00 1.998715e+01 
2.531080e+00 1.961299e+01 
2.566220e+00 1.925205e+01 
2.600830e+00 1.890642e+01 
2.635080e+00 1.857381e+01 
2.670340e+00 1.823974e+01 
2.705970e+00 1.791120e+01 
2.740040e+00 1.760539e+01 
2.774520e+00 1.730331e+01 
2.809730e+00 1.700229e+01 
2.844390e+00 1.671372e+01 
2.879960e+00 1.642499e+01 
2.914860e+00 1.614824e+01 
2.949410e+00 1.588117e+01 
2.984440e+00 1.561643e+01 
3.019760e+00 1.535587e+01 
3.054730e+00 1.510440e+01 
3.089030e+00 1.486259e+01 
3.124060e+00 1.462171e+01 
3.159560e+00 1.438330e+01 
3.194710e+00 1.415231e+01 
3.229010e+00 1.393237e+01 
3.263320e+00 1.371619e+01 
3.297930e+00 1.350329e+01 
3.332830e+00 1.329316e+01 
3.368040e+00 1.308576e+01 
3.403300e+00 1.288276e+01 
3.438450e+00 1.268435e+01 
3.473060e+00 1.249360e+01 
3.508440e+00 1.230185e+01 
3.543110e+00 1.211839e+01 
3.577470e+00 1.193990e+01 
3.613040e+00 1.175924e+01 
3.648120e+00 1.158431e+01 
3.682910e+00 1.141458e+01 
3.718050e+00 1.124645e+01 
3.753320e+00 1.108116e+01 
3.787980e+00 1.092174e+01 
3.822290e+00 1.076712e+01 
3.857020e+00 1.061353e+01 
3.891920e+00 1.046228e+01 
3.926650e+00 1.031443e+01 
3.961970e+00 1.016715e+01 
3.997360e+00 1.002220e+01 
4.031670e+00 9.884585e+00 
4.066330e+00 9.747849e+00 
4.101420e+00 9.612376e+00 
4.136200e+00 9.480042e+00 
4.170810e+00 9.351148e+00 
4.206250e+00 9.221334e+00 
4.241580e+00 9.094566e+00 
4.276300e+00 8.972109e+00 
4.310970e+00 8.852080e+00 
4.346120e+00 8.732620e+00 
4.380600e+00 8.617371e+00 
4.414730e+00 8.505552e+00 
4.450350e+00 8.390569e+00 
4.485320e+00 8.279971e+00 
4.519810e+00 8.172647e+00 
4.555430e+00 8.063824e+00 
4.590870e+00 7.957517e+00 
4.625480e+00 7.855324e+00 
4.659910e+00 7.755611e+00 
4.695230e+00 7.654901e+00 
4.729960e+00 7.557716e+00 
4.764450e+00 7.462851e+00 
4.799530e+00 7.367897e+00 
4.834910e+00 7.273945e+00 
4.869700e+00 7.182901e+00 
4.904370e+00 7.093782e+00 
4.939450e+00 7.005176e+00 
4.973940e+00 6.919411e+00 
5.008430e+00 6.835188e+00 
5.043810e+00 6.750120e+00 
5.078840e+00 6.667284e+00 
5.113500e+00 6.586786e+00 
5.148890e+00 6.505758e+00 
5.184210e+00 6.426325e+00 
5.219060e+00 6.349273e+00 
5.253660e+00 6.273936e+00 
5.288570e+00 6.199239e+00 
5.323420e+00 6.125822e+00 
5.358440e+00 6.053164e+00 
5.393590e+00 5.981488e+00 
5.428310e+00 5.911788e+00 
5.462800e+00 5.843653e+00 
5.497640e+00 5.775974e+00 
5.532670e+00 5.708936e+00 
5.567280e+00 5.643758e+00 
5.602000e+00 5.579445e+00 
5.637270e+00 5.515053e+00 
5.672410e+00 5.451924e+00 
5.707020e+00 5.390757e+00 
5.742040e+00 5.329788e+00 
5.777430e+00 5.269159e+00 
5.812210e+00 5.210532e+00 
5.846820e+00 5.153018e+00 
5.881610e+00 5.096090e+00 
5.916510e+00 5.039880e+00 
5.951600e+00 4.984195e+00 
5.986560e+00 4.929560e+00 
6.021830e+00 4.875299e+00 
6.056490e+00 4.822775e+00 
6.091160e+00 4.771016e+00 
6.125830e+00 4.720042e+00 
6.161090e+00 4.668973e+00 
6.195760e+00 4.619485e+00 
6.230420e+00 4.570750e+00 
6.265690e+00 4.521901e+00 
6.300950e+00 4.473792e+00 
6.335620e+00 4.427190e+00 
6.370880e+00 4.380495e+00 
6.405550e+00 4.335240e+00 
6.440220e+00 4.290635e+00 
6.475480e+00 4.245930e+00 
6.510150e+00 4.202614e+00 
6.544810e+00 4.159938e+00 
6.580080e+00 4.117133e+00 
6.614750e+00 4.075657e+00 
6.649410e+00 4.034779e+00 
6.684080e+00 3.994463e+00 
6.719340e+00 3.954038e+00 
6.754010e+00 3.914859e+00 
6.788680e+00 3.876255e+00 
6.823940e+00 3.837538e+00 
6.859800e+00 3.798715e+00 
6.894470e+00 3.761728e+00 
6.929140e+00 3.725252e+00 
6.963800e+00 3.689279e+00 
6.999070e+00 3.653172e+00 
7.033730e+00 3.618207e+00 
7.068400e+00 3.583697e+00 
7.103660e+00 3.549070e+00 
7.138330e+00 3.515488e+00 
7.173600e+00 3.481804e+00 
7.208260e+00 3.449140e+00 
7.243530e+00 3.416337e+00 
7.277600e+00 3.385089e+00 
7.312860e+00 3.353194e+00 
7.348120e+00 3.321716e+00 
7.382790e+00 3.291163e+00 
7.417460e+00 3.261044e+00 
7.452720e+00 3.230827e+00 
7.487390e+00 3.201493e+00 
7.522650e+00 3.172038e+00 
7.557320e+00 3.143489e+00 
7.591990e+00 3.115314e+00 
7.627250e+00 3.087017e+00 
7.662510e+00 3.059075e+00 
7.697180e+00 3.031999e+00 
7.731850e+00 3.005277e+00 
7.766510e+00 2.978887e+00 
7.801180e+00 2.952810e+00 
7.836440e+00 2.926650e+00 
7.871110e+00 2.901263e+00 
7.906380e+00 2.875748e+00 
7.941040e+00 2.850976e+00 
7.976310e+00 2.826102e+00 
8.011570e+00 2.801572e+00 
8.046240e+00 2.777739e+00 
8.080900e+00 2.754192e+00 
8.115570e+00 2.730932e+00 
8.150830e+00 2.707620e+00 
8.185500e+00 2.684966e+00 
8.220770e+00 2.662188e+00 
8.255430e+00 2.640063e+00 
8.290100e+00 2.618257e+00 
8.324770e+00 2.596708e+00 
8.359430e+00 2.575409e+00 
8.394700e+00 2.553982e+00 
8.429960e+00 2.532844e+00 
8.464630e+00 2.512332e+00 
8.499890e+00 2.491706e+00 
8.534560e+00 2.471653e+00 
8.569200e+00 2.451839e+00 
