# Parameters:
# omega_b = 0.021705, omega_m = 0.125512, n_s = 1.020079, h = 58.070866, w = -1.000000, sigma_8 = 0.814961
# z = 1.700000
#
# k[1/Mpc] # P(k):
8.694000e-04 4.284658e+03 
2.077466e-03 9.484526e+03 
3.285532e-03 1.361351e+04 
4.493598e-03 1.678793e+04 
5.701664e-03 1.913666e+04 
6.909730e-03 2.078223e+04 
8.117797e-03 2.187058e+04 
9.325863e-03 2.247927e+04 
1.053393e-02 2.269004e+04 
1.174199e-02 2.258111e+04 
1.295006e-02 2.220075e+04 
1.415813e-02 2.161422e+04 
1.536619e-02 2.088014e+04 
1.657426e-02 2.003850e+04 
1.778233e-02 1.912336e+04 
1.899039e-02 1.818449e+04 
2.019846e-02 1.724966e+04 
2.140652e-02 1.634242e+04 
2.261459e-02 1.547594e+04 
2.382266e-02 1.466501e+04 
2.503072e-02 1.391931e+04 
2.623879e-02 1.324167e+04 
2.744685e-02 1.263371e+04 
2.865492e-02 1.209352e+04 
2.986299e-02 1.161647e+04 
3.100100e-02 1.122323e+04 
3.220400e-02 1.085991e+04 
3.288100e-02 1.067836e+04 
3.424300e-02 1.035358e+04 
3.555100e-02 1.008368e+04 
3.686000e-02 9.846998e+03 
3.795000e-02 9.668683e+03 
3.929100e-02 9.466071e+03 
4.039800e-02 9.305866e+03 
4.164000e-02 9.129336e+03 
4.294400e-02 8.937315e+03 
4.415000e-02 8.755540e+03 
4.542900e-02 8.547779e+03 
4.660900e-02 8.348336e+03 
4.782300e-02 8.123761e+03 
4.892900e-02 7.911324e+03 
5.031200e-02 7.632679e+03 
5.155900e-02 7.370056e+03 
5.238100e-02 7.193837e+03 
5.378200e-02 6.891701e+03 
5.513400e-02 6.602385e+03 
5.627600e-02 6.365332e+03 
5.735300e-02 6.152538e+03 
5.870100e-02 5.905686e+03 
5.988700e-02 5.709263e+03 
6.113500e-02 5.523263e+03 
6.225900e-02 5.372776e+03 
6.340100e-02 5.232991e+03 
6.480200e-02 5.073938e+03 
6.601100e-02 4.945509e+03 
6.725500e-02 4.819512e+03 
6.829100e-02 4.719674e+03 
6.958600e-02 4.600987e+03 
7.071100e-02 4.504810e+03 
7.192300e-02 4.408561e+03 
7.307400e-02 4.324304e+03 
7.412300e-02 4.253344e+03 
7.550400e-02 4.168315e+03 
7.663100e-02 4.104300e+03 
7.791200e-02 4.037373e+03 
7.912700e-02 3.977708e+03 
8.027600e-02 3.923417e+03 
8.138400e-02 3.872276e+03 
8.272200e-02 3.811102e+03 
8.406100e-02 3.749458e+03 
8.534100e-02 3.688396e+03 
8.653800e-02 3.628761e+03 
8.759800e-02 3.574439e+03 
8.900300e-02 3.499639e+03 
9.009000e-02 3.439168e+03 
9.113300e-02 3.378713e+03 
9.239600e-02 3.304298e+03 
9.358000e-02 3.232728e+03 
9.496100e-02 3.147092e+03 
9.608400e-02 3.077501e+03 
9.727500e-02 3.004320e+03 
9.852600e-02 2.927306e+03 
9.973800e-02 2.854780e+03 
1.009000e-01 2.787163e+03 
1.020900e-01 2.720733e+03 
1.034000e-01 2.650929e+03 
1.046000e-01 2.590089e+03 
1.057200e-01 2.537566e+03 
1.069100e-01 2.484439e+03 
1.082500e-01 2.429763e+03 
1.093900e-01 2.386947e+03 
1.105400e-01 2.346250e+03 
1.116900e-01 2.309833e+03 
1.129600e-01 2.271764e+03 
1.142000e-01 2.238267e+03 
1.153300e-01 2.209370e+03 
1.166400e-01 2.178054e+03 
1.177800e-01 2.152223e+03 
1.190000e-01 2.125590e+03 
1.201200e-01 2.101630e+03 
1.213400e-01 2.076129e+03 
1.227100e-01 2.047041e+03 
1.238900e-01 2.022224e+03 
1.250700e-01 1.996647e+03 
1.263200e-01 1.969555e+03 
1.275500e-01 1.942120e+03 
1.287500e-01 1.915214e+03 
1.299900e-01 1.886849e+03 
1.311300e-01 1.860711e+03 
1.323500e-01 1.832384e+03 
1.335900e-01 1.803768e+03 
1.347100e-01 1.777842e+03 
1.359800e-01 1.748858e+03 
1.372100e-01 1.720939e+03 
1.384300e-01 1.693810e+03 
1.395700e-01 1.668833e+03 
1.407700e-01 1.643125e+03 
1.420300e-01 1.616838e+03 
1.432800e-01 1.591362e+03 
1.444500e-01 1.568427e+03 
1.456300e-01 1.545785e+03 
1.468900e-01 1.522594e+03 
1.480500e-01 1.501836e+03 
1.491700e-01 1.482470e+03 
1.503800e-01 1.462322e+03 
1.516400e-01 1.441909e+03 
1.528200e-01 1.423739e+03 
1.540200e-01 1.405625e+03 
1.551900e-01 1.388754e+03 
1.564300e-01 1.371330e+03 
1.576600e-01 1.354576e+03 
1.588700e-01 1.338639e+03 
1.600900e-01 1.322887e+03 
1.612700e-01 1.308127e+03 
1.625400e-01 1.292541e+03 
1.637600e-01 1.277847e+03 
1.649500e-01 1.263771e+03 
1.662200e-01 1.248998e+03 
1.674000e-01 1.235357e+03 
1.685000e-01 1.222857e+03 
1.697500e-01 1.208740e+03 
1.710300e-01 1.194394e+03 
1.722200e-01 1.181298e+03 
1.734400e-01 1.167766e+03 
1.746400e-01 1.154677e+03 
1.758700e-01 1.141399e+03 
1.770900e-01 1.128263e+03 
1.782700e-01 1.115777e+03 
1.794600e-01 1.103279e+03 
1.807000e-01 1.090400e+03 
1.819100e-01 1.078051e+03 
1.830100e-01 1.066958e+03 
1.842200e-01 1.054945e+03 
1.855000e-01 1.042460e+03 
1.867000e-01 1.031023e+03 
1.879200e-01 1.019589e+03 
1.890900e-01 1.008826e+03 
1.902800e-01 9.981798e+02 
1.915200e-01 9.872669e+02 
1.926900e-01 9.771854e+02 
1.939000e-01 9.670850e+02 
1.951700e-01 9.566560e+02 
1.963100e-01 9.474975e+02 
1.975100e-01 9.381518e+02 
1.987800e-01 9.284174e+02 
2.000100e-01 9.191928e+02 
2.012500e-01 9.101619e+02 
2.023400e-01 9.023392e+02 
2.036100e-01 8.933815e+02 
2.048900e-01 8.845846e+02 
2.060400e-01 8.767989e+02 
2.072200e-01 8.689268e+02 
2.084200e-01 8.610787e+02 
2.096900e-01 8.528961e+02 
2.109200e-01 8.450897e+02 
2.121100e-01 8.376215e+02 
2.132700e-01 8.304416e+02 
2.145200e-01 8.228143e+02 
2.157200e-01 8.155483e+02 
2.168800e-01 8.085986e+02 
2.180700e-01 8.015664e+02 
2.193400e-01 7.941278e+02 
2.206000e-01 7.867807e+02 
2.217500e-01 7.801676e+02 
2.229500e-01 7.733595e+02 
2.241400e-01 7.665733e+02 
2.253500e-01 7.597637e+02 
2.264900e-01 7.534332e+02 
2.277100e-01 7.466851e+02 
2.289900e-01 7.396340e+02 
2.301500e-01 7.333313e+02 
2.313600e-01 7.268426e+02 
2.325600e-01 7.203763e+02 
2.337700e-01 7.139432e+02 
2.350000e-01 7.074919e+02 
2.362000e-01 7.012392e+02 
2.374100e-01 6.949673e+02 
2.386500e-01 6.886259e+02 
2.399100e-01 6.822698e+02 
2.410400e-01 6.766013e+02 
2.422500e-01 6.706028e+02 
2.435000e-01 6.644880e+02 
2.447300e-01 6.585492e+02 
2.458700e-01 6.531077e+02 
2.470600e-01 6.474977e+02 
2.483300e-01 6.415884e+02 
2.495600e-01 6.359549e+02 
2.507600e-01 6.305486e+02 
2.519600e-01 6.252096e+02 
2.532200e-01 6.196751e+02 
2.543700e-01 6.147269e+02 
2.555500e-01 6.097375e+02 
2.568000e-01 6.045173e+02 
2.580100e-01 5.995271e+02 
2.592400e-01 5.945777e+02 
2.604100e-01 5.899529e+02 
2.616100e-01 5.852653e+02 
2.628400e-01 5.805182e+02 
2.640600e-01 5.759362e+02 
2.652200e-01 5.716578e+02 
2.664300e-01 5.672461e+02 
2.676500e-01 5.628501e+02 
2.688400e-01 5.586630e+02 
2.700700e-01 5.544171e+02 
2.712400e-01 5.504241e+02 
2.724800e-01 5.462403e+02 
2.736700e-01 5.423061e+02 
2.748800e-01 5.383864e+02 
2.761000e-01 5.344788e+02 
2.773200e-01 5.306151e+02 
2.785400e-01 5.268103e+02 
2.797000e-01 5.232644e+02 
2.808900e-01 5.196655e+02 
2.821400e-01 5.159268e+02 
2.833900e-01 5.122313e+02 
2.845500e-01 5.088665e+02 
2.857800e-01 5.053365e+02 
2.870300e-01 5.017884e+02 
2.882100e-01 4.984749e+02 
2.893900e-01 4.952087e+02 
2.906300e-01 4.918194e+02 
2.918900e-01 4.884130e+02 
2.930500e-01 4.853097e+02 
2.942500e-01 4.821339e+02 
2.954200e-01 4.790749e+02 
2.966500e-01 4.758920e+02 
2.978900e-01 4.727170e+02 
2.990400e-01 4.698023e+02 
3.002700e-01 4.667183e+02 
3.015100e-01 4.636425e+02 
3.026800e-01 4.607697e+02 
3.038500e-01 4.579250e+02 
3.050300e-01 4.550840e+02 
3.062600e-01 4.521517e+02 
3.075000e-01 4.492258e+02 
3.087000e-01 4.464226e+02 
3.099100e-01 4.436239e+02 
3.111200e-01 4.408532e+02 
3.123100e-01 4.381552e+02 
3.135300e-01 4.354162e+02 
3.147300e-01 4.327484e+02 
3.159900e-01 4.299749e+02 
3.171800e-01 4.273820e+02 
3.183700e-01 4.248143e+02 
3.196300e-01 4.221220e+02 
3.208400e-01 4.195618e+02 
3.220300e-01 4.170677e+02 
3.232000e-01 4.146405e+02 
3.244300e-01 4.121136e+02 
3.256700e-01 4.095907e+02 
3.269200e-01 4.070721e+02 
3.280800e-01 4.047566e+02 
3.292500e-01 4.024467e+02 
3.304800e-01 4.000421e+02 
3.317100e-01 3.976602e+02 
3.328900e-01 3.953961e+02 
3.340700e-01 3.931523e+02 
3.353600e-01 3.907276e+02 
3.365300e-01 3.885509e+02 
3.377100e-01 3.863750e+02 
3.389200e-01 3.841638e+02 
3.401600e-01 3.819184e+02 
3.413700e-01 3.797536e+02 
3.425300e-01 3.777007e+02 
3.437700e-01 3.755257e+02 
3.449800e-01 3.734224e+02 
3.461800e-01 3.713549e+02 
3.473600e-01 3.693427e+02 
3.485800e-01 3.672880e+02 
3.498100e-01 3.652349e+02 
3.510200e-01 3.632329e+02 
3.522000e-01 3.612973e+02 
3.533900e-01 3.593619e+02 
3.546400e-01 3.573581e+02 
3.558400e-01 3.554519e+02 
3.570600e-01 3.535306e+02 
3.582700e-01 3.516413e+02 
3.595000e-01 3.497373e+02 
3.607100e-01 3.478875e+02 
3.618900e-01 3.461043e+02 
3.631200e-01 3.442611e+02 
3.643200e-01 3.424780e+02 
3.655500e-01 3.406657e+02 
3.667300e-01 3.389415e+02 
3.679500e-01 3.371868e+02 
3.691900e-01 3.354184e+02 
3.703600e-01 3.337634e+02 
3.715700e-01 3.320657e+02 
3.727700e-01 3.303957e+02 
3.739900e-01 3.287162e+02 
3.752000e-01 3.270722e+02 
3.763900e-01 3.254683e+02 
3.775800e-01 3.238771e+02 
3.788200e-01 3.222324e+02 
3.800300e-01 3.206406e+02 
3.812100e-01 3.191076e+02 
3.824200e-01 3.175528e+02 
3.836100e-01 3.160358e+02 
3.848600e-01 3.144549e+02 
3.860400e-01 3.129744e+02 
3.872400e-01 3.114804e+02 
3.884600e-01 3.099821e+02 
3.896500e-01 3.085353e+02 
3.908700e-01 3.070635e+02 
3.920600e-01 3.056389e+02 
3.933100e-01 3.041542e+02 
3.945300e-01 3.027165e+02 
3.957200e-01 3.013342e+02 
3.969300e-01 2.999421e+02 
3.981700e-01 2.985264e+02 
3.993500e-01 2.971895e+02 
4.094840e-01 2.861466e+02 
4.272360e-01 2.686176e+02 
4.454600e-01 2.526123e+02 
4.630560e-01 2.387683e+02 
4.804610e-01 2.263950e+02 
4.980690e-01 2.150275e+02 
5.159230e-01 2.045168e+02 
5.317440e-01 1.959583e+02 
5.489640e-01 1.873533e+02 
5.671990e-01 1.789694e+02 
5.838690e-01 1.718867e+02 
6.018840e-01 1.648029e+02 
6.202330e-01 1.581369e+02 
6.379250e-01 1.521724e+02 
6.545410e-01 1.469616e+02 
6.714560e-01 1.420020e+02 
6.892080e-01 1.371388e+02 
7.066010e-01 1.326931e+02 
7.240540e-01 1.285074e+02 
7.420450e-01 1.244725e+02 
7.593780e-01 1.208246e+02 
7.764720e-01 1.174352e+02 
7.942840e-01 1.141072e+02 
8.116170e-01 1.110554e+02 
8.288310e-01 1.081895e+02 
8.462240e-01 1.054483e+02 
8.631980e-01 1.029096e+02 
8.810700e-01 1.003711e+02 
8.989410e-01 9.795983e+01 
9.166330e-01 9.568880e+01 
9.345640e-01 9.349993e+01 
9.515980e-01 9.151383e+01 
9.688720e-01 8.958503e+01 
9.865640e-01 8.769673e+01 
1.031870e+00 8.320417e+01 
1.063490e+00 8.033309e+01 
1.097920e+00 7.742558e+01 
1.134370e+00 7.455869e+01 
1.167730e+00 7.210952e+01 
1.203830e+00 6.962102e+01 
1.240470e+00 6.725419e+01 
1.275790e+00 6.510738e+01 
1.309140e+00 6.319359e+01 
1.342970e+00 6.134348e+01 
1.378420e+00 5.950813e+01 
1.413200e+00 5.779712e+01 
1.448110e+00 5.616159e+01 
1.484090e+00 5.455534e+01 
1.518820e+00 5.307635e+01 
1.552880e+00 5.168787e+01 
1.588630e+00 5.029286e+01 
1.623230e+00 4.899970e+01 
1.657720e+00 4.776317e+01 
1.692450e+00 4.656791e+01 
1.726400e+00 4.544393e+01 
1.762200e+00 4.430241e+01 
1.797880e+00 4.320858e+01 
1.833270e+00 4.216525e+01 
1.869070e+00 4.114825e+01 
1.903200e+00 4.021234e+01 
1.937740e+00 3.929853e+01 
1.973190e+00 3.839305e+01 
2.007440e+00 3.754808e+01 
2.042160e+00 3.671852e+01 
2.077900e+00 3.589253e+01 
2.112390e+00 3.512287e+01 
2.146220e+00 3.438952e+01 
2.181600e+00 3.364708e+01 
2.216930e+00 3.292798e+01 
2.250760e+00 3.226069e+01 
2.286500e+00 3.157753e+01 
2.321770e+00 3.092370e+01 
2.355950e+00 3.030834e+01 
2.391280e+00 2.968925e+01 
2.426240e+00 2.909425e+01 
2.460670e+00 2.852549e+01 
2.495640e+00 2.796500e+01 
2.531080e+00 2.741135e+01 
2.566220e+00 2.687689e+01 
2.600830e+00 2.636508e+01 
2.635080e+00 2.587266e+01 
2.670340e+00 2.537843e+01 
2.705970e+00 2.489225e+01 
2.740040e+00 2.443969e+01 
2.774520e+00 2.399280e+01 
2.809730e+00 2.354750e+01 
2.844390e+00 2.312081e+01 
2.879960e+00 2.269424e+01 
2.914860e+00 2.228549e+01 
2.949410e+00 2.189115e+01 
2.984440e+00 2.150033e+01 
3.019760e+00 2.111587e+01 
3.054730e+00 2.074500e+01 
3.089030e+00 2.038879e+01 
3.124060e+00 2.003420e+01 
3.159560e+00 1.968357e+01 
3.194710e+00 1.934402e+01 
3.229010e+00 1.902087e+01 
3.263320e+00 1.870357e+01 
3.297930e+00 1.839128e+01 
3.332830e+00 1.808330e+01 
3.368040e+00 1.777967e+01 
3.403300e+00 1.748278e+01 
3.438450e+00 1.719287e+01 
3.473060e+00 1.691432e+01 
3.508440e+00 1.663465e+01 
3.543110e+00 1.636729e+01 
3.577470e+00 1.610771e+01 
3.613040e+00 1.584510e+01 
3.648120e+00 1.559098e+01 
3.682910e+00 1.534470e+01 
3.718050e+00 1.510124e+01 
3.753320e+00 1.486203e+01 
3.787980e+00 1.463149e+01 
3.822290e+00 1.440815e+01 
3.857020e+00 1.418664e+01 
3.891920e+00 1.396872e+01 
3.926650e+00 1.375597e+01 
3.961970e+00 1.354427e+01 
3.997360e+00 1.333631e+01 
4.031670e+00 1.313901e+01 
4.066330e+00 1.294326e+01 
4.101420e+00 1.274942e+01 
4.136200e+00 1.256051e+01 
4.170810e+00 1.237659e+01 
4.206250e+00 1.219173e+01 
4.241580e+00 1.201134e+01 
4.276300e+00 1.183737e+01 
4.310970e+00 1.166705e+01 
4.346120e+00 1.149772e+01 
4.380600e+00 1.133462e+01 
4.414730e+00 1.117646e+01 
4.450350e+00 1.101418e+01 
4.485320e+00 1.085817e+01 
4.519810e+00 1.070712e+01 
4.555430e+00 1.055415e+01 
4.590870e+00 1.040484e+01 
4.625480e+00 1.026150e+01 
4.659910e+00 1.012170e+01 
4.695230e+00 9.980888e+00 
4.729960e+00 9.845119e+00 
4.764450e+00 9.712771e+00 
4.799530e+00 9.580553e+00 
4.834910e+00 9.449795e+00 
4.869700e+00 9.323319e+00 
4.904370e+00 9.199603e+00 
4.939450e+00 9.076734e+00 
4.973940e+00 8.958055e+00 
5.008430e+00 8.841565e+00 
5.043810e+00 8.724100e+00 
5.078840e+00 8.609851e+00 
5.113500e+00 8.498878e+00 
5.148890e+00 8.387508e+00 
5.184210e+00 8.278393e+00 
5.219060e+00 8.172646e+00 
5.253660e+00 8.069434e+00 
5.288570e+00 7.967143e+00 
5.323420e+00 7.866738e+00 
5.358440e+00 7.767512e+00 
5.393590e+00 7.669670e+00 
5.428310e+00 7.574742e+00 
5.462800e+00 7.482079e+00 
5.497640e+00 7.390074e+00 
5.532670e+00 7.299115e+00 
5.567280e+00 7.210760e+00 
5.602000e+00 7.123614e+00 
5.637270e+00 7.036545e+00 
5.672410e+00 6.951252e+00 
5.707020e+00 6.868642e+00 
5.742040e+00 6.786499e+00 
5.777430e+00 6.704878e+00 
5.812210e+00 6.625985e+00 
5.846820e+00 6.548726e+00 
5.881610e+00 6.472312e+00 
5.916510e+00 6.396888e+00 
5.951600e+00 6.322328e+00 
5.986560e+00 6.249255e+00 
6.021830e+00 6.176711e+00 
6.056490e+00 6.106596e+00 
6.091160e+00 6.037594e+00 
6.125830e+00 5.969661e+00 
6.161090e+00 5.901666e+00 
6.195760e+00 5.835885e+00 
6.230420e+00 5.771126e+00 
6.265690e+00 5.706243e+00 
6.300950e+00 5.642519e+00 
6.335620e+00 5.580811e+00 
6.370880e+00 5.518999e+00 
6.405550e+00 5.459184e+00 
6.440220e+00 5.400275e+00 
6.475480e+00 5.341254e+00 
6.510150e+00 5.284124e+00 
6.544810e+00 5.227944e+00 
6.580080e+00 5.171613e+00 
6.614750e+00 5.117046e+00 
6.649410e+00 5.063358e+00 
6.684080e+00 5.010438e+00 
6.719340e+00 4.957390e+00 
6.754010e+00 4.906029e+00 
6.788680e+00 4.855519e+00 
6.823940e+00 4.804876e+00 
6.859800e+00 4.754108e+00 
6.894470e+00 4.705823e+00 
6.929140e+00 4.658242e+00 
6.963800e+00 4.611330e+00 
6.999070e+00 4.564259e+00 
7.033730e+00 4.518760e+00 
7.068400e+00 4.473866e+00 
7.103660e+00 4.428828e+00 
7.138330e+00 4.385185e+00 
7.173600e+00 4.341467e+00 
7.208260e+00 4.299083e+00 
7.243530e+00 4.256529e+00 
7.277600e+00 4.216043e+00 
7.312860e+00 4.174766e+00 
7.348120e+00 4.134036e+00 
7.382790e+00 4.094514e+00 
7.417460e+00 4.055614e+00 
7.452720e+00 4.016624e+00 
7.487390e+00 3.978782e+00 
7.522650e+00 3.940791e+00 
7.557320e+00 3.904008e+00 
7.591990e+00 3.867725e+00 
7.627250e+00 3.831293e+00 
7.662510e+00 3.795326e+00 
7.697180e+00 3.760527e+00 
7.731850e+00 3.726206e+00 
7.766510e+00 3.692320e+00 
7.801180e+00 3.658842e+00 
7.836440e+00 3.625294e+00 
7.871110e+00 3.592764e+00 
7.906380e+00 3.560076e+00 
7.941040e+00 3.528345e+00 
7.976310e+00 3.496512e+00 
8.011570e+00 3.465151e+00 
8.046240e+00 3.434686e+00 
8.080900e+00 3.404592e+00 
8.115570e+00 3.374877e+00 
8.150830e+00 3.345127e+00 
8.185500e+00 3.316222e+00 
8.220770e+00 3.287164e+00 
8.255430e+00 3.258944e+00 
8.290100e+00 3.231180e+00 
8.324770e+00 3.203752e+00 
8.359430e+00 3.176648e+00 
8.394700e+00 3.149386e+00 
8.429960e+00 3.122511e+00 
8.464630e+00 3.096452e+00 
8.499890e+00 3.070251e+00 
8.534560e+00 3.044783e+00 
8.569200e+00 3.019621e+00 
