# Parameters:
# omega_b = 0.022980, omega_m = 0.137362, n_s = 0.975984, h = 57.125984, w = -1.000000, sigma_8 = 0.758268
# z = 1.700000
#
# k[1/Mpc] # P(k):
8.694000e-04 3.481277e+03 
2.077466e-03 7.493809e+03 
3.285532e-03 1.063648e+04 
4.493598e-03 1.305854e+04 
5.701664e-03 1.485906e+04 
6.909730e-03 1.613525e+04 
8.117797e-03 1.699886e+04 
9.325863e-03 1.750782e+04 
1.053393e-02 1.772120e+04 
1.174199e-02 1.769437e+04 
1.295006e-02 1.746195e+04 
1.415813e-02 1.707101e+04 
1.536619e-02 1.656357e+04 
1.657426e-02 1.596836e+04 
1.778233e-02 1.531022e+04 
1.899039e-02 1.462601e+04 
2.019846e-02 1.393602e+04 
2.140652e-02 1.325812e+04 
2.261459e-02 1.260207e+04 
2.382266e-02 1.197974e+04 
2.503072e-02 1.139941e+04 
2.623879e-02 1.086423e+04 
2.744685e-02 1.037550e+04 
2.865492e-02 9.934144e+03 
2.986299e-02 9.537895e+03 
3.100100e-02 9.205127e+03 
3.220400e-02 8.892393e+03 
3.288100e-02 8.733690e+03 
3.424300e-02 8.446463e+03 
3.555100e-02 8.205128e+03 
3.686000e-02 7.992462e+03 
3.795000e-02 7.832722e+03 
3.929100e-02 7.653876e+03 
4.039800e-02 7.515728e+03 
4.164000e-02 7.367271e+03 
4.294400e-02 7.212263e+03 
4.415000e-02 7.069239e+03 
4.542900e-02 6.910673e+03 
4.660900e-02 6.760843e+03 
4.782300e-02 6.594713e+03 
4.892900e-02 6.438301e+03 
5.031200e-02 6.233388e+03 
5.155900e-02 6.039586e+03 
5.238100e-02 5.908831e+03 
5.378200e-02 5.683026e+03 
5.513400e-02 5.463968e+03 
5.627600e-02 5.281800e+03 
5.735300e-02 5.115845e+03 
5.870100e-02 4.919727e+03 
5.988700e-02 4.760407e+03 
6.113500e-02 4.606390e+03 
6.225900e-02 4.479139e+03 
6.340100e-02 4.359036e+03 
6.480200e-02 4.221000e+03 
6.601100e-02 4.108491e+03 
6.725500e-02 3.997657e+03 
6.829100e-02 3.909413e+03 
6.958600e-02 3.804229e+03 
7.071100e-02 3.718514e+03 
7.192300e-02 3.632306e+03 
7.307400e-02 3.556490e+03 
7.412300e-02 3.492434e+03 
7.550400e-02 3.415565e+03 
7.663100e-02 3.357806e+03 
7.791200e-02 3.297928e+03 
7.912700e-02 3.245388e+03 
8.027600e-02 3.198411e+03 
8.138400e-02 3.154954e+03 
8.272200e-02 3.104150e+03 
8.406100e-02 3.054195e+03 
8.534100e-02 3.006009e+03 
8.653800e-02 2.959816e+03 
8.759800e-02 2.918148e+03 
8.900300e-02 2.861268e+03 
9.009000e-02 2.815531e+03 
9.113300e-02 2.769828e+03 
9.239600e-02 2.713498e+03 
9.358000e-02 2.659127e+03 
9.496100e-02 2.593560e+03 
9.608400e-02 2.539885e+03 
9.727500e-02 2.483105e+03 
9.852600e-02 2.422405e+03 
9.973800e-02 2.364736e+03 
1.009000e-01 2.310553e+03 
1.020900e-01 2.256211e+03 
1.034000e-01 2.198555e+03 
1.046000e-01 2.147720e+03 
1.057200e-01 2.102840e+03 
1.069100e-01 2.057092e+03 
1.082500e-01 2.008971e+03 
1.093900e-01 1.970696e+03 
1.105400e-01 1.933962e+03 
1.116900e-01 1.900400e+03 
1.129600e-01 1.865134e+03 
1.142000e-01 1.833723e+03 
1.153300e-01 1.806649e+03 
1.166400e-01 1.777334e+03 
1.177800e-01 1.753506e+03 
1.190000e-01 1.729107e+03 
1.201200e-01 1.707981e+03 
1.213400e-01 1.685644e+03 
1.227100e-01 1.661587e+03 
1.238900e-01 1.641345e+03 
1.250700e-01 1.621380e+03 
1.263200e-01 1.600512e+03 
1.275500e-01 1.579985e+03 
1.287500e-01 1.560027e+03 
1.299900e-01 1.539255e+03 
1.311300e-01 1.520097e+03 
1.323500e-01 1.499312e+03 
1.335900e-01 1.478124e+03 
1.347100e-01 1.458687e+03 
1.359800e-01 1.436701e+03 
1.372100e-01 1.415032e+03 
1.384300e-01 1.393726e+03 
1.395700e-01 1.373530e+03 
1.407700e-01 1.352662e+03 
1.420300e-01 1.330524e+03 
1.432800e-01 1.309072e+03 
1.444500e-01 1.289071e+03 
1.456300e-01 1.269335e+03 
1.468900e-01 1.248786e+03 
1.480500e-01 1.230299e+03 
1.491700e-01 1.212982e+03 
1.503800e-01 1.194874e+03 
1.516400e-01 1.176554e+03 
1.528200e-01 1.160315e+03 
1.540200e-01 1.144136e+03 
1.551900e-01 1.129281e+03 
1.564300e-01 1.113997e+03 
1.576600e-01 1.099469e+03 
1.588700e-01 1.085850e+03 
1.600900e-01 1.072413e+03 
1.612700e-01 1.060185e+03 
1.625400e-01 1.047275e+03 
1.637600e-01 1.035294e+03 
1.649500e-01 1.023930e+03 
1.662200e-01 1.012032e+03 
1.674000e-01 1.001212e+03 
1.685000e-01 9.912966e+02 
1.697500e-01 9.801313e+02 
1.710300e-01 9.688175e+02 
1.722200e-01 9.584886e+02 
1.734400e-01 9.477770e+02 
1.746400e-01 9.374128e+02 
1.758700e-01 9.268604e+02 
1.770900e-01 9.163438e+02 
1.782700e-01 9.063469e+02 
1.794600e-01 8.962529e+02 
1.807000e-01 8.857939e+02 
1.819100e-01 8.757652e+02 
1.830100e-01 8.666384e+02 
1.842200e-01 8.567351e+02 
1.855000e-01 8.464386e+02 
1.867000e-01 8.368819e+02 
1.879200e-01 8.273290e+02 
1.890900e-01 8.183237e+02 
1.902800e-01 8.093380e+02 
1.915200e-01 8.001297e+02 
1.926900e-01 7.916117e+02 
1.939000e-01 7.830367e+02 
1.951700e-01 7.741849e+02 
1.963100e-01 7.664089e+02 
1.975100e-01 7.584640e+02 
1.987800e-01 7.501905e+02 
2.000100e-01 7.423570e+02 
2.012500e-01 7.347008e+02 
2.023400e-01 7.280703e+02 
2.036100e-01 7.204879e+02 
2.048900e-01 7.130772e+02 
2.060400e-01 7.065195e+02 
2.072200e-01 6.998941e+02 
2.084200e-01 6.933372e+02 
2.096900e-01 6.865019e+02 
2.109200e-01 6.799818e+02 
2.121100e-01 6.737946e+02 
2.132700e-01 6.678494e+02 
2.145200e-01 6.615345e+02 
2.157200e-01 6.555485e+02 
2.168800e-01 6.498369e+02 
2.180700e-01 6.440581e+02 
2.193400e-01 6.379583e+02 
2.206000e-01 6.319569e+02 
2.217500e-01 6.265555e+02 
2.229500e-01 6.209952e+02 
2.241400e-01 6.154739e+02 
2.253500e-01 6.099343e+02 
2.264900e-01 6.047848e+02 
2.277100e-01 5.993023e+02 
2.289900e-01 5.935811e+02 
2.301500e-01 5.884673e+02 
2.313600e-01 5.832029e+02 
2.325600e-01 5.779627e+02 
2.337700e-01 5.727496e+02 
2.350000e-01 5.675219e+02 
2.362000e-01 5.624567e+02 
2.374100e-01 5.573775e+02 
2.386500e-01 5.522422e+02 
2.399100e-01 5.470953e+02 
2.410400e-01 5.425047e+02 
2.422500e-01 5.376471e+02 
2.435000e-01 5.326956e+02 
2.447300e-01 5.278859e+02 
2.458700e-01 5.234759e+02 
2.470600e-01 5.189296e+02 
2.483300e-01 5.141409e+02 
2.495600e-01 5.095729e+02 
2.507600e-01 5.051850e+02 
2.519600e-01 5.008520e+02 
2.532200e-01 4.963605e+02 
2.543700e-01 4.923391e+02 
2.555500e-01 4.882804e+02 
2.568000e-01 4.840343e+02 
2.580100e-01 4.799754e+02 
2.592400e-01 4.759412e+02 
2.604100e-01 4.721679e+02 
2.616100e-01 4.683437e+02 
2.628400e-01 4.644712e+02 
2.640600e-01 4.607245e+02 
2.652200e-01 4.572226e+02 
2.664300e-01 4.536119e+02 
2.676500e-01 4.500144e+02 
2.688400e-01 4.465809e+02 
2.700700e-01 4.430949e+02 
2.712400e-01 4.398169e+02 
2.724800e-01 4.363825e+02 
2.736700e-01 4.331485e+02 
2.748800e-01 4.299219e+02 
2.761000e-01 4.267055e+02 
2.773200e-01 4.235256e+02 
2.785400e-01 4.203922e+02 
2.797000e-01 4.174673e+02 
2.808900e-01 4.144991e+02 
2.821400e-01 4.114159e+02 
2.833900e-01 4.083684e+02 
2.845500e-01 4.055887e+02 
2.857800e-01 4.026729e+02 
2.870300e-01 3.997425e+02 
2.882100e-01 3.970062e+02 
2.893900e-01 3.943063e+02 
2.906300e-01 3.915036e+02 
2.918900e-01 3.886870e+02 
2.930500e-01 3.861214e+02 
2.942500e-01 3.834954e+02 
2.954200e-01 3.809636e+02 
2.966500e-01 3.783296e+02 
2.978900e-01 3.757024e+02 
2.990400e-01 3.732909e+02 
3.002700e-01 3.707378e+02 
3.015100e-01 3.681908e+02 
3.026800e-01 3.658122e+02 
3.038500e-01 3.634571e+02 
3.050300e-01 3.611054e+02 
3.062600e-01 3.586755e+02 
3.075000e-01 3.562511e+02 
3.087000e-01 3.539287e+02 
3.099100e-01 3.516104e+02 
3.111200e-01 3.493148e+02 
3.123100e-01 3.470786e+02 
3.135300e-01 3.448086e+02 
3.147300e-01 3.425980e+02 
3.159900e-01 3.403001e+02 
3.171800e-01 3.381511e+02 
3.183700e-01 3.360228e+02 
3.196300e-01 3.337914e+02 
3.208400e-01 3.316699e+02 
3.220300e-01 3.296034e+02 
3.232000e-01 3.275920e+02 
3.244300e-01 3.254981e+02 
3.256700e-01 3.234078e+02 
3.269200e-01 3.213212e+02 
3.280800e-01 3.194032e+02 
3.292500e-01 3.174900e+02 
3.304800e-01 3.154985e+02 
3.317100e-01 3.135260e+02 
3.328900e-01 3.116514e+02 
3.340700e-01 3.097938e+02 
3.353600e-01 3.077873e+02 
3.365300e-01 3.059865e+02 
3.377100e-01 3.041865e+02 
3.389200e-01 3.023576e+02 
3.401600e-01 3.005006e+02 
3.413700e-01 2.987114e+02 
3.425300e-01 2.970156e+02 
3.437700e-01 2.952191e+02 
3.449800e-01 2.934821e+02 
3.461800e-01 2.917748e+02 
3.473600e-01 2.901140e+02 
3.485800e-01 2.884196e+02 
3.498100e-01 2.867267e+02 
3.510200e-01 2.850761e+02 
3.522000e-01 2.834805e+02 
3.533900e-01 2.818853e+02 
3.546400e-01 2.802364e+02 
3.558400e-01 2.786682e+02 
3.570600e-01 2.770876e+02 
3.582700e-01 2.755337e+02 
3.595000e-01 2.739677e+02 
3.607100e-01 2.724480e+02 
3.618900e-01 2.709841e+02 
3.631200e-01 2.694712e+02 
3.643200e-01 2.680078e+02 
3.655500e-01 2.665205e+02 
3.667300e-01 2.651057e+02 
3.679500e-01 2.636690e+02 
3.691900e-01 2.622212e+02 
3.703600e-01 2.608665e+02 
3.715700e-01 2.594769e+02 
3.727700e-01 2.581101e+02 
3.739900e-01 2.567367e+02 
3.752000e-01 2.553941e+02 
3.763900e-01 2.540844e+02 
3.775800e-01 2.527852e+02 
3.788200e-01 2.514425e+02 
3.800300e-01 2.501431e+02 
3.812100e-01 2.488933e+02 
3.824200e-01 2.476269e+02 
3.836100e-01 2.463914e+02 
3.848600e-01 2.451040e+02 
3.860400e-01 2.438984e+02 
3.872400e-01 2.426820e+02 
3.884600e-01 2.414640e+02 
3.896500e-01 2.402886e+02 
3.908700e-01 2.390930e+02 
3.920600e-01 2.379358e+02 
3.933100e-01 2.367299e+02 
3.945300e-01 2.355623e+02 
3.957200e-01 2.344415e+02 
3.969300e-01 2.333133e+02 
3.981700e-01 2.321662e+02 
3.993500e-01 2.310829e+02 
4.094840e-01 2.221469e+02 
4.272360e-01 2.080128e+02 
4.454600e-01 1.951429e+02 
4.630560e-01 1.840281e+02 
4.804610e-01 1.741010e+02 
4.980690e-01 1.649806e+02 
5.159230e-01 1.565478e+02 
5.317440e-01 1.496801e+02 
5.489640e-01 1.427765e+02 
5.671990e-01 1.360499e+02 
5.838690e-01 1.303696e+02 
6.018840e-01 1.246887e+02 
6.202330e-01 1.193458e+02 
6.379250e-01 1.145695e+02 
6.545410e-01 1.103992e+02 
6.714560e-01 1.064323e+02 
6.892080e-01 1.025468e+02 
7.066010e-01 9.899680e+01 
7.240540e-01 9.565922e+01 
7.420450e-01 9.244399e+01 
7.593780e-01 8.954086e+01 
7.764720e-01 8.684592e+01 
7.942840e-01 8.420314e+01 
8.116170e-01 8.178237e+01 
8.288310e-01 7.951267e+01 
8.462240e-01 7.734405e+01 
8.631980e-01 7.533881e+01 
8.810700e-01 7.333711e+01 
8.989410e-01 7.143901e+01 
9.166330e-01 6.965471e+01 
9.345640e-01 6.793688e+01 
9.515980e-01 6.638134e+01 
9.688720e-01 6.487443e+01 
9.865640e-01 6.340168e+01 
1.031870e+00 5.991164e+01 
1.063490e+00 5.769186e+01 
1.097920e+00 5.545282e+01 
1.134370e+00 5.325596e+01 
1.167730e+00 5.138730e+01 
1.203830e+00 4.949893e+01 
1.240470e+00 4.771089e+01 
1.275790e+00 4.609674e+01 
1.309140e+00 4.466332e+01 
1.342970e+00 4.328619e+01 
1.378420e+00 4.192444e+01 
1.413200e+00 4.066062e+01 
1.448110e+00 3.945731e+01 
1.484090e+00 3.828060e+01 
1.518820e+00 3.720122e+01 
1.552880e+00 3.619186e+01 
1.588630e+00 3.518119e+01 
1.623230e+00 3.424772e+01 
1.657720e+00 3.335799e+01 
1.692450e+00 3.250057e+01 
1.726400e+00 3.169660e+01 
1.762200e+00 3.088270e+01 
1.797880e+00 3.010524e+01 
1.833270e+00 2.936540e+01 
1.869070e+00 2.864606e+01 
1.903200e+00 2.798613e+01 
1.937740e+00 2.734292e+01 
1.973190e+00 2.670677e+01 
2.007440e+00 2.611428e+01 
2.042160e+00 2.553416e+01 
2.077900e+00 2.495765e+01 
2.112390e+00 2.442095e+01 
2.146220e+00 2.391086e+01 
2.181600e+00 2.339518e+01 
2.216930e+00 2.289669e+01 
2.250760e+00 2.243464e+01 
2.286500e+00 2.196208e+01 
2.321770e+00 2.151046e+01 
2.355950e+00 2.108598e+01 
2.391280e+00 2.065966e+01 
2.426240e+00 2.025039e+01 
2.460670e+00 1.985943e+01 
2.495640e+00 1.947433e+01 
2.531080e+00 1.909444e+01 
2.566220e+00 1.872826e+01 
2.600830e+00 1.837785e+01 
2.635080e+00 1.804086e+01 
2.670340e+00 1.770273e+01 
2.705970e+00 1.737045e+01 
2.740040e+00 1.706136e+01 
2.774520e+00 1.675630e+01 
2.809730e+00 1.645256e+01 
2.844390e+00 1.616158e+01 
2.879960e+00 1.587068e+01 
2.914860e+00 1.559212e+01 
2.949410e+00 1.532347e+01 
2.984440e+00 1.505740e+01 
3.019760e+00 1.479574e+01 
3.054730e+00 1.454335e+01 
3.089030e+00 1.430095e+01 
3.124060e+00 1.405963e+01 
3.159560e+00 1.382097e+01 
3.194710e+00 1.358996e+01 
3.229010e+00 1.337011e+01 
3.263320e+00 1.315428e+01 
3.297930e+00 1.294184e+01 
3.332830e+00 1.273234e+01 
3.368040e+00 1.252573e+01 
3.403300e+00 1.232365e+01 
3.438450e+00 1.212633e+01 
3.473060e+00 1.193671e+01 
3.508440e+00 1.174634e+01 
3.543110e+00 1.156428e+01 
3.577470e+00 1.138736e+01 
3.613040e+00 1.120836e+01 
3.648120e+00 1.103522e+01 
3.682910e+00 1.086732e+01 
3.718050e+00 1.070117e+01 
3.753320e+00 1.053792e+01 
3.787980e+00 1.038060e+01 
3.822290e+00 1.022812e+01 
3.857020e+00 1.007679e+01 
3.891920e+00 9.927862e+00 
3.926650e+00 9.782408e+00 
3.961970e+00 9.637597e+00 
3.997360e+00 9.495215e+00 
4.031670e+00 9.360104e+00 
4.066330e+00 9.225996e+00 
4.101420e+00 9.093163e+00 
4.136200e+00 8.963574e+00 
4.170810e+00 8.837382e+00 
4.206250e+00 8.710434e+00 
4.241580e+00 8.586513e+00 
4.276300e+00 8.466915e+00 
4.310970e+00 8.349757e+00 
4.346120e+00 8.233226e+00 
4.380600e+00 8.120905e+00 
4.414730e+00 8.011954e+00 
4.450350e+00 7.900064e+00 
4.485320e+00 7.792464e+00 
4.519810e+00 7.688151e+00 
4.555430e+00 7.582439e+00 
4.590870e+00 7.479226e+00 
4.625480e+00 7.380096e+00 
4.659910e+00 7.283391e+00 
4.695230e+00 7.185834e+00 
4.729960e+00 7.091725e+00 
4.764450e+00 6.999919e+00 
4.799530e+00 6.908104e+00 
4.834910e+00 6.817277e+00 
4.869700e+00 6.729358e+00 
4.904370e+00 6.643326e+00 
4.939450e+00 6.557832e+00 
4.973940e+00 6.475159e+00 
5.008430e+00 6.393989e+00 
5.043810e+00 6.312071e+00 
5.078840e+00 6.232349e+00 
5.113500e+00 6.154892e+00 
5.148890e+00 6.077017e+00 
5.184210e+00 6.000694e+00 
5.219060e+00 5.926692e+00 
5.253660e+00 5.854403e+00 
5.288570e+00 5.782741e+00 
5.323420e+00 5.712355e+00 
5.358440e+00 5.642749e+00 
5.393590e+00 5.574097e+00 
5.428310e+00 5.507393e+00 
5.462800e+00 5.442223e+00 
5.497640e+00 5.377501e+00 
5.532670e+00 5.313441e+00 
5.567280e+00 5.251182e+00 
5.602000e+00 5.189760e+00 
5.637270e+00 5.128330e+00 
5.672410e+00 5.068128e+00 
5.707020e+00 5.009807e+00 
5.742040e+00 4.951733e+00 
5.777430e+00 4.894002e+00 
5.812210e+00 4.838188e+00 
5.846820e+00 4.783476e+00 
5.881610e+00 4.729338e+00 
5.916510e+00 4.675892e+00 
5.951600e+00 4.622997e+00 
5.986560e+00 4.571126e+00 
6.021830e+00 4.519618e+00 
6.056490e+00 4.469788e+00 
6.091160e+00 4.420707e+00 
6.125830e+00 4.372378e+00 
6.161090e+00 4.323984e+00 
6.195760e+00 4.277130e+00 
6.230420e+00 4.230996e+00 
6.265690e+00 4.184762e+00 
6.300950e+00 4.139270e+00 
6.335620e+00 4.095210e+00 
6.370880e+00 4.051068e+00 
6.405550e+00 4.008320e+00 
6.440220e+00 3.966204e+00 
6.475480e+00 3.923999e+00 
6.510150e+00 3.883125e+00 
6.544810e+00 3.842889e+00 
6.580080e+00 3.802537e+00 
6.614750e+00 3.763443e+00 
6.649410e+00 3.724946e+00 
6.684080e+00 3.686989e+00 
6.719340e+00 3.648934e+00 
6.754010e+00 3.612067e+00 
6.788680e+00 3.575767e+00 
6.823940e+00 3.539367e+00 
6.859800e+00 3.502870e+00 
6.894470e+00 3.468126e+00 
6.929140e+00 3.433874e+00 
6.963800e+00 3.400098e+00 
6.999070e+00 3.366202e+00 
7.033730e+00 3.333412e+00 
7.068400e+00 3.301053e+00 
7.103660e+00 3.268586e+00 
7.138330e+00 3.237112e+00 
7.173600e+00 3.205565e+00 
7.208260e+00 3.174975e+00 
7.243530e+00 3.144259e+00 
7.277600e+00 3.115016e+00 
7.312860e+00 3.085184e+00 
7.348120e+00 3.055744e+00 
7.382790e+00 3.027172e+00 
7.417460e+00 2.999026e+00 
7.452720e+00 2.970801e+00 
7.487390e+00 2.943404e+00 
7.522650e+00 2.915896e+00 
7.557320e+00 2.889254e+00 
7.591990e+00 2.862969e+00 
7.627250e+00 2.836574e+00 
7.662510e+00 2.810512e+00 
7.697180e+00 2.785276e+00 
7.731850e+00 2.760377e+00 
7.766510e+00 2.735791e+00 
7.801180e+00 2.711498e+00 
7.836440e+00 2.687145e+00 
7.871110e+00 2.663522e+00 
7.906380e+00 2.639782e+00 
7.941040e+00 2.616736e+00 
7.976310e+00 2.593605e+00 
8.011570e+00 2.570806e+00 
8.046240e+00 2.548657e+00 
8.080900e+00 2.526775e+00 
8.115570e+00 2.505165e+00 
8.150830e+00 2.483524e+00 
8.185500e+00 2.462496e+00 
8.220770e+00 2.441354e+00 
8.255430e+00 2.420819e+00 
8.290100e+00 2.400598e+00 
8.324770e+00 2.380617e+00 
8.359430e+00 2.360870e+00 
8.394700e+00 2.341005e+00 
8.429960e+00 2.321418e+00 
8.464630e+00 2.302424e+00 
8.499890e+00 2.283324e+00 
8.534560e+00 2.264756e+00 
8.569200e+00 2.246409e+00 
