# Parameters:
# omega_b = 0.022807, omega_m = 0.125236, n_s = 0.928740, h = 65.629921, w = -1.000000, sigma_8 = 0.703150
# z = 1.900000
#
# k[1/Mpc] # P(k):
8.694000e-04 4.071297e+03 
2.077466e-03 8.340620e+03 
3.285532e-03 1.146746e+04 
4.493598e-03 1.372166e+04 
5.701664e-03 1.527381e+04 
6.909730e-03 1.626500e+04 
8.117797e-03 1.683529e+04 
9.325863e-03 1.705740e+04 
1.053393e-02 1.700023e+04 
1.174199e-02 1.672525e+04 
1.295006e-02 1.627142e+04 
1.415813e-02 1.568817e+04 
1.536619e-02 1.501753e+04 
1.657426e-02 1.428796e+04 
1.778233e-02 1.352399e+04 
1.899039e-02 1.276037e+04 
2.019846e-02 1.201523e+04 
2.140652e-02 1.130341e+04 
2.261459e-02 1.063278e+04 
2.382266e-02 1.001199e+04 
2.503072e-02 9.445749e+03 
2.623879e-02 8.934324e+03 
2.744685e-02 8.477658e+03 
2.865492e-02 8.073015e+03 
2.986299e-02 7.716112e+03 
3.100100e-02 7.421841e+03 
3.220400e-02 7.149621e+03 
3.288100e-02 7.013298e+03 
3.424300e-02 6.769090e+03 
3.555100e-02 6.565818e+03 
3.686000e-02 6.387581e+03 
3.795000e-02 6.253680e+03 
3.929100e-02 6.102527e+03 
4.039800e-02 5.984078e+03 
4.164000e-02 5.855008e+03 
4.294400e-02 5.717011e+03 
4.415000e-02 5.587810e+03 
4.542900e-02 5.442156e+03 
4.660900e-02 5.303464e+03 
4.782300e-02 5.148947e+03 
4.892900e-02 5.003635e+03 
5.031200e-02 4.813929e+03 
5.155900e-02 4.636069e+03 
5.238100e-02 4.517010e+03 
5.378200e-02 4.313078e+03 
5.513400e-02 4.117444e+03 
5.627600e-02 3.956034e+03 
5.735300e-02 3.809608e+03 
5.870100e-02 3.636692e+03 
5.988700e-02 3.495962e+03 
6.113500e-02 3.359801e+03 
6.225900e-02 3.247794e+03 
6.340100e-02 3.143551e+03 
6.480200e-02 3.026536e+03 
6.601100e-02 2.935107e+03 
6.725500e-02 2.848960e+03 
6.829100e-02 2.783614e+03 
6.958600e-02 2.708385e+03 
7.071100e-02 2.649517e+03 
7.192300e-02 2.592029e+03 
7.307400e-02 2.542691e+03 
7.412300e-02 2.501679e+03 
7.550400e-02 2.452987e+03 
7.663100e-02 2.416428e+03 
7.791200e-02 2.377978e+03 
7.912700e-02 2.343175e+03 
8.027600e-02 2.310924e+03 
8.138400e-02 2.279977e+03 
8.272200e-02 2.242122e+03 
8.406100e-02 2.203098e+03 
8.534100e-02 2.163557e+03 
8.653800e-02 2.124379e+03 
8.759800e-02 2.088448e+03 
8.900300e-02 2.038713e+03 
9.009000e-02 1.998419e+03 
9.113300e-02 1.958185e+03 
9.239600e-02 1.908774e+03 
9.358000e-02 1.861439e+03 
9.496100e-02 1.805164e+03 
9.608400e-02 1.759701e+03 
9.727500e-02 1.712131e+03 
9.852600e-02 1.662563e+03 
9.973800e-02 1.616201e+03 
1.009000e-01 1.573243e+03 
1.020900e-01 1.531599e+03 
1.034000e-01 1.488191e+03 
1.046000e-01 1.450708e+03 
1.057200e-01 1.418932e+03 
1.069100e-01 1.387040e+03 
1.082500e-01 1.354894e+03 
1.093900e-01 1.330174e+03 
1.105400e-01 1.306950e+03 
1.116900e-01 1.286763e+03 
1.129600e-01 1.265863e+03 
1.142000e-01 1.247967e+03 
1.153300e-01 1.232654e+03 
1.166400e-01 1.216261e+03 
1.177800e-01 1.202746e+03 
1.190000e-01 1.188814e+03 
1.201200e-01 1.176007e+03 
1.213400e-01 1.162327e+03 
1.227100e-01 1.146047e+03 
1.238900e-01 1.131995e+03 
1.250700e-01 1.116980e+03 
1.263200e-01 1.100865e+03 
1.275500e-01 1.084087e+03 
1.287500e-01 1.067427e+03 
1.299900e-01 1.049550e+03 
1.311300e-01 1.032947e+03 
1.323500e-01 1.014765e+03 
1.335900e-01 9.963472e+02 
1.347100e-01 9.795871e+02 
1.359800e-01 9.608674e+02 
1.372100e-01 9.428445e+02 
1.384300e-01 9.253946e+02 
1.395700e-01 9.094348e+02 
1.407700e-01 8.930535e+02 
1.420300e-01 8.765253e+02 
1.432800e-01 8.605309e+02 
1.444500e-01 8.464201e+02 
1.456300e-01 8.325059e+02 
1.468900e-01 8.185201e+02 
1.480500e-01 8.060877e+02 
1.491700e-01 7.946332e+02 
1.503800e-01 7.828980e+02 
1.516400e-01 7.710717e+02 
1.528200e-01 7.607975e+02 
1.540200e-01 7.505583e+02 
1.551900e-01 7.412139e+02 
1.564300e-01 7.316122e+02 
1.576600e-01 7.224487e+02 
1.588700e-01 7.138147e+02 
1.600900e-01 7.052834e+02 
1.612700e-01 6.973250e+02 
1.625400e-01 6.889217e+02 
1.637600e-01 6.809520e+02 
1.649500e-01 6.732911e+02 
1.662200e-01 6.652258e+02 
1.674000e-01 6.576382e+02 
1.685000e-01 6.506866e+02 
1.697500e-01 6.427313e+02 
1.710300e-01 6.345455e+02 
1.722200e-01 6.270761e+02 
1.734400e-01 6.191516e+02 
1.746400e-01 6.114823e+02 
1.758700e-01 6.036556e+02 
1.770900e-01 5.958140e+02 
1.782700e-01 5.883662e+02 
1.794600e-01 5.808596e+02 
1.807000e-01 5.730932e+02 
1.819100e-01 5.656534e+02 
1.830100e-01 5.589669e+02 
1.842200e-01 5.517309e+02 
1.855000e-01 5.442199e+02 
1.867000e-01 5.373830e+02 
1.879200e-01 5.305539e+02 
1.890900e-01 5.241448e+02 
1.902800e-01 5.178779e+02 
1.915200e-01 5.114593e+02 
1.926900e-01 5.055556e+02 
1.939000e-01 4.997141e+02 
1.951700e-01 4.936867e+02 
1.963100e-01 4.884184e+02 
1.975100e-01 4.831036e+02 
1.987800e-01 4.775706e+02 
2.000100e-01 4.723466e+02 
2.012500e-01 4.672734e+02 
2.023400e-01 4.628807e+02 
2.036100e-01 4.578576e+02 
2.048900e-01 4.529462e+02 
2.060400e-01 4.486009e+02 
2.072200e-01 4.442086e+02 
2.084200e-01 4.398259e+02 
2.096900e-01 4.352582e+02 
2.109200e-01 4.309021e+02 
2.121100e-01 4.267194e+02 
2.132700e-01 4.226989e+02 
2.145200e-01 4.184296e+02 
2.157200e-01 4.143486e+02 
2.168800e-01 4.104397e+02 
2.180700e-01 4.064861e+02 
2.193400e-01 4.023039e+02 
2.206000e-01 3.981711e+02 
2.217500e-01 3.944530e+02 
2.229500e-01 3.906270e+02 
2.241400e-01 3.868241e+02 
2.253500e-01 3.830102e+02 
2.264900e-01 3.794664e+02 
2.277100e-01 3.757070e+02 
2.289900e-01 3.717989e+02 
2.301500e-01 3.683072e+02 
2.313600e-01 3.647146e+02 
2.325600e-01 3.611807e+02 
2.337700e-01 3.576664e+02 
2.350000e-01 3.541438e+02 
2.362000e-01 3.507555e+02 
2.374100e-01 3.473869e+02 
2.386500e-01 3.439823e+02 
2.399100e-01 3.405711e+02 
2.410400e-01 3.375705e+02 
2.422500e-01 3.344013e+02 
2.435000e-01 3.311716e+02 
2.447300e-01 3.280422e+02 
2.458700e-01 3.252015e+02 
2.470600e-01 3.222734e+02 
2.483300e-01 3.191899e+02 
2.495600e-01 3.162585e+02 
2.507600e-01 3.134560e+02 
2.519600e-01 3.106890e+02 
2.532200e-01 3.078213e+02 
2.543700e-01 3.052576e+02 
2.555500e-01 3.026729e+02 
2.568000e-01 2.999692e+02 
2.580100e-01 2.973850e+02 
2.592400e-01 2.948095e+02 
2.604100e-01 2.923976e+02 
2.616100e-01 2.899534e+02 
2.628400e-01 2.874788e+02 
2.640600e-01 2.850712e+02 
2.652200e-01 2.828157e+02 
2.664300e-01 2.804907e+02 
2.676500e-01 2.781745e+02 
2.688400e-01 2.759499e+02 
2.700700e-01 2.736826e+02 
2.712400e-01 2.715511e+02 
2.724800e-01 2.693184e+02 
2.736700e-01 2.672036e+02 
2.748800e-01 2.650810e+02 
2.761000e-01 2.629657e+02 
2.773200e-01 2.608749e+02 
2.785400e-01 2.588086e+02 
2.797000e-01 2.568667e+02 
2.808900e-01 2.548966e+02 
2.821400e-01 2.528507e+02 
2.833900e-01 2.508285e+02 
2.845500e-01 2.489685e+02 
2.857800e-01 2.470181e+02 
2.870300e-01 2.450585e+02 
2.882100e-01 2.432294e+02 
2.893900e-01 2.414176e+02 
2.906300e-01 2.395335e+02 
2.918900e-01 2.376406e+02 
2.930500e-01 2.359171e+02 
2.942500e-01 2.341520e+02 
2.954200e-01 2.324457e+02 
2.966500e-01 2.306712e+02 
2.978900e-01 2.289019e+02 
2.990400e-01 2.272785e+02 
3.002700e-01 2.255588e+02 
3.015100e-01 2.238433e+02 
3.026800e-01 2.222417e+02 
3.038500e-01 2.206566e+02 
3.050300e-01 2.190742e+02 
3.062600e-01 2.174394e+02 
3.075000e-01 2.158089e+02 
3.087000e-01 2.142477e+02 
3.099100e-01 2.126897e+02 
3.111200e-01 2.111482e+02 
3.123100e-01 2.096480e+02 
3.135300e-01 2.081258e+02 
3.147300e-01 2.066439e+02 
3.159900e-01 2.051041e+02 
3.171800e-01 2.036668e+02 
3.183700e-01 2.022452e+02 
3.196300e-01 2.007554e+02 
3.208400e-01 1.993393e+02 
3.220300e-01 1.979606e+02 
3.232000e-01 1.966212e+02 
3.244300e-01 1.952281e+02 
3.256700e-01 1.938380e+02 
3.269200e-01 1.924509e+02 
3.280800e-01 1.911763e+02 
3.292500e-01 1.899078e+02 
3.304800e-01 1.885886e+02 
3.317100e-01 1.872825e+02 
3.328900e-01 1.860416e+02 
3.340700e-01 1.848124e+02 
3.353600e-01 1.834869e+02 
3.365300e-01 1.822985e+02 
3.377100e-01 1.811110e+02 
3.389200e-01 1.799047e+02 
3.401600e-01 1.786804e+02 
3.413700e-01 1.775026e+02 
3.425300e-01 1.763876e+02 
3.437700e-01 1.752068e+02 
3.449800e-01 1.740655e+02 
3.461800e-01 1.729440e+02 
3.473600e-01 1.718536e+02 
3.485800e-01 1.707422e+02 
3.498100e-01 1.696321e+02 
3.510200e-01 1.685502e+02 
3.522000e-01 1.675046e+02 
3.533900e-01 1.664595e+02 
3.546400e-01 1.653806e+02 
3.558400e-01 1.643548e+02 
3.570600e-01 1.633213e+02 
3.582700e-01 1.623055e+02 
3.595000e-01 1.612822e+02 
3.607100e-01 1.602892e+02 
3.618900e-01 1.593330e+02 
3.631200e-01 1.583451e+02 
3.643200e-01 1.573898e+02 
3.655500e-01 1.564192e+02 
3.667300e-01 1.554961e+02 
3.679500e-01 1.545585e+02 
3.691900e-01 1.536138e+02 
3.703600e-01 1.527302e+02 
3.715700e-01 1.518240e+02 
3.727700e-01 1.509331e+02 
3.739900e-01 1.500375e+02 
3.752000e-01 1.491612e+02 
3.763900e-01 1.483066e+02 
3.775800e-01 1.474592e+02 
3.788200e-01 1.465836e+02 
3.800300e-01 1.457365e+02 
3.812100e-01 1.449214e+02 
3.824200e-01 1.440951e+02 
3.836100e-01 1.432893e+02 
3.848600e-01 1.424498e+02 
3.860400e-01 1.416640e+02 
3.872400e-01 1.408713e+02 
3.884600e-01 1.400766e+02 
3.896500e-01 1.393094e+02 
3.908700e-01 1.385293e+02 
3.920600e-01 1.377746e+02 
3.933100e-01 1.369882e+02 
3.945300e-01 1.362270e+02 
3.957200e-01 1.354951e+02 
3.969300e-01 1.347581e+02 
3.981700e-01 1.340089e+02 
3.993500e-01 1.333017e+02 
4.094840e-01 1.274712e+02 
4.272360e-01 1.182454e+02 
4.454600e-01 1.098692e+02 
4.630560e-01 1.026714e+02 
4.804610e-01 9.628777e+01 
4.980690e-01 9.047265e+01 
5.159230e-01 8.514815e+01 
5.317440e-01 8.085054e+01 
5.489640e-01 7.657218e+01 
5.671990e-01 7.244337e+01 
5.838690e-01 6.898353e+01 
6.018840e-01 6.554848e+01 
6.202330e-01 6.234031e+01 
6.379250e-01 5.948789e+01 
6.545410e-01 5.701002e+01 
6.714560e-01 5.466152e+01 
6.892080e-01 5.237035e+01 
7.066010e-01 5.028265e+01 
7.240540e-01 4.832721e+01 
7.420450e-01 4.644710e+01 
7.593780e-01 4.475384e+01 
7.764720e-01 4.318626e+01 
7.942840e-01 4.165259e+01 
8.116170e-01 4.025119e+01 
8.288310e-01 3.894044e+01 
8.462240e-01 3.769096e+01 
8.631980e-01 3.653943e+01 
8.810700e-01 3.539371e+01 
8.989410e-01 3.431083e+01 
9.166330e-01 3.329649e+01 
9.345640e-01 3.232310e+01 
9.515980e-01 3.144476e+01 
9.688720e-01 3.059807e+01 
9.865640e-01 2.977372e+01 
1.031870e+00 2.783600e+01 
1.063490e+00 2.661664e+01 
1.097920e+00 2.539736e+01 
1.134370e+00 2.421376e+01 
1.167730e+00 2.321680e+01 
1.203830e+00 2.222125e+01 
1.240470e+00 2.128813e+01 
1.275790e+00 2.045539e+01 
1.309140e+00 1.972235e+01 
1.342970e+00 1.902764e+01 
1.378420e+00 1.834621e+01 
1.413200e+00 1.772038e+01 
1.448110e+00 1.713062e+01 
1.484090e+00 1.655902e+01 
1.518820e+00 1.603995e+01 
1.552880e+00 1.555906e+01 
1.588630e+00 1.508178e+01 
1.623230e+00 1.464453e+01 
1.657720e+00 1.423119e+01 
1.692450e+00 1.383578e+01 
1.726400e+00 1.346820e+01 
1.762200e+00 1.309900e+01 
1.797880e+00 1.274873e+01 
1.833270e+00 1.241764e+01 
1.869070e+00 1.209799e+01 
1.903200e+00 1.180669e+01 
1.937740e+00 1.152444e+01 
1.973190e+00 1.124673e+01 
2.007440e+00 1.098954e+01 
2.042160e+00 1.073917e+01 
2.077900e+00 1.049174e+01 
2.112390e+00 1.026234e+01 
2.146220e+00 1.004568e+01 
2.181600e+00 9.827433e+00 
2.216930e+00 9.617518e+00 
2.250760e+00 9.423667e+00 
2.286500e+00 9.226128e+00 
2.321770e+00 9.038122e+00 
2.355950e+00 8.861980e+00 
2.391280e+00 8.686024e+00 
2.426240e+00 8.517603e+00 
2.460670e+00 8.357096e+00 
2.495640e+00 8.199328e+00 
2.531080e+00 8.044300e+00 
2.566220e+00 7.895394e+00 
2.600830e+00 7.753220e+00 
2.635080e+00 7.616716e+00 
2.670340e+00 7.480168e+00 
2.705970e+00 7.346235e+00 
2.740040e+00 7.221861e+00 
2.774520e+00 7.099431e+00 
2.809730e+00 6.977785e+00 
2.844390e+00 6.861388e+00 
2.879960e+00 6.745181e+00 
2.914860e+00 6.634097e+00 
2.949410e+00 6.527069e+00 
2.984440e+00 6.421292e+00 
3.019760e+00 6.317388e+00 
3.054730e+00 6.217225e+00 
3.089030e+00 6.121154e+00 
3.124060e+00 6.025513e+00 
3.159560e+00 5.930950e+00 
3.194710e+00 5.839534e+00 
3.229010e+00 5.752558e+00 
3.263320e+00 5.667278e+00 
3.297930e+00 5.583341e+00 
3.332830e+00 5.500608e+00 
3.368040e+00 5.418988e+00 
3.403300e+00 5.339127e+00 
3.438450e+00 5.261187e+00 
3.473060e+00 5.186271e+00 
3.508440e+00 5.111074e+00 
3.543110e+00 5.039119e+00 
3.577470e+00 4.969136e+00 
3.613040e+00 4.898312e+00 
3.648120e+00 4.829818e+00 
3.682910e+00 4.763345e+00 
3.718050e+00 4.697497e+00 
3.753320e+00 4.632774e+00 
3.787980e+00 4.570379e+00 
3.822290e+00 4.509845e+00 
3.857020e+00 4.449696e+00 
3.891920e+00 4.390471e+00 
3.926650e+00 4.332603e+00 
3.961970e+00 4.274925e+00 
3.997360e+00 4.218109e+00 
4.031670e+00 4.164151e+00 
4.066330e+00 4.110519e+00 
4.101420e+00 4.057363e+00 
4.136200e+00 4.005418e+00 
4.170810e+00 3.954803e+00 
4.206250e+00 3.903764e+00 
4.241580e+00 3.853894e+00 
4.276300e+00 3.805699e+00 
4.310970e+00 3.758439e+00 
4.346120e+00 3.711366e+00 
4.380600e+00 3.665905e+00 
4.414730e+00 3.621777e+00 
4.450350e+00 3.576345e+00 
4.485320e+00 3.532626e+00 
4.519810e+00 3.490134e+00 
4.555430e+00 3.447008e+00 
4.590870e+00 3.404850e+00 
4.625480e+00 3.364285e+00 
4.659910e+00 3.324687e+00 
4.695230e+00 3.284599e+00 
4.729960e+00 3.245885e+00 
4.764450e+00 3.208061e+00 
4.799530e+00 3.170155e+00 
4.834910e+00 3.132632e+00 
4.869700e+00 3.096202e+00 
4.904370e+00 3.060518e+00 
4.939450e+00 3.025002e+00 
4.973940e+00 2.990553e+00 
5.008430e+00 2.956711e+00 
5.043810e+00 2.922481e+00 
5.078840e+00 2.889116e+00 
5.113500e+00 2.856679e+00 
5.148890e+00 2.823932e+00 
5.184210e+00 2.791814e+00 
5.219060e+00 2.760630e+00 
5.253660e+00 2.730084e+00 
5.288570e+00 2.699785e+00 
5.323420e+00 2.669968e+00 
5.358440e+00 2.640417e+00 
5.393590e+00 2.611255e+00 
5.428310e+00 2.582826e+00 
5.462800e+00 2.554995e+00 
5.497640e+00 2.527339e+00 
5.532670e+00 2.499884e+00 
5.567280e+00 2.473164e+00 
5.602000e+00 2.446789e+00 
5.637270e+00 2.420325e+00 
5.672410e+00 2.394359e+00 
5.707020e+00 2.369190e+00 
5.742040e+00 2.344031e+00 
5.777430e+00 2.318989e+00 
5.812210e+00 2.294766e+00 
5.846820e+00 2.270957e+00 
5.881610e+00 2.247374e+00 
5.916510e+00 2.224079e+00 
5.951600e+00 2.200958e+00 
5.986560e+00 2.178249e+00 
6.021830e+00 2.155688e+00 
6.056490e+00 2.133805e+00 
6.091160e+00 2.112202e+00 
6.125830e+00 2.090919e+00 
6.161090e+00 2.069578e+00 
6.195760e+00 2.048863e+00 
6.230420e+00 2.028457e+00 
6.265690e+00 2.007993e+00 
6.300950e+00 1.987777e+00 
6.335620e+00 1.968188e+00 
6.370880e+00 1.948553e+00 
6.405550e+00 1.929491e+00 
6.440220e+00 1.910686e+00 
6.475480e+00 1.891833e+00 
6.510150e+00 1.873550e+00 
6.544810e+00 1.855508e+00 
6.580080e+00 1.837406e+00 
6.614750e+00 1.819860e+00 
6.649410e+00 1.802533e+00 
6.684080e+00 1.785433e+00 
6.719340e+00 1.768281e+00 
6.754010e+00 1.751641e+00 
6.788680e+00 1.735207e+00 
6.823940e+00 1.718721e+00 
6.859800e+00 1.702185e+00 
6.894470e+00 1.686408e+00 
6.929140e+00 1.670838e+00 
6.963800e+00 1.655479e+00 
6.999070e+00 1.640056e+00 
7.033730e+00 1.625094e+00 
7.068400e+00 1.610323e+00 
7.103660e+00 1.595497e+00 
7.138330e+00 1.581108e+00 
7.173600e+00 1.566656e+00 
7.208260e+00 1.552638e+00 
7.243530e+00 1.538557e+00 
7.277600e+00 1.525133e+00 
7.312860e+00 1.511420e+00 
7.348120e+00 1.497883e+00 
7.382790e+00 1.484740e+00 
7.417460e+00 1.471762e+00 
7.452720e+00 1.458729e+00 
7.487390e+00 1.446074e+00 
7.522650e+00 1.433363e+00 
7.557320e+00 1.421036e+00 
7.591990e+00 1.408866e+00 
7.627250e+00 1.396640e+00 
7.662510e+00 1.384565e+00 
7.697180e+00 1.372850e+00 
7.731850e+00 1.361282e+00 
7.766510e+00 1.349854e+00 
7.801180e+00 1.338560e+00 
7.836440e+00 1.327220e+00 
7.871110e+00 1.316209e+00 
7.906380e+00 1.305141e+00 
7.941040e+00 1.294392e+00 
7.976310e+00 1.283593e+00 
8.011570e+00 1.272939e+00 
8.046240e+00 1.262584e+00 
8.080900e+00 1.252352e+00 
8.115570e+00 1.242241e+00 
8.150830e+00 1.232104e+00 
8.185500e+00 1.222251e+00 
8.220770e+00 1.212342e+00 
8.255430e+00 1.202714e+00 
8.290100e+00 1.193215e+00 
8.324770e+00 1.183824e+00 
8.359430e+00 1.174541e+00 
8.394700e+00 1.165199e+00 
8.429960e+00 1.155981e+00 
8.464630e+00 1.147034e+00 
8.499890e+00 1.138035e+00 
8.534560e+00 1.129283e+00 
8.569200e+00 1.120634e+00 
