# Parameters:
# omega_b = 0.021831, omega_m = 0.151969, n_s = 1.023228, h = 55.944882, w = -1.000000, sigma_8 = 0.843307
# z = 1.900000
#
# k[1/Mpc] # P(k):
8.694000e-04 2.086407e+03 
2.077466e-03 4.723522e+03 
3.285532e-03 6.932506e+03 
4.493598e-03 8.738193e+03 
5.701664e-03 1.017201e+04 
6.909730e-03 1.127159e+04 
8.117797e-03 1.209361e+04 
9.325863e-03 1.266745e+04 
1.053393e-02 1.302716e+04 
1.174199e-02 1.320815e+04 
1.295006e-02 1.323111e+04 
1.415813e-02 1.312659e+04 
1.536619e-02 1.292250e+04 
1.657426e-02 1.263741e+04 
1.778233e-02 1.228768e+04 
1.899039e-02 1.189947e+04 
2.019846e-02 1.148770e+04 
2.140652e-02 1.106637e+04 
2.261459e-02 1.064286e+04 
2.382266e-02 1.022759e+04 
2.503072e-02 9.829145e+03 
2.623879e-02 9.452025e+03 
2.744685e-02 9.098294e+03 
2.865492e-02 8.771427e+03 
2.986299e-02 8.471605e+03 
3.100100e-02 8.214494e+03 
3.220400e-02 7.968230e+03 
3.288100e-02 7.841189e+03 
3.424300e-02 7.608040e+03 
3.555100e-02 7.408899e+03 
3.686000e-02 7.230935e+03 
3.795000e-02 7.096149e+03 
3.929100e-02 6.944593e+03 
4.039800e-02 6.827765e+03 
4.164000e-02 6.703009e+03 
4.294400e-02 6.574826e+03 
4.415000e-02 6.458116e+03 
4.542900e-02 6.331134e+03 
4.660900e-02 6.212539e+03 
4.782300e-02 6.082965e+03 
4.892900e-02 5.961630e+03 
5.031200e-02 5.803209e+03 
5.155900e-02 5.653309e+03 
5.238100e-02 5.551761e+03 
5.378200e-02 5.375128e+03 
5.513400e-02 5.201524e+03 
5.627600e-02 5.054913e+03 
5.735300e-02 4.919023e+03 
5.870100e-02 4.754579e+03 
5.988700e-02 4.617081e+03 
6.113500e-02 4.479713e+03 
6.225900e-02 4.362013e+03 
6.340100e-02 4.247168e+03 
6.480200e-02 4.111454e+03 
6.601100e-02 3.997897e+03 
6.725500e-02 3.884663e+03 
6.829100e-02 3.793790e+03 
6.958600e-02 3.685326e+03 
7.071100e-02 3.596873e+03 
7.192300e-02 3.507980e+03 
7.307400e-02 3.430024e+03 
7.412300e-02 3.364456e+03 
7.550400e-02 3.286463e+03 
7.663100e-02 3.228563e+03 
7.791200e-02 3.169953e+03 
7.912700e-02 3.120240e+03 
8.027600e-02 3.077229e+03 
8.138400e-02 3.038734e+03 
8.272200e-02 2.995528e+03 
8.406100e-02 2.954782e+03 
8.534100e-02 2.917118e+03 
8.653800e-02 2.881874e+03 
8.759800e-02 2.850377e+03 
8.900300e-02 2.807557e+03 
9.009000e-02 2.772961e+03 
9.113300e-02 2.737897e+03 
9.239600e-02 2.694107e+03 
9.358000e-02 2.650959e+03 
9.496100e-02 2.597382e+03 
9.608400e-02 2.552526e+03 
9.727500e-02 2.504254e+03 
9.852600e-02 2.450556e+03 
9.973800e-02 2.398521e+03 
1.009000e-01 2.348793e+03 
1.020900e-01 2.296824e+03 
1.034000e-01 2.240700e+03 
1.046000e-01 2.190201e+03 
1.057200e-01 2.143942e+03 
1.069100e-01 2.096210e+03 
1.082500e-01 2.044387e+03 
1.093900e-01 2.002301e+03 
1.105400e-01 1.961411e+03 
1.116900e-01 1.923103e+03 
1.129600e-01 1.882643e+03 
1.142000e-01 1.846220e+03 
1.153300e-01 1.814950e+03 
1.166400e-01 1.781266e+03 
1.177800e-01 1.754541e+03 
1.190000e-01 1.727499e+03 
1.201200e-01 1.705426e+03 
1.213400e-01 1.682337e+03 
1.227100e-01 1.659810e+03 
1.238900e-01 1.641337e+03 
1.250700e-01 1.624654e+03 
1.263200e-01 1.607705e+03 
1.275500e-01 1.592104e+03 
1.287500e-01 1.577242e+03 
1.299900e-01 1.562245e+03 
1.311300e-01 1.548350e+03 
1.323500e-01 1.533175e+03 
1.335900e-01 1.517292e+03 
1.347100e-01 1.502182e+03 
1.359800e-01 1.484557e+03 
1.372100e-01 1.466140e+03 
1.384300e-01 1.447525e+03 
1.395700e-01 1.428713e+03 
1.407700e-01 1.409110e+03 
1.420300e-01 1.386734e+03 
1.432800e-01 1.365046e+03 
1.444500e-01 1.343554e+03 
1.456300e-01 1.322353e+03 
1.468900e-01 1.299683e+03 
1.480500e-01 1.279119e+03 
1.491700e-01 1.259742e+03 
1.503800e-01 1.239330e+03 
1.516400e-01 1.218722e+03 
1.528200e-01 1.200591e+03 
1.540200e-01 1.182538e+03 
1.551900e-01 1.166346e+03 
1.564300e-01 1.149788e+03 
1.576600e-01 1.134344e+03 
1.588700e-01 1.120225e+03 
1.600900e-01 1.106329e+03 
1.612700e-01 1.094329e+03 
1.625400e-01 1.081657e+03 
1.637600e-01 1.070236e+03 
1.649500e-01 1.059601e+03 
1.662200e-01 1.048518e+03 
1.674000e-01 1.038734e+03 
1.685000e-01 1.029764e+03 
1.697500e-01 1.019707e+03 
1.710300e-01 1.009558e+03 
1.722200e-01 1.000289e+03 
1.734400e-01 9.905551e+02 
1.746400e-01 9.811279e+02 
1.758700e-01 9.714391e+02 
1.770900e-01 9.616051e+02 
1.782700e-01 9.522528e+02 
1.794600e-01 9.426171e+02 
1.807000e-01 9.325041e+02 
1.819100e-01 9.228032e+02 
1.830100e-01 9.137359e+02 
1.842200e-01 9.038547e+02 
1.855000e-01 8.935672e+02 
1.867000e-01 8.837699e+02 
1.879200e-01 8.739751e+02 
1.890900e-01 8.647127e+02 
1.902800e-01 8.553271e+02 
1.915200e-01 8.457083e+02 
1.926900e-01 8.367876e+02 
1.939000e-01 8.277340e+02 
1.951700e-01 8.183883e+02 
1.963100e-01 8.101730e+02 
1.975100e-01 8.017653e+02 
1.987800e-01 7.930100e+02 
2.000100e-01 7.847342e+02 
2.012500e-01 7.766780e+02 
2.023400e-01 7.697010e+02 
2.036100e-01 7.617396e+02 
2.048900e-01 7.540256e+02 
2.060400e-01 7.471990e+02 
2.072200e-01 7.403089e+02 
2.084200e-01 7.335792e+02 
2.096900e-01 7.265629e+02 
2.109200e-01 7.198693e+02 
2.121100e-01 7.136032e+02 
2.132700e-01 7.075857e+02 
2.145200e-01 7.011930e+02 
2.157200e-01 6.951772e+02 
2.168800e-01 6.894571e+02 
2.180700e-01 6.836684e+02 
2.193400e-01 6.775710e+02 
2.206000e-01 6.715966e+02 
2.217500e-01 6.662183e+02 
2.229500e-01 6.606804e+02 
2.241400e-01 6.551932e+02 
2.253500e-01 6.496869e+02 
2.264900e-01 6.445670e+02 
2.277100e-01 6.391099e+02 
2.289900e-01 6.334085e+02 
2.301500e-01 6.283110e+02 
2.313600e-01 6.230619e+02 
2.325600e-01 6.178129e+02 
2.337700e-01 6.125898e+02 
2.350000e-01 6.073506e+02 
2.362000e-01 6.022606e+02 
2.374100e-01 5.971411e+02 
2.386500e-01 5.919637e+02 
2.399100e-01 5.867731e+02 
2.410400e-01 5.821176e+02 
2.422500e-01 5.771870e+02 
2.435000e-01 5.721597e+02 
2.447300e-01 5.672697e+02 
2.458700e-01 5.627627e+02 
2.470600e-01 5.581154e+02 
2.483300e-01 5.532192e+02 
2.495600e-01 5.485384e+02 
2.507600e-01 5.440287e+02 
2.519600e-01 5.395745e+02 
2.532200e-01 5.349565e+02 
2.543700e-01 5.308110e+02 
2.555500e-01 5.266195e+02 
2.568000e-01 5.222337e+02 
2.580100e-01 5.180405e+02 
2.592400e-01 5.138620e+02 
2.604100e-01 5.099486e+02 
2.616100e-01 5.059817e+02 
2.628400e-01 5.019642e+02 
2.640600e-01 4.980737e+02 
2.652200e-01 4.944357e+02 
2.664300e-01 4.906842e+02 
2.676500e-01 4.869457e+02 
2.688400e-01 4.833783e+02 
2.700700e-01 4.797565e+02 
2.712400e-01 4.763502e+02 
2.724800e-01 4.727810e+02 
2.736700e-01 4.694213e+02 
2.748800e-01 4.660707e+02 
2.761000e-01 4.627302e+02 
2.773200e-01 4.594272e+02 
2.785400e-01 4.561738e+02 
2.797000e-01 4.531409e+02 
2.808900e-01 4.500626e+02 
2.821400e-01 4.468645e+02 
2.833900e-01 4.437034e+02 
2.845500e-01 4.408259e+02 
2.857800e-01 4.378070e+02 
2.870300e-01 4.347726e+02 
2.882100e-01 4.319387e+02 
2.893900e-01 4.291456e+02 
2.906300e-01 4.262477e+02 
2.918900e-01 4.233348e+02 
2.930500e-01 4.206812e+02 
2.942500e-01 4.179650e+02 
2.954200e-01 4.153472e+02 
2.966500e-01 4.126233e+02 
2.978900e-01 4.099061e+02 
2.990400e-01 4.074115e+02 
3.002700e-01 4.047702e+02 
3.015100e-01 4.021349e+02 
3.026800e-01 3.996735e+02 
3.038500e-01 3.972360e+02 
3.050300e-01 3.948015e+02 
3.062600e-01 3.922835e+02 
3.075000e-01 3.897708e+02 
3.087000e-01 3.873635e+02 
3.099100e-01 3.849600e+02 
3.111200e-01 3.825780e+02 
3.123100e-01 3.802542e+02 
3.135300e-01 3.778950e+02 
3.147300e-01 3.755971e+02 
3.159900e-01 3.732081e+02 
3.171800e-01 3.709711e+02 
3.183700e-01 3.687536e+02 
3.196300e-01 3.664285e+02 
3.208400e-01 3.642174e+02 
3.220300e-01 3.620634e+02 
3.232000e-01 3.599631e+02 
3.244300e-01 3.577750e+02 
3.256700e-01 3.555904e+02 
3.269200e-01 3.534094e+02 
3.280800e-01 3.514043e+02 
3.292500e-01 3.493999e+02 
3.304800e-01 3.473120e+02 
3.317100e-01 3.452437e+02 
3.328900e-01 3.432778e+02 
3.340700e-01 3.413295e+02 
3.353600e-01 3.392209e+02 
3.365300e-01 3.373268e+02 
3.377100e-01 3.354333e+02 
3.389200e-01 3.335091e+02 
3.401600e-01 3.315553e+02 
3.413700e-01 3.296702e+02 
3.425300e-01 3.278818e+02 
3.437700e-01 3.259870e+02 
3.449800e-01 3.241547e+02 
3.461800e-01 3.223536e+02 
3.473600e-01 3.206001e+02 
3.485800e-01 3.188081e+02 
3.498100e-01 3.170174e+02 
3.510200e-01 3.152714e+02 
3.522000e-01 3.135834e+02 
3.533900e-01 3.118954e+02 
3.546400e-01 3.101486e+02 
3.558400e-01 3.084868e+02 
3.570600e-01 3.068118e+02 
3.582700e-01 3.051647e+02 
3.595000e-01 3.035049e+02 
3.607100e-01 3.018931e+02 
3.618900e-01 3.003400e+02 
3.631200e-01 2.987346e+02 
3.643200e-01 2.971816e+02 
3.655500e-01 2.956032e+02 
3.667300e-01 2.941015e+02 
3.679500e-01 2.925743e+02 
3.691900e-01 2.910351e+02 
3.703600e-01 2.895948e+02 
3.715700e-01 2.881172e+02 
3.727700e-01 2.866638e+02 
3.739900e-01 2.852029e+02 
3.752000e-01 2.837743e+02 
3.763900e-01 2.823806e+02 
3.775800e-01 2.809980e+02 
3.788200e-01 2.795689e+02 
3.800300e-01 2.781858e+02 
3.812100e-01 2.768552e+02 
3.824200e-01 2.755066e+02 
3.836100e-01 2.741908e+02 
3.848600e-01 2.728196e+02 
3.860400e-01 2.715355e+02 
3.872400e-01 2.702396e+02 
3.884600e-01 2.689420e+02 
3.896500e-01 2.676897e+02 
3.908700e-01 2.664158e+02 
3.920600e-01 2.651827e+02 
3.933100e-01 2.638976e+02 
3.945300e-01 2.626531e+02 
3.957200e-01 2.614587e+02 
3.969300e-01 2.602561e+02 
3.981700e-01 2.590333e+02 
3.993500e-01 2.578784e+02 
4.094840e-01 2.483482e+02 
4.272360e-01 2.332770e+02 
4.454600e-01 2.195424e+02 
4.630560e-01 2.076749e+02 
4.804610e-01 1.970606e+02 
4.980690e-01 1.872932e+02 
5.159230e-01 1.782438e+02 
5.317440e-01 1.708550e+02 
5.489640e-01 1.634067e+02 
5.671990e-01 1.561319e+02 
5.838690e-01 1.499650e+02 
6.018840e-01 1.437834e+02 
6.202330e-01 1.379535e+02 
6.379250e-01 1.327264e+02 
6.545410e-01 1.281513e+02 
6.714560e-01 1.237926e+02 
6.892080e-01 1.195112e+02 
7.066010e-01 1.155937e+02 
7.240540e-01 1.119058e+02 
7.420450e-01 1.083471e+02 
7.593780e-01 1.051316e+02 
7.764720e-01 1.021439e+02 
7.942840e-01 9.921430e+01 
8.116170e-01 9.652772e+01 
8.288310e-01 9.400819e+01 
8.462240e-01 9.159864e+01 
8.631980e-01 8.937139e+01 
8.810700e-01 8.714836e+01 
8.989410e-01 8.504197e+01 
9.166330e-01 8.305982e+01 
9.345640e-01 8.115172e+01 
9.515980e-01 7.942545e+01 
9.688720e-01 7.775269e+01 
9.865640e-01 7.611862e+01 
1.031870e+00 7.224433e+01 
1.063490e+00 6.978042e+01 
1.097920e+00 6.729567e+01 
1.134370e+00 6.485460e+01 
1.167730e+00 6.277731e+01 
1.203830e+00 6.067707e+01 
1.240470e+00 5.868479e+01 
1.275790e+00 5.688391e+01 
1.309140e+00 5.528309e+01 
1.342970e+00 5.374101e+01 
1.378420e+00 5.221341e+01 
1.413200e+00 5.079262e+01 
1.448110e+00 4.943659e+01 
1.484090e+00 4.810699e+01 
1.518820e+00 4.688501e+01 
1.552880e+00 4.573797e+01 
1.588630e+00 4.458676e+01 
1.623230e+00 4.351913e+01 
1.657720e+00 4.250093e+01 
1.692450e+00 4.151475e+01 
1.726400e+00 4.058823e+01 
1.762200e+00 3.964711e+01 
1.797880e+00 3.874528e+01 
1.833270e+00 3.788404e+01 
1.869070e+00 3.704486e+01 
1.903200e+00 3.627159e+01 
1.937740e+00 3.551616e+01 
1.973190e+00 3.476664e+01 
2.007440e+00 3.406622e+01 
2.042160e+00 3.337828e+01 
2.077900e+00 3.269255e+01 
2.112390e+00 3.205298e+01 
2.146220e+00 3.144232e+01 
2.181600e+00 3.082355e+01 
2.216930e+00 3.022311e+01 
2.250760e+00 2.966504e+01 
2.286500e+00 2.909305e+01 
2.321770e+00 2.854488e+01 
2.355950e+00 2.802717e+01 
2.391280e+00 2.750656e+01 
2.426240e+00 2.700491e+01 
2.460670e+00 2.652442e+01 
2.495640e+00 2.605027e+01 
2.531080e+00 2.558084e+01 
2.566220e+00 2.512695e+01 
2.600830e+00 2.469141e+01 
2.635080e+00 2.427144e+01 
2.670340e+00 2.384938e+01 
2.705970e+00 2.343318e+01 
2.740040e+00 2.304498e+01 
2.774520e+00 2.266086e+01 
2.809730e+00 2.227745e+01 
2.844390e+00 2.190945e+01 
2.879960e+00 2.154051e+01 
2.914860e+00 2.118620e+01 
2.949410e+00 2.084382e+01 
2.984440e+00 2.050355e+01 
3.019760e+00 2.016849e+01 
3.054730e+00 1.984495e+01 
3.089030e+00 1.953268e+01 
3.124060e+00 1.922145e+01 
3.159560e+00 1.891319e+01 
3.194710e+00 1.861380e+01 
3.229010e+00 1.832846e+01 
3.263320e+00 1.804749e+01 
3.297930e+00 1.777060e+01 
3.332830e+00 1.749693e+01 
3.368040e+00 1.722642e+01 
3.403300e+00 1.696136e+01 
3.438450e+00 1.670190e+01 
3.473060e+00 1.645237e+01 
3.508440e+00 1.620097e+01 
3.543110e+00 1.596037e+01 
3.577470e+00 1.572589e+01 
3.613040e+00 1.548841e+01 
3.648120e+00 1.525812e+01 
3.682910e+00 1.503462e+01 
3.718050e+00 1.481316e+01 
3.753320e+00 1.459515e+01 
3.787980e+00 1.438444e+01 
3.822290e+00 1.418001e+01 
3.857020e+00 1.397685e+01 
3.891920e+00 1.377669e+01 
3.926650e+00 1.358083e+01 
3.961970e+00 1.338561e+01 
3.997360e+00 1.319313e+01 
4.031670e+00 1.301038e+01 
4.066330e+00 1.282862e+01 
4.101420e+00 1.264854e+01 
4.136200e+00 1.247237e+01 
4.170810e+00 1.230079e+01 
4.206250e+00 1.212778e+01 
4.241580e+00 1.195882e+01 
4.276300e+00 1.179545e+01 
4.310970e+00 1.163525e+01 
4.346120e+00 1.147574e+01 
4.380600e+00 1.132175e+01 
4.414730e+00 1.117234e+01 
4.450350e+00 1.101846e+01 
4.485320e+00 1.087047e+01 
4.519810e+00 1.072684e+01 
4.555430e+00 1.058121e+01 
4.590870e+00 1.043887e+01 
4.625480e+00 1.030185e+01 
4.659910e+00 1.016817e+01 
4.695230e+00 1.003304e+01 
4.729960e+00 9.902629e+00 
4.764450e+00 9.775367e+00 
4.799530e+00 9.648019e+00 
4.834910e+00 9.522035e+00 
4.869700e+00 9.399720e+00 
4.904370e+00 9.279970e+00 
4.939450e+00 9.160919e+00 
4.973940e+00 9.045672e+00 
5.008430e+00 8.932520e+00 
5.043810e+00 8.818183e+00 
5.078840e+00 8.706830e+00 
5.113500e+00 8.598640e+00 
5.148890e+00 8.489696e+00 
5.184210e+00 8.382915e+00 
5.219060e+00 8.279332e+00 
5.253660e+00 8.178005e+00 
5.288570e+00 8.077559e+00 
5.323420e+00 7.978792e+00 
5.358440e+00 7.880997e+00 
5.393590e+00 7.784547e+00 
5.428310e+00 7.690807e+00 
5.462800e+00 7.599211e+00 
5.497640e+00 7.508249e+00 
5.532670e+00 7.418054e+00 
5.567280e+00 7.330346e+00 
5.602000e+00 7.243823e+00 
5.637270e+00 7.157204e+00 
5.672410e+00 7.072303e+00 
5.707020e+00 6.990059e+00 
5.742040e+00 6.908055e+00 
5.777430e+00 6.826519e+00 
5.812210e+00 6.747695e+00 
5.846820e+00 6.670366e+00 
5.881610e+00 6.593838e+00 
5.916510e+00 6.518294e+00 
5.951600e+00 6.443481e+00 
5.986560e+00 6.370098e+00 
6.021830e+00 6.297237e+00 
6.056490e+00 6.226679e+00 
6.091160e+00 6.157125e+00 
6.125830e+00 6.088643e+00 
6.161090e+00 6.020055e+00 
6.195760e+00 5.953613e+00 
6.230420e+00 5.888200e+00 
6.265690e+00 5.822650e+00 
6.300950e+00 5.758118e+00 
6.335620e+00 5.695623e+00 
6.370880e+00 5.633020e+00 
6.405550e+00 5.572340e+00 
6.440220e+00 5.512537e+00 
6.475480e+00 5.452618e+00 
6.510150e+00 5.394577e+00 
6.544810e+00 5.337414e+00 
6.580080e+00 5.280094e+00 
6.614750e+00 5.224569e+00 
6.649410e+00 5.169839e+00 
6.684080e+00 5.115873e+00 
6.719340e+00 5.061776e+00 
6.754010e+00 5.009364e+00 
6.788680e+00 4.957740e+00 
6.823940e+00 4.905979e+00 
6.859800e+00 4.854092e+00 
6.894470e+00 4.804692e+00 
6.929140e+00 4.755995e+00 
6.963800e+00 4.707983e+00 
6.999070e+00 4.659804e+00 
7.033730e+00 4.613150e+00 
7.068400e+00 4.567116e+00 
7.103660e+00 4.520937e+00 
7.138330e+00 4.476162e+00 
7.173600e+00 4.431262e+00 
7.208260e+00 4.387731e+00 
7.243530e+00 4.344028e+00 
7.277600e+00 4.302429e+00 
7.312860e+00 4.259997e+00 
7.348120e+00 4.218131e+00 
7.382790e+00 4.177506e+00 
7.417460e+00 4.137449e+00 
7.452720e+00 4.097262e+00 
7.487390e+00 4.058260e+00 
7.522650e+00 4.019108e+00 
7.557320e+00 3.981178e+00 
7.591990e+00 3.943756e+00 
7.627250e+00 3.906183e+00 
7.662510e+00 3.869092e+00 
7.697180e+00 3.833181e+00 
7.731850e+00 3.797755e+00 
7.766510e+00 3.762780e+00 
7.801180e+00 3.728228e+00 
7.836440e+00 3.693592e+00 
7.871110e+00 3.659998e+00 
7.906380e+00 3.626245e+00 
7.941040e+00 3.593483e+00 
7.976310e+00 3.560598e+00 
8.011570e+00 3.528180e+00 
8.046240e+00 3.496692e+00 
8.080900e+00 3.465591e+00 
8.115570e+00 3.434877e+00 
8.150830e+00 3.404108e+00 
8.185500e+00 3.374215e+00 
8.220770e+00 3.344166e+00 
8.255430e+00 3.314987e+00 
8.290100e+00 3.286248e+00 
8.324770e+00 3.257856e+00 
8.359430e+00 3.229802e+00 
8.394700e+00 3.201587e+00 
8.429960e+00 3.173765e+00 
8.464630e+00 3.146779e+00 
8.499890e+00 3.119651e+00 
8.534560e+00 3.093282e+00 
8.569200e+00 3.067235e+00 
