# Parameters:
# omega_b = 0.022650, omega_m = 0.151417, n_s = 0.941339, h = 82.401575, w = -1.000000, sigma_8 = 0.755118
# z = 1.900000
#
# k[1/Mpc] # P(k):
8.694000e-04 2.066362e+03 
2.077466e-03 4.354210e+03 
3.285532e-03 6.146870e+03 
4.493598e-03 7.544404e+03 
5.701664e-03 8.599526e+03 
6.909730e-03 9.366977e+03 
8.117797e-03 9.908716e+03 
9.325863e-03 1.025641e+04 
1.053393e-02 1.044097e+04 
1.174199e-02 1.049072e+04 
1.295006e-02 1.042436e+04 
1.415813e-02 1.026713e+04 
1.536619e-02 1.003945e+04 
1.657426e-02 9.755021e+03 
1.778233e-02 9.427635e+03 
1.899039e-02 9.077789e+03 
2.019846e-02 8.716429e+03 
2.140652e-02 8.353447e+03 
2.261459e-02 7.994248e+03 
2.382266e-02 7.646123e+03 
2.503072e-02 7.314763e+03 
2.623879e-02 7.002781e+03 
2.744685e-02 6.711030e+03 
2.865492e-02 6.441853e+03 
2.986299e-02 6.194931e+03 
3.100100e-02 5.982705e+03 
3.220400e-02 5.778964e+03 
3.288100e-02 5.673603e+03 
3.424300e-02 5.479981e+03 
3.555100e-02 5.314485e+03 
3.686000e-02 5.166817e+03 
3.795000e-02 5.055417e+03 
3.929100e-02 4.931164e+03 
4.039800e-02 4.836394e+03 
4.164000e-02 4.736352e+03 
4.294400e-02 4.635490e+03 
4.415000e-02 4.544786e+03 
4.542900e-02 4.447691e+03 
4.660900e-02 4.357849e+03 
4.782300e-02 4.260900e+03 
4.892900e-02 4.170602e+03 
5.031200e-02 4.053179e+03 
5.155900e-02 3.942527e+03 
5.238100e-02 3.867507e+03 
5.378200e-02 3.736368e+03 
5.513400e-02 3.605102e+03 
5.627600e-02 3.490671e+03 
5.735300e-02 3.380013e+03 
5.870100e-02 3.237713e+03 
5.988700e-02 3.110413e+03 
6.113500e-02 2.975940e+03 
6.225900e-02 2.856772e+03 
6.340100e-02 2.740674e+03 
6.480200e-02 2.608170e+03 
6.601100e-02 2.505631e+03 
6.725500e-02 2.412324e+03 
6.829100e-02 2.344791e+03 
6.958600e-02 2.270452e+03 
7.071100e-02 2.215135e+03 
7.192300e-02 2.163282e+03 
7.307400e-02 2.120467e+03 
7.412300e-02 2.086040e+03 
7.550400e-02 2.046822e+03 
7.663100e-02 2.018416e+03 
7.791200e-02 1.990068e+03 
7.912700e-02 1.965690e+03 
8.027600e-02 1.943946e+03 
8.138400e-02 1.923674e+03 
8.272200e-02 1.899484e+03 
8.406100e-02 1.874869e+03 
8.534100e-02 1.849890e+03 
8.653800e-02 1.824735e+03 
8.759800e-02 1.801262e+03 
8.900300e-02 1.767995e+03 
9.009000e-02 1.740246e+03 
9.113300e-02 1.711681e+03 
9.239600e-02 1.675797e+03 
9.358000e-02 1.640394e+03 
9.496100e-02 1.596757e+03 
9.608400e-02 1.560602e+03 
9.727500e-02 1.522057e+03 
9.852600e-02 1.480252e+03 
9.973800e-02 1.440440e+03 
1.009000e-01 1.402974e+03 
1.020900e-01 1.365355e+03 
1.034000e-01 1.325608e+03 
1.046000e-01 1.290732e+03 
1.057200e-01 1.260377e+03 
1.069100e-01 1.229679e+03 
1.082500e-01 1.198096e+03 
1.093900e-01 1.173555e+03 
1.105400e-01 1.150351e+03 
1.116900e-01 1.130070e+03 
1.129600e-01 1.109117e+03 
1.142000e-01 1.091428e+03 
1.153300e-01 1.076586e+03 
1.166400e-01 1.061161e+03 
1.177800e-01 1.049170e+03 
1.190000e-01 1.037159e+03 
1.201200e-01 1.027155e+03 
1.213400e-01 1.016656e+03 
1.227100e-01 1.005489e+03 
1.238900e-01 9.960431e+02 
1.250700e-01 9.865089e+02 
1.263200e-01 9.763494e+02 
1.275500e-01 9.659214e+02 
1.287500e-01 9.554468e+02 
1.299900e-01 9.440206e+02 
1.311300e-01 9.330899e+02 
1.323500e-01 9.206560e+02 
1.335900e-01 9.075764e+02 
1.347100e-01 8.950592e+02 
1.359800e-01 8.806133e+02 
1.372100e-01 8.658114e+02 
1.384300e-01 8.510954e+02 
1.395700e-01 8.367515e+02 
1.407700e-01 8.219198e+02 
1.420300e-01 8.058801e+02 
1.432800e-01 7.903693e+02 
1.444500e-01 7.759006e+02 
1.456300e-01 7.616524e+02 
1.468900e-01 7.470678e+02 
1.480500e-01 7.340361e+02 
1.491700e-01 7.220675e+02 
1.503800e-01 7.098491e+02 
1.516400e-01 6.976308e+02 
1.528200e-01 6.873738e+02 
1.540200e-01 6.771597e+02 
1.551900e-01 6.683725e+02 
1.564300e-01 6.594795e+02 
1.576600e-01 6.513188e+02 
1.588700e-01 6.440275e+02 
1.600900e-01 6.368529e+02 
1.612700e-01 6.307496e+02 
1.625400e-01 6.243022e+02 
1.637600e-01 6.183994e+02 
1.649500e-01 6.128472e+02 
1.662200e-01 6.070068e+02 
1.674000e-01 6.015531e+02 
1.685000e-01 5.965533e+02 
1.697500e-01 5.907125e+02 
1.710300e-01 5.845853e+02 
1.722200e-01 5.789896e+02 
1.734400e-01 5.726772e+02 
1.746400e-01 5.665485e+02 
1.758700e-01 5.601532e+02 
1.770900e-01 5.534686e+02 
1.782700e-01 5.471161e+02 
1.794600e-01 5.405001e+02 
1.807000e-01 5.335142e+02 
1.819100e-01 5.268203e+02 
1.830100e-01 5.206033e+02 
1.842200e-01 5.138413e+02 
1.855000e-01 5.068169e+02 
1.867000e-01 5.002940e+02 
1.879200e-01 4.937799e+02 
1.890900e-01 4.876625e+02 
1.902800e-01 4.816561e+02 
1.915200e-01 4.755057e+02 
1.926900e-01 4.698598e+02 
1.939000e-01 4.643074e+02 
1.951700e-01 4.585791e+02 
1.963100e-01 4.535961e+02 
1.975100e-01 4.486315e+02 
1.987800e-01 4.434633e+02 
2.000100e-01 4.386139e+02 
2.012500e-01 4.339742e+02 
2.023400e-01 4.299566e+02 
2.036100e-01 4.253803e+02 
2.048900e-01 4.209763e+02 
2.060400e-01 4.170793e+02 
2.072200e-01 4.131438e+02 
2.084200e-01 4.092683e+02 
2.096900e-01 4.052282e+02 
2.109200e-01 4.013744e+02 
2.121100e-01 3.976966e+02 
2.132700e-01 3.941617e+02 
2.145200e-01 3.904070e+02 
2.157200e-01 3.868176e+02 
2.168800e-01 3.833789e+02 
2.180700e-01 3.799000e+02 
2.193400e-01 3.762140e+02 
2.206000e-01 3.725614e+02 
2.217500e-01 3.692744e+02 
2.229500e-01 3.658912e+02 
2.241400e-01 3.625124e+02 
2.253500e-01 3.591226e+02 
2.264900e-01 3.559720e+02 
2.277100e-01 3.526234e+02 
2.289900e-01 3.491354e+02 
2.301500e-01 3.460181e+02 
2.313600e-01 3.428099e+02 
2.325600e-01 3.396507e+02 
2.337700e-01 3.365082e+02 
2.350000e-01 3.333573e+02 
2.362000e-01 3.303284e+02 
2.374100e-01 3.273193e+02 
2.386500e-01 3.242770e+02 
2.399100e-01 3.212280e+02 
2.410400e-01 3.185527e+02 
2.422500e-01 3.157272e+02 
2.435000e-01 3.128470e+02 
2.447300e-01 3.100567e+02 
2.458700e-01 3.075285e+02 
2.470600e-01 3.049220e+02 
2.483300e-01 3.021761e+02 
2.495600e-01 2.995658e+02 
2.507600e-01 2.970707e+02 
2.519600e-01 2.946066e+02 
2.532200e-01 2.920519e+02 
2.543700e-01 2.897643e+02 
2.555500e-01 2.874553e+02 
2.568000e-01 2.850394e+02 
2.580100e-01 2.827297e+02 
2.592400e-01 2.804202e+02 
2.604100e-01 2.782538e+02 
2.616100e-01 2.760580e+02 
2.628400e-01 2.738343e+02 
2.640600e-01 2.716620e+02 
2.652200e-01 2.696232e+02 
2.664300e-01 2.675210e+02 
2.676500e-01 2.654264e+02 
2.688400e-01 2.634077e+02 
2.700700e-01 2.613459e+02 
2.712400e-01 2.594071e+02 
2.724800e-01 2.573758e+02 
2.736700e-01 2.554476e+02 
2.748800e-01 2.535081e+02 
2.761000e-01 2.515748e+02 
2.773200e-01 2.496635e+02 
2.785400e-01 2.477725e+02 
2.797000e-01 2.459911e+02 
2.808900e-01 2.441835e+02 
2.821400e-01 2.423060e+02 
2.833900e-01 2.404498e+02 
2.845500e-01 2.387397e+02 
2.857800e-01 2.369462e+02 
2.870300e-01 2.351440e+02 
2.882100e-01 2.334614e+02 
2.893900e-01 2.317935e+02 
2.906300e-01 2.300583e+02 
2.918900e-01 2.283148e+02 
2.930500e-01 2.267269e+02 
2.942500e-01 2.251003e+02 
2.954200e-01 2.235271e+02 
2.966500e-01 2.218907e+02 
2.978900e-01 2.202589e+02 
2.990400e-01 2.187614e+02 
3.002700e-01 2.171748e+02 
3.015100e-01 2.155917e+02 
3.026800e-01 2.141135e+02 
3.038500e-01 2.126503e+02 
3.050300e-01 2.111894e+02 
3.062600e-01 2.096804e+02 
3.075000e-01 2.081751e+02 
3.087000e-01 2.067334e+02 
3.099100e-01 2.052946e+02 
3.111200e-01 2.038709e+02 
3.123100e-01 2.024857e+02 
3.135300e-01 2.010799e+02 
3.147300e-01 1.997111e+02 
3.159900e-01 1.982885e+02 
3.171800e-01 1.969609e+02 
3.183700e-01 1.956477e+02 
3.196300e-01 1.942713e+02 
3.208400e-01 1.929628e+02 
3.220300e-01 1.916886e+02 
3.232000e-01 1.904511e+02 
3.244300e-01 1.891642e+02 
3.256700e-01 1.878797e+02 
3.269200e-01 1.865978e+02 
3.280800e-01 1.854197e+02 
3.292500e-01 1.842471e+02 
3.304800e-01 1.830277e+02 
3.317100e-01 1.818201e+02 
3.328900e-01 1.806726e+02 
3.340700e-01 1.795357e+02 
3.353600e-01 1.783097e+02 
3.365300e-01 1.772102e+02 
3.377100e-01 1.761115e+02 
3.389200e-01 1.749952e+02 
3.401600e-01 1.738621e+02 
3.413700e-01 1.727718e+02 
3.425300e-01 1.717394e+02 
3.437700e-01 1.706459e+02 
3.449800e-01 1.695888e+02 
3.461800e-01 1.685500e+02 
3.473600e-01 1.675397e+02 
3.485800e-01 1.665094e+02 
3.498100e-01 1.654802e+02 
3.510200e-01 1.644768e+02 
3.522000e-01 1.635071e+02 
3.533900e-01 1.625377e+02 
3.546400e-01 1.615360e+02 
3.558400e-01 1.605834e+02 
3.570600e-01 1.596235e+02 
3.582700e-01 1.586799e+02 
3.595000e-01 1.577292e+02 
3.607100e-01 1.568061e+02 
3.618900e-01 1.559167e+02 
3.631200e-01 1.549977e+02 
3.643200e-01 1.541088e+02 
3.655500e-01 1.532056e+02 
3.667300e-01 1.523465e+02 
3.679500e-01 1.514723e+02 
3.691900e-01 1.505914e+02 
3.703600e-01 1.497673e+02 
3.715700e-01 1.489221e+02 
3.727700e-01 1.480909e+02 
3.739900e-01 1.472549e+02 
3.752000e-01 1.464362e+02 
3.763900e-01 1.456377e+02 
3.775800e-01 1.448457e+02 
3.788200e-01 1.440273e+02 
3.800300e-01 1.432353e+02 
3.812100e-01 1.424722e+02 
3.824200e-01 1.416981e+02 
3.836100e-01 1.409429e+02 
3.848600e-01 1.401561e+02 
3.860400e-01 1.394194e+02 
3.872400e-01 1.386762e+02 
3.884600e-01 1.379301e+02 
3.896500e-01 1.372094e+02 
3.908700e-01 1.364764e+02 
3.920600e-01 1.357671e+02 
3.933100e-01 1.350280e+02 
3.945300e-01 1.343126e+02 
3.957200e-01 1.336232e+02 
3.969300e-01 1.329286e+02 
3.981700e-01 1.322224e+02 
3.993500e-01 1.315557e+02 
4.094840e-01 1.260508e+02 
4.272360e-01 1.172914e+02 
4.454600e-01 1.092937e+02 
4.630560e-01 1.023882e+02 
4.804610e-01 9.623868e+01 
4.980690e-01 9.061838e+01 
5.159230e-01 8.545801e+01 
5.317440e-01 8.128426e+01 
5.489640e-01 7.712189e+01 
5.671990e-01 7.309819e+01 
5.838690e-01 6.972199e+01 
6.018840e-01 6.636527e+01 
6.202330e-01 6.322673e+01 
6.379250e-01 6.043356e+01 
6.545410e-01 5.800520e+01 
6.714560e-01 5.570142e+01 
6.892080e-01 5.345291e+01 
7.066010e-01 5.140268e+01 
7.240540e-01 4.948116e+01 
7.420450e-01 4.763284e+01 
7.593780e-01 4.596754e+01 
7.764720e-01 4.442495e+01 
7.942840e-01 4.291498e+01 
8.116170e-01 4.153501e+01 
8.288310e-01 4.024389e+01 
8.462240e-01 3.901284e+01 
8.631980e-01 3.787786e+01 
8.810700e-01 3.674828e+01 
8.989410e-01 3.568005e+01 
9.166330e-01 3.467944e+01 
9.345640e-01 3.371874e+01 
9.515980e-01 3.285139e+01 
9.688720e-01 3.201531e+01 
9.865640e-01 3.120091e+01 
1.031870e+00 2.928493e+01 
1.063490e+00 2.807782e+01 
1.097920e+00 2.687009e+01 
1.134370e+00 2.569609e+01 
1.167730e+00 2.470615e+01 
1.203830e+00 2.371603e+01 
1.240470e+00 2.278687e+01 
1.275790e+00 2.195616e+01 
1.309140e+00 2.122376e+01 
1.342970e+00 2.052876e+01 
1.378420e+00 1.984602e+01 
1.413200e+00 1.921770e+01 
1.448110e+00 1.862441e+01 
1.484090e+00 1.804870e+01 
1.518820e+00 1.752469e+01 
1.552880e+00 1.703829e+01 
1.588630e+00 1.655459e+01 
1.623230e+00 1.611081e+01 
1.657720e+00 1.569038e+01 
1.692450e+00 1.528755e+01 
1.726400e+00 1.491213e+01 
1.762200e+00 1.453438e+01 
1.797880e+00 1.417529e+01 
1.833270e+00 1.383532e+01 
1.869070e+00 1.350620e+01 
1.903200e+00 1.320593e+01 
1.937740e+00 1.291443e+01 
1.973190e+00 1.262693e+01 
2.007440e+00 1.236015e+01 
2.042160e+00 1.210005e+01 
2.077900e+00 1.184249e+01 
2.112390e+00 1.160313e+01 
2.146220e+00 1.137675e+01 
2.181600e+00 1.114822e+01 
2.216930e+00 1.092807e+01 
2.250760e+00 1.072437e+01 
2.286500e+00 1.051638e+01 
2.321770e+00 1.031812e+01 
2.355950e+00 1.013213e+01 
2.391280e+00 9.945805e+00 
2.426240e+00 9.767231e+00 
2.460670e+00 9.596780e+00 
2.495640e+00 9.428913e+00 
2.531080e+00 9.263550e+00 
2.566220e+00 9.104572e+00 
2.600830e+00 8.952567e+00 
2.635080e+00 8.806382e+00 
2.670340e+00 8.659724e+00 
2.705970e+00 8.515715e+00 
2.740040e+00 8.381828e+00 
2.774520e+00 8.249771e+00 
2.809730e+00 8.118338e+00 
2.844390e+00 7.992409e+00 
2.879960e+00 7.866438e+00 
2.914860e+00 7.745781e+00 
2.949410e+00 7.629404e+00 
2.984440e+00 7.514240e+00 
3.019760e+00 7.400913e+00 
3.054730e+00 7.291534e+00 
3.089030e+00 7.186378e+00 
3.124060e+00 7.081563e+00 
3.159560e+00 6.977745e+00 
3.194710e+00 6.877257e+00 
3.229010e+00 6.781582e+00 
3.263320e+00 6.687534e+00 
3.297930e+00 6.594889e+00 
3.332830e+00 6.503435e+00 
3.368040e+00 6.413070e+00 
3.403300e+00 6.324545e+00 
3.438450e+00 6.237998e+00 
3.473060e+00 6.154761e+00 
3.508440e+00 6.070999e+00 
3.543110e+00 5.990803e+00 
3.577470e+00 5.912636e+00 
3.613040e+00 5.833478e+00 
3.648120e+00 5.756806e+00 
3.682910e+00 5.682313e+00 
3.718050e+00 5.608375e+00 
3.753320e+00 5.535646e+00 
3.787980e+00 5.465459e+00 
3.822290e+00 5.397286e+00 
3.857020e+00 5.329431e+00 
3.891920e+00 5.262558e+00 
3.926650e+00 5.197121e+00 
3.961970e+00 5.131849e+00 
3.997360e+00 5.067446e+00 
4.031670e+00 5.006245e+00 
4.066330e+00 4.945286e+00 
4.101420e+00 4.884851e+00 
4.136200e+00 4.825680e+00 
4.170810e+00 4.768012e+00 
4.206250e+00 4.709741e+00 
4.241580e+00 4.652771e+00 
4.276300e+00 4.597647e+00 
4.310970e+00 4.543549e+00 
4.346120e+00 4.489612e+00 
4.380600e+00 4.437440e+00 
4.414730e+00 4.386786e+00 
4.450350e+00 4.334554e+00 
4.485320e+00 4.284282e+00 
4.519810e+00 4.235316e+00 
4.555430e+00 4.185567e+00 
4.590870e+00 4.136906e+00 
4.625480e+00 4.090037e+00 
4.659910e+00 4.044276e+00 
4.695230e+00 3.997864e+00 
4.729960e+00 3.953022e+00 
4.764450e+00 3.909163e+00 
4.799530e+00 3.865133e+00 
4.834910e+00 3.821540e+00 
4.869700e+00 3.779168e+00 
4.904370e+00 3.737648e+00 
4.939450e+00 3.696293e+00 
4.973940e+00 3.656111e+00 
5.008430e+00 3.616627e+00 
5.043810e+00 3.576646e+00 
5.078840e+00 3.537644e+00 
5.113500e+00 3.499719e+00 
5.148890e+00 3.461344e+00 
5.184210e+00 3.423692e+00 
5.219060e+00 3.387118e+00 
5.253660e+00 3.351260e+00 
5.288570e+00 3.315684e+00 
5.323420e+00 3.280639e+00 
5.358440e+00 3.245871e+00 
5.393590e+00 3.211551e+00 
5.428310e+00 3.178041e+00 
5.462800e+00 3.145204e+00 
5.497640e+00 3.112567e+00 
5.532670e+00 3.080133e+00 
5.567280e+00 3.048552e+00 
5.602000e+00 3.017372e+00 
5.637270e+00 2.986036e+00 
5.672410e+00 2.955274e+00 
5.707020e+00 2.925451e+00 
5.742040e+00 2.895593e+00 
5.777430e+00 2.865860e+00 
5.812210e+00 2.837094e+00 
5.846820e+00 2.808784e+00 
5.881610e+00 2.780728e+00 
5.916510e+00 2.753010e+00 
5.951600e+00 2.725462e+00 
5.986560e+00 2.698384e+00 
6.021830e+00 2.671477e+00 
6.056490e+00 2.645353e+00 
6.091160e+00 2.619541e+00 
6.125830e+00 2.594108e+00 
6.161090e+00 2.568588e+00 
6.195760e+00 2.543791e+00 
6.230420e+00 2.519359e+00 
6.265690e+00 2.494853e+00 
6.300950e+00 2.470592e+00 
6.335620e+00 2.447080e+00 
6.370880e+00 2.423509e+00 
6.405550e+00 2.400599e+00 
6.440220e+00 2.377986e+00 
6.475480e+00 2.355311e+00 
6.510150e+00 2.333306e+00 
6.544810e+00 2.311565e+00 
6.580080e+00 2.289747e+00 
6.614750e+00 2.268596e+00 
6.649410e+00 2.247683e+00 
6.684080e+00 2.227037e+00 
6.719340e+00 2.206325e+00 
6.754010e+00 2.186217e+00 
6.788680e+00 2.166331e+00 
6.823940e+00 2.146380e+00 
6.859800e+00 2.126364e+00 
6.894470e+00 2.107237e+00 
6.929140e+00 2.088348e+00 
6.963800e+00 2.069711e+00 
6.999070e+00 2.050993e+00 
7.033730e+00 2.032809e+00 
7.068400e+00 2.014855e+00 
7.103660e+00 1.996831e+00 
7.138330e+00 1.979329e+00 
7.173600e+00 1.961736e+00 
7.208260e+00 1.944667e+00 
7.243530e+00 1.927519e+00 
7.277600e+00 1.911151e+00 
7.312860e+00 1.894413e+00 
7.348120e+00 1.877887e+00 
7.382790e+00 1.861841e+00 
7.417460e+00 1.845977e+00 
7.452720e+00 1.830035e+00 
7.487390e+00 1.814554e+00 
7.522650e+00 1.799003e+00 
7.557320e+00 1.783904e+00 
7.591990e+00 1.768991e+00 
7.627250e+00 1.754008e+00 
7.662510e+00 1.739207e+00 
7.697180e+00 1.724828e+00 
7.731850e+00 1.710619e+00 
7.766510e+00 1.696583e+00 
7.801180e+00 1.682708e+00 
7.836440e+00 1.668758e+00 
7.871110e+00 1.655200e+00 
7.906380e+00 1.641570e+00 
7.941040e+00 1.628332e+00 
7.976310e+00 1.615023e+00 
8.011570e+00 1.601881e+00 
8.046240e+00 1.589107e+00 
8.080900e+00 1.576483e+00 
8.115570e+00 1.564004e+00 
8.150830e+00 1.551476e+00 
8.185500e+00 1.539297e+00 
8.220770e+00 1.527048e+00 
8.255430e+00 1.515146e+00 
8.290100e+00 1.503380e+00 
8.324770e+00 1.491744e+00 
8.359430e+00 1.480241e+00 
8.394700e+00 1.468665e+00 
8.429960e+00 1.457231e+00 
8.464630e+00 1.446124e+00 
8.499890e+00 1.434950e+00 
8.534560e+00 1.424084e+00 
8.569200e+00 1.413345e+00 
