# Parameters:
# omega_b = 0.022098, omega_m = 0.123307, n_s = 0.950787, h = 73.897638, w = -1.000000, sigma_8 = 0.789764
# z = 1.900000
#
# k[1/Mpc] # P(k):
8.694000e-04 4.553430e+03 
2.077466e-03 9.466855e+03 
3.285532e-03 1.311658e+04 
4.493598e-03 1.577031e+04 
5.701664e-03 1.761319e+04 
6.909730e-03 1.880358e+04 
8.117797e-03 1.950186e+04 
9.325863e-03 1.979159e+04 
1.053393e-02 1.975222e+04 
1.174199e-02 1.945503e+04 
1.295006e-02 1.894562e+04 
1.415813e-02 1.828252e+04 
1.536619e-02 1.751460e+04 
1.657426e-02 1.667503e+04 
1.778233e-02 1.579329e+04 
1.899039e-02 1.491073e+04 
2.019846e-02 1.404918e+04 
2.140652e-02 1.322620e+04 
2.261459e-02 1.245130e+04 
2.382266e-02 1.173474e+04 
2.503072e-02 1.108212e+04 
2.623879e-02 1.049375e+04 
2.744685e-02 9.969640e+03 
2.865492e-02 9.506228e+03 
2.986299e-02 9.098347e+03 
3.100100e-02 8.762872e+03 
3.220400e-02 8.453135e+03 
3.288100e-02 8.298290e+03 
3.424300e-02 8.021018e+03 
3.555100e-02 7.790100e+03 
3.686000e-02 7.587089e+03 
3.795000e-02 7.433951e+03 
3.929100e-02 7.259797e+03 
4.039800e-02 7.122124e+03 
4.164000e-02 6.970881e+03 
4.294400e-02 6.807297e+03 
4.415000e-02 6.653167e+03 
4.542900e-02 6.478205e+03 
4.660900e-02 6.311106e+03 
4.782300e-02 6.124596e+03 
4.892900e-02 5.949146e+03 
5.031200e-02 5.720332e+03 
5.155900e-02 5.506311e+03 
5.238100e-02 5.363276e+03 
5.378200e-02 5.118503e+03 
5.513400e-02 4.883539e+03 
5.627600e-02 4.688985e+03 
5.735300e-02 4.511148e+03 
5.870100e-02 4.298356e+03 
5.988700e-02 4.122144e+03 
6.113500e-02 3.948665e+03 
6.225900e-02 3.804014e+03 
6.340100e-02 3.668700e+03 
6.480200e-02 3.517542e+03 
6.601100e-02 3.401770e+03 
6.725500e-02 3.295722e+03 
6.829100e-02 3.218077e+03 
6.958600e-02 3.131311e+03 
7.071100e-02 3.065818e+03 
7.192300e-02 3.003684e+03 
7.307400e-02 2.951733e+03 
7.412300e-02 2.909396e+03 
7.550400e-02 2.860037e+03 
7.663100e-02 2.823303e+03 
7.791200e-02 2.784675e+03 
7.912700e-02 2.749218e+03 
8.027600e-02 2.715718e+03 
8.138400e-02 2.682891e+03 
8.272200e-02 2.641646e+03 
8.406100e-02 2.597906e+03 
8.534100e-02 2.552222e+03 
8.653800e-02 2.505953e+03 
8.759800e-02 2.462990e+03 
8.900300e-02 2.402809e+03 
9.009000e-02 2.353585e+03 
9.113300e-02 2.304162e+03 
9.239600e-02 2.243316e+03 
9.358000e-02 2.184925e+03 
9.496100e-02 2.115549e+03 
9.608400e-02 2.059621e+03 
9.727500e-02 2.001224e+03 
9.852600e-02 1.940772e+03 
9.973800e-02 1.884499e+03 
1.009000e-01 1.832583e+03 
1.020900e-01 1.782885e+03 
1.034000e-01 1.731440e+03 
1.046000e-01 1.687394e+03 
1.057200e-01 1.650747e+03 
1.069100e-01 1.614233e+03 
1.082500e-01 1.578243e+03 
1.093900e-01 1.551091e+03 
1.105400e-01 1.525905e+03 
1.116900e-01 1.504736e+03 
1.129600e-01 1.483060e+03 
1.142000e-01 1.465072e+03 
1.153300e-01 1.449809e+03 
1.166400e-01 1.433679e+03 
1.177800e-01 1.420311e+03 
1.190000e-01 1.406503e+03 
1.201200e-01 1.393318e+03 
1.213400e-01 1.379154e+03 
1.227100e-01 1.361264e+03 
1.238900e-01 1.345598e+03 
1.250700e-01 1.328144e+03 
1.263200e-01 1.309161e+03 
1.275500e-01 1.288865e+03 
1.287500e-01 1.268512e+03 
1.299900e-01 1.246370e+03 
1.311300e-01 1.225729e+03 
1.323500e-01 1.203008e+03 
1.335900e-01 1.180023e+03 
1.347100e-01 1.159139e+03 
1.359800e-01 1.135906e+03 
1.372100e-01 1.113706e+03 
1.384300e-01 1.092323e+03 
1.395700e-01 1.073010e+03 
1.407700e-01 1.053230e+03 
1.420300e-01 1.033659e+03 
1.432800e-01 1.014721e+03 
1.444500e-01 9.984036e+02 
1.456300e-01 9.823104e+02 
1.468900e-01 9.663851e+02 
1.480500e-01 9.523020e+02 
1.491700e-01 9.394261e+02 
1.503800e-01 9.263656e+02 
1.516400e-01 9.132236e+02 
1.528200e-01 9.019168e+02 
1.540200e-01 8.906436e+02 
1.551900e-01 8.803834e+02 
1.564300e-01 8.698449e+02 
1.576600e-01 8.597607e+02 
1.588700e-01 8.502281e+02 
1.600900e-01 8.407996e+02 
1.612700e-01 8.318817e+02 
1.625400e-01 8.224630e+02 
1.637600e-01 8.134239e+02 
1.649500e-01 8.046729e+02 
1.662200e-01 7.954324e+02 
1.674000e-01 7.865945e+02 
1.685000e-01 7.784965e+02 
1.697500e-01 7.691551e+02 
1.710300e-01 7.594712e+02 
1.722200e-01 7.506341e+02 
1.734400e-01 7.411639e+02 
1.746400e-01 7.319948e+02 
1.758700e-01 7.226249e+02 
1.770900e-01 7.132120e+02 
1.782700e-01 7.042721e+02 
1.794600e-01 6.952672e+02 
1.807000e-01 6.859547e+02 
1.819100e-01 6.770339e+02 
1.830100e-01 6.690552e+02 
1.842200e-01 6.604272e+02 
1.855000e-01 6.514740e+02 
1.867000e-01 6.433936e+02 
1.879200e-01 6.353217e+02 
1.890900e-01 6.277579e+02 
1.902800e-01 6.204266e+02 
1.915200e-01 6.129167e+02 
1.926900e-01 6.060244e+02 
1.939000e-01 5.992581e+02 
1.951700e-01 5.922747e+02 
1.963100e-01 5.861827e+02 
1.975100e-01 5.800710e+02 
1.987800e-01 5.737068e+02 
2.000100e-01 5.677035e+02 
2.012500e-01 5.618882e+02 
2.023400e-01 5.568518e+02 
2.036100e-01 5.510899e+02 
2.048900e-01 5.454488e+02 
2.060400e-01 5.404569e+02 
2.072200e-01 5.354079e+02 
2.084200e-01 5.303443e+02 
2.096900e-01 5.250659e+02 
2.109200e-01 5.200310e+02 
2.121100e-01 5.151608e+02 
2.132700e-01 5.104768e+02 
2.145200e-01 5.055022e+02 
2.157200e-01 5.007239e+02 
2.168800e-01 4.961364e+02 
2.180700e-01 4.914958e+02 
2.193400e-01 4.865775e+02 
2.206000e-01 4.817007e+02 
2.217500e-01 4.773127e+02 
2.229500e-01 4.727969e+02 
2.241400e-01 4.682993e+02 
2.253500e-01 4.637880e+02 
2.264900e-01 4.595957e+02 
2.277100e-01 4.551501e+02 
2.289900e-01 4.505306e+02 
2.301500e-01 4.464027e+02 
2.313600e-01 4.421552e+02 
2.325600e-01 4.379922e+02 
2.337700e-01 4.338517e+02 
2.350000e-01 4.297006e+02 
2.362000e-01 4.257167e+02 
2.374100e-01 4.217663e+02 
2.386500e-01 4.177728e+02 
2.399100e-01 4.137708e+02 
2.410400e-01 4.102676e+02 
2.422500e-01 4.065689e+02 
2.435000e-01 4.027988e+02 
2.447300e-01 3.991483e+02 
2.458700e-01 3.958470e+02 
2.470600e-01 3.924436e+02 
2.483300e-01 3.888585e+02 
2.495600e-01 3.854539e+02 
2.507600e-01 3.822046e+02 
2.519600e-01 3.789958e+02 
2.532200e-01 3.756692e+02 
2.543700e-01 3.726964e+02 
2.555500e-01 3.697000e+02 
2.568000e-01 3.665648e+02 
2.580100e-01 3.635676e+02 
2.592400e-01 3.605776e+02 
2.604100e-01 3.577759e+02 
2.616100e-01 3.549362e+02 
2.628400e-01 3.520605e+02 
2.640600e-01 3.492571e+02 
2.652200e-01 3.466283e+02 
2.664300e-01 3.439178e+02 
2.676500e-01 3.412170e+02 
2.688400e-01 3.386172e+02 
2.700700e-01 3.359637e+02 
2.712400e-01 3.334686e+02 
2.724800e-01 3.308545e+02 
2.736700e-01 3.283740e+02 
2.748800e-01 3.258795e+02 
2.761000e-01 3.233931e+02 
2.773200e-01 3.209352e+02 
2.785400e-01 3.185034e+02 
2.797000e-01 3.162133e+02 
2.808900e-01 3.138894e+02 
2.821400e-01 3.114758e+02 
2.833900e-01 3.090895e+02 
2.845500e-01 3.068904e+02 
2.857800e-01 3.045839e+02 
2.870300e-01 3.022663e+02 
2.882100e-01 3.001025e+02 
2.893900e-01 2.979578e+02 
2.906300e-01 2.957264e+02 
2.918900e-01 2.934844e+02 
2.930500e-01 2.914425e+02 
2.942500e-01 2.893509e+02 
2.954200e-01 2.873288e+02 
2.966500e-01 2.852254e+02 
2.978900e-01 2.831278e+02 
2.990400e-01 2.812029e+02 
3.002700e-01 2.791642e+02 
3.015100e-01 2.771306e+02 
3.026800e-01 2.752317e+02 
3.038500e-01 2.733519e+02 
3.050300e-01 2.714752e+02 
3.062600e-01 2.695384e+02 
3.075000e-01 2.676063e+02 
3.087000e-01 2.657560e+02 
3.099100e-01 2.639092e+02 
3.111200e-01 2.620823e+02 
3.123100e-01 2.603057e+02 
3.135300e-01 2.585026e+02 
3.147300e-01 2.567469e+02 
3.159900e-01 2.549223e+02 
3.171800e-01 2.532201e+02 
3.183700e-01 2.515370e+02 
3.196300e-01 2.497728e+02 
3.208400e-01 2.480957e+02 
3.220300e-01 2.464624e+02 
3.232000e-01 2.448768e+02 
3.244300e-01 2.432279e+02 
3.256700e-01 2.415821e+02 
3.269200e-01 2.399396e+02 
3.280800e-01 2.384300e+02 
3.292500e-01 2.369281e+02 
3.304800e-01 2.353662e+02 
3.317100e-01 2.338195e+02 
3.328900e-01 2.323497e+02 
3.340700e-01 2.308935e+02 
3.353600e-01 2.293232e+02 
3.365300e-01 2.279150e+02 
3.377100e-01 2.265077e+02 
3.389200e-01 2.250778e+02 
3.401600e-01 2.236264e+02 
3.413700e-01 2.222293e+02 
3.425300e-01 2.209063e+02 
3.437700e-01 2.195050e+02 
3.449800e-01 2.181502e+02 
3.461800e-01 2.168188e+02 
3.473600e-01 2.155237e+02 
3.485800e-01 2.142025e+02 
3.498100e-01 2.128826e+02 
3.510200e-01 2.115959e+02 
3.522000e-01 2.103522e+02 
3.533900e-01 2.091090e+02 
3.546400e-01 2.078234e+02 
3.558400e-01 2.066008e+02 
3.570600e-01 2.053688e+02 
3.582700e-01 2.041577e+02 
3.595000e-01 2.029374e+02 
3.607100e-01 2.017519e+02 
3.618900e-01 2.006092e+02 
3.631200e-01 1.994284e+02 
3.643200e-01 1.982864e+02 
3.655500e-01 1.971259e+02 
3.667300e-01 1.960221e+02 
3.679500e-01 1.948979e+02 
3.691900e-01 1.937651e+02 
3.703600e-01 1.927054e+02 
3.715700e-01 1.916185e+02 
3.727700e-01 1.905496e+02 
3.739900e-01 1.894741e+02 
3.752000e-01 1.884200e+02 
3.763900e-01 1.873919e+02 
3.775800e-01 1.863722e+02 
3.788200e-01 1.853186e+02 
3.800300e-01 1.842990e+02 
3.812100e-01 1.833161e+02 
3.824200e-01 1.823187e+02 
3.836100e-01 1.813458e+02 
3.848600e-01 1.803322e+02 
3.860400e-01 1.793832e+02 
3.872400e-01 1.784257e+02 
3.884600e-01 1.774640e+02 
3.896500e-01 1.765348e+02 
3.908700e-01 1.755897e+02 
3.920600e-01 1.746753e+02 
3.933100e-01 1.737225e+02 
3.945300e-01 1.728000e+02 
3.957200e-01 1.719110e+02 
3.969300e-01 1.710151e+02 
3.981700e-01 1.701042e+02 
3.993500e-01 1.692443e+02 
4.094840e-01 1.621429e+02 
4.272360e-01 1.508475e+02 
4.454600e-01 1.405498e+02 
4.630560e-01 1.316783e+02 
4.804610e-01 1.237995e+02 
4.980690e-01 1.166190e+02 
5.159230e-01 1.100433e+02 
5.317440e-01 1.047348e+02 
5.489640e-01 9.944924e+01 
5.671990e-01 9.434862e+01 
5.838690e-01 9.007080e+01 
6.018840e-01 8.582207e+01 
6.202330e-01 8.185181e+01 
6.379250e-01 7.831706e+01 
6.545410e-01 7.524440e+01 
6.714560e-01 7.232934e+01 
6.892080e-01 6.948133e+01 
7.066010e-01 6.688393e+01 
7.240540e-01 6.444751e+01 
7.420450e-01 6.210261e+01 
7.593780e-01 5.998823e+01 
7.764720e-01 5.802831e+01 
7.942840e-01 5.610892e+01 
8.116170e-01 5.435255e+01 
8.288310e-01 5.270781e+01 
8.462240e-01 5.113772e+01 
8.631980e-01 4.968886e+01 
8.810700e-01 4.824529e+01 
8.989410e-01 4.687932e+01 
9.166330e-01 4.559736e+01 
9.345640e-01 4.436551e+01 
9.515980e-01 4.325265e+01 
9.688720e-01 4.217767e+01 
9.865640e-01 4.112964e+01 
1.031870e+00 3.865808e+01 
1.063490e+00 3.709663e+01 
1.097920e+00 3.553025e+01 
1.134370e+00 3.400322e+01 
1.167730e+00 3.271228e+01 
1.203830e+00 3.141778e+01 
1.240470e+00 3.019931e+01 
1.275790e+00 2.910726e+01 
1.309140e+00 2.814276e+01 
1.342970e+00 2.722366e+01 
1.378420e+00 2.631911e+01 
1.413200e+00 2.548493e+01 
1.448110e+00 2.469553e+01 
1.484090e+00 2.392738e+01 
1.518820e+00 2.322711e+01 
1.552880e+00 2.257554e+01 
1.588630e+00 2.192648e+01 
1.623230e+00 2.132937e+01 
1.657720e+00 2.076332e+01 
1.692450e+00 2.021955e+01 
1.726400e+00 1.971234e+01 
1.762200e+00 1.920095e+01 
1.797880e+00 1.871418e+01 
1.833270e+00 1.825246e+01 
1.869070e+00 1.780539e+01 
1.903200e+00 1.739640e+01 
1.937740e+00 1.699902e+01 
1.973190e+00 1.660699e+01 
2.007440e+00 1.624282e+01 
2.042160e+00 1.588722e+01 
2.077900e+00 1.553479e+01 
2.112390e+00 1.520746e+01 
2.146220e+00 1.489709e+01 
2.181600e+00 1.458385e+01 
2.216930e+00 1.428164e+01 
2.250760e+00 1.400197e+01 
2.286500e+00 1.371643e+01 
2.321770e+00 1.344402e+01 
2.355950e+00 1.318807e+01 
2.391280e+00 1.293187e+01 
2.426240e+00 1.268604e+01 
2.460670e+00 1.245136e+01 
2.495640e+00 1.222040e+01 
2.531080e+00 1.199289e+01 
2.566220e+00 1.177381e+01 
2.600830e+00 1.156428e+01 
2.635080e+00 1.136282e+01 
2.670340e+00 1.116100e+01 
2.705970e+00 1.096265e+01 
2.740040e+00 1.077817e+01 
2.774520e+00 1.059626e+01 
2.809730e+00 1.041523e+01 
2.844390e+00 1.024182e+01 
2.879960e+00 1.006845e+01 
2.914860e+00 9.902462e+00 
2.949410e+00 9.742370e+00 
2.984440e+00 9.583820e+00 
3.019760e+00 9.427955e+00 
3.054730e+00 9.277619e+00 
3.089030e+00 9.133110e+00 
3.124060e+00 8.989197e+00 
3.159560e+00 8.846830e+00 
3.194710e+00 8.708959e+00 
3.229010e+00 8.577699e+00 
3.263320e+00 8.448816e+00 
3.297930e+00 8.321906e+00 
3.332830e+00 8.196696e+00 
3.368040e+00 8.073092e+00 
3.403300e+00 7.952094e+00 
3.438450e+00 7.833882e+00 
3.473060e+00 7.720233e+00 
3.508440e+00 7.606016e+00 
3.543110e+00 7.496717e+00 
3.577470e+00 7.390341e+00 
3.613040e+00 7.282660e+00 
3.648120e+00 7.178420e+00 
3.682910e+00 7.077262e+00 
3.718050e+00 6.977058e+00 
3.753320e+00 6.878506e+00 
3.787980e+00 6.783408e+00 
3.822290e+00 6.691151e+00 
3.857020e+00 6.599483e+00 
3.891920e+00 6.509206e+00 
3.926650e+00 6.420955e+00 
3.961970e+00 6.332994e+00 
3.997360e+00 6.246324e+00 
4.031670e+00 6.164022e+00 
4.066330e+00 6.082215e+00 
4.101420e+00 6.001142e+00 
4.136200e+00 5.921886e+00 
4.170810e+00 5.844672e+00 
4.206250e+00 5.766826e+00 
4.241580e+00 5.690776e+00 
4.276300e+00 5.617270e+00 
4.310970e+00 5.545190e+00 
4.346120e+00 5.473411e+00 
4.380600e+00 5.404105e+00 
4.414730e+00 5.336842e+00 
4.450350e+00 5.267578e+00 
4.485320e+00 5.200940e+00 
4.519810e+00 5.136225e+00 
4.555430e+00 5.070575e+00 
4.590870e+00 5.006400e+00 
4.625480e+00 4.944640e+00 
4.659910e+00 4.884363e+00 
4.695230e+00 4.823381e+00 
4.729960e+00 4.764505e+00 
4.764450e+00 4.707013e+00 
4.799530e+00 4.649440e+00 
4.834910e+00 4.592460e+00 
4.869700e+00 4.537140e+00 
4.904370e+00 4.482960e+00 
4.939450e+00 4.429062e+00 
4.973940e+00 4.376830e+00 
5.008430e+00 4.325527e+00 
5.043810e+00 4.273659e+00 
5.078840e+00 4.223120e+00 
5.113500e+00 4.173996e+00 
5.148890e+00 4.124466e+00 
5.184210e+00 4.075897e+00 
5.219060e+00 4.028756e+00 
5.253660e+00 3.982604e+00 
5.288570e+00 3.936833e+00 
5.323420e+00 3.891805e+00 
5.358440e+00 3.847198e+00 
5.393590e+00 3.803184e+00 
5.428310e+00 3.760335e+00 
5.462800e+00 3.718420e+00 
5.497640e+00 3.676776e+00 
5.532670e+00 3.635462e+00 
5.567280e+00 3.595269e+00 
5.602000e+00 3.555602e+00 
5.637270e+00 3.515834e+00 
5.672410e+00 3.476828e+00 
5.707020e+00 3.439027e+00 
5.742040e+00 3.401280e+00 
5.777430e+00 3.363725e+00 
5.812210e+00 3.327403e+00 
5.846820e+00 3.291738e+00 
5.881610e+00 3.256423e+00 
5.916510e+00 3.221547e+00 
5.951600e+00 3.186960e+00 
5.986560e+00 3.153004e+00 
6.021830e+00 3.119275e+00 
6.056490e+00 3.086586e+00 
6.091160e+00 3.054337e+00 
6.125830e+00 3.022572e+00 
6.161090e+00 2.990731e+00 
6.195760e+00 2.959844e+00 
6.230420e+00 2.929423e+00 
6.265690e+00 2.898924e+00 
6.300950e+00 2.868847e+00 
6.335620e+00 2.839707e+00 
6.370880e+00 2.810504e+00 
6.405550e+00 2.782173e+00 
6.440220e+00 2.754234e+00 
6.475480e+00 2.726229e+00 
6.510150e+00 2.699080e+00 
6.544810e+00 2.672307e+00 
6.580080e+00 2.645450e+00 
6.614750e+00 2.619423e+00 
6.649410e+00 2.593740e+00 
6.684080e+00 2.568402e+00 
6.719340e+00 2.542991e+00 
6.754010e+00 2.518350e+00 
6.788680e+00 2.494043e+00 
6.823940e+00 2.469662e+00 
6.859800e+00 2.445211e+00 
6.894470e+00 2.421907e+00 
6.929140e+00 2.398919e+00 
6.963800e+00 2.376246e+00 
6.999070e+00 2.353483e+00 
7.033730e+00 2.331413e+00 
7.068400e+00 2.309628e+00 
7.103660e+00 2.287766e+00 
7.138330e+00 2.266555e+00 
7.173600e+00 2.245264e+00 
7.208260e+00 2.224615e+00 
7.243530e+00 2.203877e+00 
7.277600e+00 2.184118e+00 
7.312860e+00 2.163947e+00 
7.348120e+00 2.144037e+00 
7.382790e+00 2.124711e+00 
7.417460e+00 2.105636e+00 
7.452720e+00 2.086487e+00 
7.487390e+00 2.067895e+00 
7.522650e+00 2.049225e+00 
7.557320e+00 2.031125e+00 
7.591990e+00 2.013258e+00 
7.627250e+00 1.995313e+00 
7.662510e+00 1.977591e+00 
7.697180e+00 1.960412e+00 
7.731850e+00 1.943454e+00 
7.766510e+00 1.926706e+00 
7.801180e+00 1.910154e+00 
7.836440e+00 1.893545e+00 
7.871110e+00 1.877423e+00 
7.906380e+00 1.861219e+00 
7.941040e+00 1.845486e+00 
7.976310e+00 1.829684e+00 
8.011570e+00 1.814098e+00 
8.046240e+00 1.798953e+00 
8.080900e+00 1.783988e+00 
8.115570e+00 1.769203e+00 
8.150830e+00 1.754384e+00 
8.185500e+00 1.739981e+00 
8.220770e+00 1.725497e+00 
8.255430e+00 1.711428e+00 
8.290100e+00 1.697558e+00 
8.324770e+00 1.683850e+00 
8.359430e+00 1.670300e+00 
8.394700e+00 1.656667e+00 
8.429960e+00 1.643215e+00 
8.464630e+00 1.630160e+00 
8.499890e+00 1.617030e+00 
8.534560e+00 1.604264e+00 
8.569200e+00 1.591649e+00 
