# Parameters:
# omega_b = 0.022146, omega_m = 0.136811, n_s = 1.007480, h = 59.015748, w = -1.000000, sigma_8 = 0.733071
# z = 1.900000
#
# k[1/Mpc] # P(k):
8.694000e-04 2.383968e+03 
2.077466e-03 5.268017e+03 
3.285532e-03 7.581331e+03 
4.493598e-03 9.395437e+03 
5.701664e-03 1.076940e+04 
6.909730e-03 1.176474e+04 
8.117797e-03 1.245732e+04 
9.325863e-03 1.288676e+04 
1.053393e-02 1.309476e+04 
1.174199e-02 1.312178e+04 
1.295006e-02 1.299280e+04 
1.415813e-02 1.274235e+04 
1.536619e-02 1.240119e+04 
1.657426e-02 1.199038e+04 
1.778233e-02 1.152842e+04 
1.899039e-02 1.104292e+04 
2.019846e-02 1.054933e+04 
2.140652e-02 1.006139e+04 
2.261459e-02 9.586682e+03 
2.382266e-02 9.134554e+03 
2.503072e-02 8.711676e+03 
2.623879e-02 8.320814e+03 
2.744685e-02 7.963375e+03 
2.865492e-02 7.640162e+03 
2.986299e-02 7.349685e+03 
3.100100e-02 7.105724e+03 
3.220400e-02 6.876352e+03 
3.288100e-02 6.759908e+03 
3.424300e-02 6.549048e+03 
3.555100e-02 6.371518e+03 
3.686000e-02 6.214606e+03 
3.795000e-02 6.096372e+03 
3.929100e-02 5.963239e+03 
4.039800e-02 5.859709e+03 
4.164000e-02 5.747852e+03 
4.294400e-02 5.630134e+03 
4.415000e-02 5.521003e+03 
4.542900e-02 5.399351e+03 
4.660900e-02 5.284076e+03 
4.782300e-02 5.156056e+03 
4.892900e-02 5.035443e+03 
5.031200e-02 4.877307e+03 
5.155900e-02 4.727833e+03 
5.238100e-02 4.626986e+03 
5.378200e-02 4.452683e+03 
5.513400e-02 4.283349e+03 
5.627600e-02 4.142114e+03 
5.735300e-02 4.012883e+03 
5.870100e-02 3.859004e+03 
5.988700e-02 3.732762e+03 
6.113500e-02 3.609425e+03 
6.225900e-02 3.506511e+03 
6.340100e-02 3.408829e+03 
6.480200e-02 3.296439e+03 
6.601100e-02 3.205308e+03 
6.725500e-02 3.116461e+03 
6.829100e-02 3.046607e+03 
6.958600e-02 2.964178e+03 
7.071100e-02 2.897819e+03 
7.192300e-02 2.831680e+03 
7.307400e-02 2.773997e+03 
7.412300e-02 2.725581e+03 
7.550400e-02 2.667854e+03 
7.663100e-02 2.624692e+03 
7.791200e-02 2.580158e+03 
7.912700e-02 2.541198e+03 
8.027600e-02 2.506366e+03 
8.138400e-02 2.474110e+03 
8.272200e-02 2.436299e+03 
8.406100e-02 2.398938e+03 
8.534100e-02 2.362635e+03 
8.653800e-02 2.327559e+03 
8.759800e-02 2.295741e+03 
8.900300e-02 2.252025e+03 
9.009000e-02 2.216646e+03 
9.113300e-02 2.181101e+03 
9.239600e-02 2.137128e+03 
9.358000e-02 2.094492e+03 
9.496100e-02 2.042856e+03 
9.608400e-02 2.000479e+03 
9.727500e-02 1.955574e+03 
9.852600e-02 1.907412e+03 
9.973800e-02 1.861619e+03 
1.009000e-01 1.818567e+03 
1.020900e-01 1.775331e+03 
1.034000e-01 1.729469e+03 
1.046000e-01 1.689047e+03 
1.057200e-01 1.653396e+03 
1.069100e-01 1.617082e+03 
1.082500e-01 1.578977e+03 
1.093900e-01 1.548754e+03 
1.105400e-01 1.519800e+03 
1.116900e-01 1.493473e+03 
1.129600e-01 1.465865e+03 
1.142000e-01 1.441440e+03 
1.153300e-01 1.420459e+03 
1.166400e-01 1.397858e+03 
1.177800e-01 1.379594e+03 
1.190000e-01 1.360946e+03 
1.201200e-01 1.344890e+03 
1.213400e-01 1.327931e+03 
1.227100e-01 1.309737e+03 
1.238900e-01 1.294428e+03 
1.250700e-01 1.279316e+03 
1.263200e-01 1.263489e+03 
1.275500e-01 1.247851e+03 
1.287500e-01 1.232583e+03 
1.299900e-01 1.216593e+03 
1.311300e-01 1.201760e+03 
1.323500e-01 1.185544e+03 
1.335900e-01 1.168918e+03 
1.347100e-01 1.153540e+03 
1.359800e-01 1.136069e+03 
1.372100e-01 1.118699e+03 
1.384300e-01 1.101574e+03 
1.395700e-01 1.085233e+03 
1.407700e-01 1.068341e+03 
1.420300e-01 1.050309e+03 
1.432800e-01 1.032842e+03 
1.444500e-01 1.016525e+03 
1.456300e-01 1.000430e+03 
1.468900e-01 9.837141e+02 
1.480500e-01 9.686915e+02 
1.491700e-01 9.546710e+02 
1.503800e-01 9.400738e+02 
1.516400e-01 9.253395e+02 
1.528200e-01 9.124180e+02 
1.540200e-01 8.995450e+02 
1.551900e-01 8.878719e+02 
1.564300e-01 8.758987e+02 
1.576600e-01 8.645933e+02 
1.588700e-01 8.540881e+02 
1.600900e-01 8.437276e+02 
1.612700e-01 8.344126e+02 
1.625400e-01 8.245760e+02 
1.637600e-01 8.154734e+02 
1.649500e-01 8.068538e+02 
1.662200e-01 7.978235e+02 
1.674000e-01 7.895835e+02 
1.685000e-01 7.820313e+02 
1.697500e-01 7.734777e+02 
1.710300e-01 7.647616e+02 
1.722200e-01 7.568036e+02 
1.734400e-01 7.484215e+02 
1.746400e-01 7.403059e+02 
1.758700e-01 7.320024e+02 
1.770900e-01 7.236461e+02 
1.782700e-01 7.157030e+02 
1.794600e-01 7.076237e+02 
1.807000e-01 6.992135e+02 
1.819100e-01 6.911503e+02 
1.830100e-01 6.837732e+02 
1.842200e-01 6.757630e+02 
1.855000e-01 6.674350e+02 
1.867000e-01 6.596864e+02 
1.879200e-01 6.519423e+02 
1.890900e-01 6.446457e+02 
1.902800e-01 6.373791e+02 
1.915200e-01 6.299336e+02 
1.926900e-01 6.230543e+02 
1.939000e-01 6.161531e+02 
1.951700e-01 6.090301e+02 
1.963100e-01 6.027835e+02 
1.975100e-01 5.964288e+02 
1.987800e-01 5.898120e+02 
2.000100e-01 5.835585e+02 
2.012500e-01 5.774724e+02 
2.023400e-01 5.722019e+02 
2.036100e-01 5.661803e+02 
2.048900e-01 5.603152e+02 
2.060400e-01 5.551253e+02 
2.072200e-01 5.498829e+02 
2.084200e-01 5.447050e+02 
2.096900e-01 5.393072e+02 
2.109200e-01 5.341585e+02 
2.121100e-01 5.292747e+02 
2.132700e-01 5.245821e+02 
2.145200e-01 5.195979e+02 
2.157200e-01 5.148680e+02 
2.168800e-01 5.103528e+02 
2.180700e-01 5.057845e+02 
2.193400e-01 5.009601e+02 
2.206000e-01 4.962093e+02 
2.217500e-01 4.919336e+02 
2.229500e-01 4.875322e+02 
2.241400e-01 4.831575e+02 
2.253500e-01 4.787684e+02 
2.264900e-01 4.746885e+02 
2.277100e-01 4.703460e+02 
2.289900e-01 4.658157e+02 
2.301500e-01 4.617665e+02 
2.313600e-01 4.575984e+02 
2.325600e-01 4.534549e+02 
2.337700e-01 4.493331e+02 
2.350000e-01 4.451999e+02 
2.362000e-01 4.412003e+02 
2.374100e-01 4.371957e+02 
2.386500e-01 4.331470e+02 
2.399100e-01 4.290892e+02 
2.410400e-01 4.254784e+02 
2.422500e-01 4.216587e+02 
2.435000e-01 4.177652e+02 
2.447300e-01 4.139844e+02 
2.458700e-01 4.105222e+02 
2.470600e-01 4.069530e+02 
2.483300e-01 4.031936e+02 
2.495600e-01 3.996091e+02 
2.507600e-01 3.961681e+02 
2.519600e-01 3.927702e+02 
2.532200e-01 3.892480e+02 
2.543700e-01 3.860938e+02 
2.555500e-01 3.829099e+02 
2.568000e-01 3.795790e+02 
2.580100e-01 3.763951e+02 
2.592400e-01 3.732249e+02 
2.604100e-01 3.702573e+02 
2.616100e-01 3.672497e+02 
2.628400e-01 3.642042e+02 
2.640600e-01 3.612518e+02 
2.652200e-01 3.584899e+02 
2.664300e-01 3.556424e+02 
2.676500e-01 3.528053e+02 
2.688400e-01 3.500922e+02 
2.700700e-01 3.473342e+02 
2.712400e-01 3.447409e+02 
2.724800e-01 3.420239e+02 
2.736700e-01 3.394605e+02 
2.748800e-01 3.368977e+02 
2.761000e-01 3.343432e+02 
2.773200e-01 3.318178e+02 
2.785400e-01 3.293269e+02 
2.797000e-01 3.269970e+02 
2.808900e-01 3.246327e+02 
2.821400e-01 3.221769e+02 
2.833900e-01 3.197495e+02 
2.845500e-01 3.175297e+02 
2.857800e-01 3.152014e+02 
2.870300e-01 3.128616e+02 
2.882100e-01 3.106769e+02 
2.893900e-01 3.085187e+02 
2.906300e-01 3.062770e+02 
2.918900e-01 3.040244e+02 
2.930500e-01 3.019726e+02 
2.942500e-01 2.998719e+02 
2.954200e-01 2.978442e+02 
2.966500e-01 2.957349e+02 
2.978900e-01 2.936312e+02 
2.990400e-01 2.917003e+02 
3.002700e-01 2.896552e+02 
3.015100e-01 2.876149e+02 
3.026800e-01 2.857095e+02 
3.038500e-01 2.838232e+02 
3.050300e-01 2.819396e+02 
3.062600e-01 2.799921e+02 
3.075000e-01 2.780492e+02 
3.087000e-01 2.761883e+02 
3.099100e-01 2.743307e+02 
3.111200e-01 2.724911e+02 
3.123100e-01 2.706985e+02 
3.135300e-01 2.688791e+02 
3.147300e-01 2.671073e+02 
3.159900e-01 2.652658e+02 
3.171800e-01 2.635440e+02 
3.183700e-01 2.618390e+02 
3.196300e-01 2.600516e+02 
3.208400e-01 2.583524e+02 
3.220300e-01 2.566973e+02 
3.232000e-01 2.550865e+02 
3.244300e-01 2.534098e+02 
3.256700e-01 2.517360e+02 
3.269200e-01 2.500655e+02 
3.280800e-01 2.485300e+02 
3.292500e-01 2.469983e+02 
3.304800e-01 2.454042e+02 
3.317100e-01 2.438255e+02 
3.328900e-01 2.423251e+02 
3.340700e-01 2.408385e+02 
3.353600e-01 2.392327e+02 
3.365300e-01 2.377915e+02 
3.377100e-01 2.363511e+02 
3.389200e-01 2.348876e+02 
3.401600e-01 2.334019e+02 
3.413700e-01 2.319707e+02 
3.425300e-01 2.306143e+02 
3.437700e-01 2.291776e+02 
3.449800e-01 2.277886e+02 
3.461800e-01 2.264234e+02 
3.473600e-01 2.250953e+02 
3.485800e-01 2.237399e+02 
3.498100e-01 2.223858e+02 
3.510200e-01 2.210657e+02 
3.522000e-01 2.197897e+02 
3.533900e-01 2.185140e+02 
3.546400e-01 2.171957e+02 
3.558400e-01 2.159419e+02 
3.570600e-01 2.146784e+02 
3.582700e-01 2.134362e+02 
3.595000e-01 2.121846e+02 
3.607100e-01 2.109699e+02 
3.618900e-01 2.097998e+02 
3.631200e-01 2.085906e+02 
3.643200e-01 2.074210e+02 
3.655500e-01 2.062325e+02 
3.667300e-01 2.051020e+02 
3.679500e-01 2.039532e+02 
3.691900e-01 2.027955e+02 
3.703600e-01 2.017124e+02 
3.715700e-01 2.006015e+02 
3.727700e-01 1.995089e+02 
3.739900e-01 1.984108e+02 
3.752000e-01 1.973368e+02 
3.763900e-01 1.962892e+02 
3.775800e-01 1.952501e+02 
3.788200e-01 1.941763e+02 
3.800300e-01 1.931372e+02 
3.812100e-01 1.921375e+02 
3.824200e-01 1.911243e+02 
3.836100e-01 1.901358e+02 
3.848600e-01 1.891060e+02 
3.860400e-01 1.881416e+02 
3.872400e-01 1.871687e+02 
3.884600e-01 1.861940e+02 
3.896500e-01 1.852532e+02 
3.908700e-01 1.842963e+02 
3.920600e-01 1.833703e+02 
3.933100e-01 1.824053e+02 
3.945300e-01 1.814710e+02 
3.957200e-01 1.805735e+02 
3.969300e-01 1.796698e+02 
3.981700e-01 1.787510e+02 
3.993500e-01 1.778834e+02 
4.094840e-01 1.707272e+02 
4.272360e-01 1.594021e+02 
4.454600e-01 1.490932e+02 
4.630560e-01 1.402026e+02 
4.804610e-01 1.322771e+02 
4.980690e-01 1.250144e+02 
5.159230e-01 1.183201e+02 
5.317440e-01 1.128826e+02 
5.489640e-01 1.074331e+02 
5.671990e-01 1.021397e+02 
5.838690e-01 9.767742e+01 
6.018840e-01 9.322421e+01 
6.202330e-01 8.904370e+01 
6.379250e-01 8.531086e+01 
6.545410e-01 8.205530e+01 
6.714560e-01 7.896113e+01 
6.892080e-01 7.593237e+01 
7.066010e-01 7.316626e+01 
7.240540e-01 7.056877e+01 
7.420450e-01 6.806646e+01 
7.593780e-01 6.580896e+01 
7.764720e-01 6.371503e+01 
7.942840e-01 6.166369e+01 
8.116170e-01 5.978593e+01 
8.288310e-01 5.802714e+01 
8.462240e-01 5.634786e+01 
8.631980e-01 5.479782e+01 
8.810700e-01 5.325313e+01 
8.989410e-01 5.179109e+01 
9.166330e-01 5.041874e+01 
9.345640e-01 4.909963e+01 
9.515980e-01 4.790762e+01 
9.688720e-01 4.675593e+01 
9.865640e-01 4.563270e+01 
1.031870e+00 4.298176e+01 
1.063490e+00 4.130524e+01 
1.097920e+00 3.962224e+01 
1.134370e+00 3.797953e+01 
1.167730e+00 3.658932e+01 
1.203830e+00 3.519321e+01 
1.240470e+00 3.387759e+01 
1.275790e+00 3.269662e+01 
1.309140e+00 3.165230e+01 
1.342970e+00 3.065563e+01 
1.378420e+00 2.967357e+01 
1.413200e+00 2.876643e+01 
1.448110e+00 2.790664e+01 
1.484090e+00 2.706907e+01 
1.518820e+00 2.630426e+01 
1.552880e+00 2.559153e+01 
1.588630e+00 2.488053e+01 
1.623230e+00 2.422565e+01 
1.657720e+00 2.360395e+01 
1.692450e+00 2.300595e+01 
1.726400e+00 2.244727e+01 
1.762200e+00 2.188326e+01 
1.797880e+00 2.134571e+01 
1.833270e+00 2.083521e+01 
1.869070e+00 2.034014e+01 
1.903200e+00 1.988678e+01 
1.937740e+00 1.944580e+01 
1.973190e+00 1.901015e+01 
2.007440e+00 1.860497e+01 
2.042160e+00 1.820894e+01 
2.077900e+00 1.781594e+01 
2.112390e+00 1.745048e+01 
2.146220e+00 1.710361e+01 
2.181600e+00 1.675316e+01 
2.216930e+00 1.641471e+01 
2.250760e+00 1.610116e+01 
2.286500e+00 1.578072e+01 
2.321770e+00 1.547473e+01 
2.355950e+00 1.518699e+01 
2.391280e+00 1.489855e+01 
2.426240e+00 1.462159e+01 
2.460670e+00 1.435699e+01 
2.495640e+00 1.409635e+01 
2.531080e+00 1.383926e+01 
2.566220e+00 1.359157e+01 
2.600830e+00 1.335449e+01 
2.635080e+00 1.312636e+01 
2.670340e+00 1.289755e+01 
2.705970e+00 1.267255e+01 
2.740040e+00 1.246315e+01 
2.774520e+00 1.225646e+01 
2.809730e+00 1.205061e+01 
2.844390e+00 1.185331e+01 
2.879960e+00 1.165590e+01 
2.914860e+00 1.146671e+01 
2.949410e+00 1.128416e+01 
2.984440e+00 1.110324e+01 
3.019760e+00 1.092527e+01 
3.054730e+00 1.075353e+01 
3.089030e+00 1.058827e+01 
3.124060e+00 1.042361e+01 
3.159560e+00 1.026062e+01 
3.194710e+00 1.010269e+01 
3.229010e+00 9.952288e+00 
3.263320e+00 9.804454e+00 
3.297930e+00 9.658839e+00 
3.332830e+00 9.515090e+00 
3.368040e+00 9.373100e+00 
3.403300e+00 9.234043e+00 
3.438450e+00 9.098097e+00 
3.473060e+00 8.967375e+00 
3.508440e+00 8.835869e+00 
3.543110e+00 8.710004e+00 
3.577470e+00 8.587421e+00 
3.613040e+00 8.463304e+00 
3.648120e+00 8.343077e+00 
3.682910e+00 8.226370e+00 
3.718050e+00 8.110696e+00 
3.753320e+00 7.996896e+00 
3.787980e+00 7.887034e+00 
3.822290e+00 7.780421e+00 
3.857020e+00 7.674439e+00 
3.891920e+00 7.570033e+00 
3.926650e+00 7.467917e+00 
3.961970e+00 7.366115e+00 
3.997360e+00 7.265759e+00 
4.031670e+00 7.170444e+00 
4.066330e+00 7.075636e+00 
4.101420e+00 6.981675e+00 
4.136200e+00 6.889771e+00 
4.170810e+00 6.800233e+00 
4.206250e+00 6.709907e+00 
4.241580e+00 6.621654e+00 
4.276300e+00 6.536323e+00 
4.310970e+00 6.452630e+00 
4.346120e+00 6.369264e+00 
4.380600e+00 6.288735e+00 
4.414730e+00 6.210580e+00 
4.450350e+00 6.130074e+00 
4.485320e+00 6.052617e+00 
4.519810e+00 5.977350e+00 
4.555430e+00 5.900975e+00 
4.590870e+00 5.826307e+00 
4.625480e+00 5.754429e+00 
4.659910e+00 5.684279e+00 
4.695230e+00 5.613280e+00 
4.729960e+00 5.544729e+00 
4.764450e+00 5.477773e+00 
4.799530e+00 5.410691e+00 
4.834910e+00 5.344301e+00 
4.869700e+00 5.279828e+00 
4.904370e+00 5.216683e+00 
4.939450e+00 5.153857e+00 
4.973940e+00 5.092951e+00 
5.008430e+00 5.033128e+00 
5.043810e+00 4.972632e+00 
5.078840e+00 4.913676e+00 
5.113500e+00 4.856372e+00 
5.148890e+00 4.798559e+00 
5.184210e+00 4.741868e+00 
5.219060e+00 4.686842e+00 
5.253660e+00 4.632964e+00 
5.288570e+00 4.579534e+00 
5.323420e+00 4.526960e+00 
5.358440e+00 4.474867e+00 
5.393590e+00 4.423468e+00 
5.428310e+00 4.373415e+00 
5.462800e+00 4.324447e+00 
5.497640e+00 4.275797e+00 
5.532670e+00 4.227514e+00 
5.567280e+00 4.180535e+00 
5.602000e+00 4.134172e+00 
5.637270e+00 4.087687e+00 
5.672410e+00 4.042092e+00 
5.707020e+00 3.997908e+00 
5.742040e+00 3.953777e+00 
5.777430e+00 3.909869e+00 
5.812210e+00 3.867405e+00 
5.846820e+00 3.825690e+00 
5.881610e+00 3.784382e+00 
5.916510e+00 3.743589e+00 
5.951600e+00 3.703132e+00 
5.986560e+00 3.663413e+00 
6.021830e+00 3.623962e+00 
6.056490e+00 3.585715e+00 
6.091160e+00 3.547975e+00 
6.125830e+00 3.510803e+00 
6.161090e+00 3.473544e+00 
6.195760e+00 3.437405e+00 
6.230420e+00 3.401812e+00 
6.265690e+00 3.366129e+00 
6.300950e+00 3.330916e+00 
6.335620e+00 3.296803e+00 
6.370880e+00 3.262618e+00 
6.405550e+00 3.229446e+00 
6.440220e+00 3.196732e+00 
6.475480e+00 3.163943e+00 
6.510150e+00 3.132156e+00 
6.544810e+00 3.100810e+00 
6.580080e+00 3.069366e+00 
6.614750e+00 3.038896e+00 
6.649410e+00 3.008824e+00 
6.684080e+00 2.979155e+00 
6.719340e+00 2.949403e+00 
6.754010e+00 2.920552e+00 
6.788680e+00 2.892086e+00 
6.823940e+00 2.863535e+00 
6.859800e+00 2.834904e+00 
6.894470e+00 2.807604e+00 
6.929140e+00 2.780672e+00 
6.963800e+00 2.754110e+00 
6.999070e+00 2.727445e+00 
7.033730e+00 2.701591e+00 
7.068400e+00 2.676073e+00 
7.103660e+00 2.650466e+00 
7.138330e+00 2.625621e+00 
7.173600e+00 2.600681e+00 
7.208260e+00 2.576494e+00 
7.243530e+00 2.552204e+00 
7.277600e+00 2.529057e+00 
7.312860e+00 2.505423e+00 
7.348120e+00 2.482097e+00 
7.382790e+00 2.459455e+00 
7.417460e+00 2.437106e+00 
7.452720e+00 2.414670e+00 
7.487390e+00 2.392889e+00 
7.522650e+00 2.371017e+00 
7.557320e+00 2.349811e+00 
7.591990e+00 2.328879e+00 
7.627250e+00 2.307857e+00 
7.662510e+00 2.287097e+00 
7.697180e+00 2.266970e+00 
7.731850e+00 2.247101e+00 
7.766510e+00 2.227479e+00 
7.801180e+00 2.208088e+00 
7.836440e+00 2.188629e+00 
7.871110e+00 2.169740e+00 
7.906380e+00 2.150756e+00 
7.941040e+00 2.132324e+00 
7.976310e+00 2.113812e+00 
8.011570e+00 2.095551e+00 
8.046240e+00 2.077808e+00 
8.080900e+00 2.060277e+00 
8.115570e+00 2.042958e+00 
8.150830e+00 2.025597e+00 
8.185500e+00 2.008725e+00 
8.220770e+00 1.991760e+00 
8.255430e+00 1.975281e+00 
8.290100e+00 1.959028e+00 
8.324770e+00 1.942964e+00 
8.359430e+00 1.927087e+00 
8.394700e+00 1.911115e+00 
8.429960e+00 1.895356e+00 
8.464630e+00 1.880063e+00 
8.499890e+00 1.864684e+00 
8.534560e+00 1.849732e+00 
8.569200e+00 1.834957e+00 
