# Parameters:
# omega_b = 0.022697, omega_m = 0.134331, n_s = 0.977559, h = 57.362205, w = -1.000000, sigma_8 = 0.714173
# z = 1.900000
#
# k[1/Mpc] # P(k):
8.694000e-04 2.853630e+03 
2.077466e-03 6.139006e+03 
3.285532e-03 8.700707e+03 
4.493598e-03 1.065990e+04 
5.701664e-03 1.210586e+04 
6.909730e-03 1.312000e+04 
8.117797e-03 1.379478e+04 
9.325863e-03 1.417875e+04 
1.053393e-02 1.432160e+04 
1.174199e-02 1.427047e+04 
1.295006e-02 1.405437e+04 
1.415813e-02 1.371219e+04 
1.536619e-02 1.327850e+04 
1.657426e-02 1.277684e+04 
1.778233e-02 1.222739e+04 
1.899039e-02 1.165997e+04 
2.019846e-02 1.109102e+04 
2.140652e-02 1.053489e+04 
2.261459e-02 9.999411e+03 
2.382266e-02 9.493958e+03 
2.503072e-02 9.024893e+03 
2.623879e-02 8.594453e+03 
2.744685e-02 8.203770e+03 
2.865492e-02 7.852735e+03 
2.986299e-02 7.539116e+03 
3.100100e-02 7.277263e+03 
3.220400e-02 7.032333e+03 
3.288100e-02 6.908516e+03 
3.424300e-02 6.685043e+03 
3.555100e-02 6.497519e+03 
3.686000e-02 6.332130e+03 
3.795000e-02 6.207568e+03 
3.929100e-02 6.067122e+03 
4.039800e-02 5.957606e+03 
4.164000e-02 5.838947e+03 
4.294400e-02 5.713467e+03 
4.415000e-02 5.596814e+03 
4.542900e-02 5.466418e+03 
4.660900e-02 5.342737e+03 
4.782300e-02 5.205350e+03 
4.892900e-02 5.076069e+03 
5.031200e-02 4.906914e+03 
5.155900e-02 4.747507e+03 
5.238100e-02 4.640291e+03 
5.378200e-02 4.455699e+03 
5.513400e-02 4.277562e+03 
5.627600e-02 4.130135e+03 
5.735300e-02 3.996439e+03 
5.870100e-02 3.839198e+03 
5.988700e-02 3.712099e+03 
6.113500e-02 3.589806e+03 
6.225900e-02 3.489184e+03 
6.340100e-02 3.394553e+03 
6.480200e-02 3.286039e+03 
6.601100e-02 3.197799e+03 
6.725500e-02 3.111103e+03 
6.829100e-02 3.042281e+03 
6.958600e-02 2.960405e+03 
7.071100e-02 2.893916e+03 
7.192300e-02 2.827214e+03 
7.307400e-02 2.768704e+03 
7.412300e-02 2.719360e+03 
7.550400e-02 2.660198e+03 
7.663100e-02 2.615761e+03 
7.791200e-02 2.569616e+03 
7.912700e-02 2.529001e+03 
8.027600e-02 2.492524e+03 
8.138400e-02 2.458630e+03 
8.272200e-02 2.418779e+03 
8.406100e-02 2.379345e+03 
8.534100e-02 2.341050e+03 
8.653800e-02 2.304156e+03 
8.759800e-02 2.270791e+03 
8.900300e-02 2.225143e+03 
9.009000e-02 2.188396e+03 
9.113300e-02 2.151679e+03 
9.239600e-02 2.106443e+03 
9.358000e-02 2.062818e+03 
9.496100e-02 2.010319e+03 
9.608400e-02 1.967422e+03 
9.727500e-02 1.922113e+03 
9.852600e-02 1.873836e+03 
9.973800e-02 1.828066e+03 
1.009000e-01 1.785143e+03 
1.020900e-01 1.742257e+03 
1.034000e-01 1.696854e+03 
1.046000e-01 1.656924e+03 
1.057200e-01 1.621815e+03 
1.069100e-01 1.586085e+03 
1.082500e-01 1.548662e+03 
1.093900e-01 1.518996e+03 
1.105400e-01 1.490586e+03 
1.116900e-01 1.464733e+03 
1.129600e-01 1.437605e+03 
1.142000e-01 1.413534e+03 
1.153300e-01 1.392806e+03 
1.166400e-01 1.370394e+03 
1.177800e-01 1.352169e+03 
1.190000e-01 1.333506e+03 
1.201200e-01 1.317282e+03 
1.213400e-01 1.300118e+03 
1.227100e-01 1.281495e+03 
1.238900e-01 1.265792e+03 
1.250700e-01 1.250189e+03 
1.263200e-01 1.233830e+03 
1.275500e-01 1.217628e+03 
1.287500e-01 1.201825e+03 
1.299900e-01 1.185296e+03 
1.311300e-01 1.170017e+03 
1.323500e-01 1.153388e+03 
1.335900e-01 1.136419e+03 
1.347100e-01 1.120829e+03 
1.359800e-01 1.103195e+03 
1.372100e-01 1.085809e+03 
1.384300e-01 1.068731e+03 
1.395700e-01 1.052576e+03 
1.407700e-01 1.035893e+03 
1.420300e-01 1.018249e+03 
1.432800e-01 1.001159e+03 
1.444500e-01 9.853053e+02 
1.456300e-01 9.696670e+02 
1.468900e-01 9.534616e+02 
1.480500e-01 9.389078e+02 
1.491700e-01 9.253185e+02 
1.503800e-01 9.111622e+02 
1.516400e-01 8.968610e+02 
1.528200e-01 8.842671e+02 
1.540200e-01 8.717210e+02 
1.551900e-01 8.602681e+02 
1.564300e-01 8.485020e+02 
1.576600e-01 8.373460e+02 
1.588700e-01 8.269223e+02 
1.600900e-01 8.166388e+02 
1.612700e-01 8.073063e+02 
1.625400e-01 7.974528e+02 
1.637600e-01 7.883027e+02 
1.649500e-01 7.796198e+02 
1.662200e-01 7.705227e+02 
1.674000e-01 7.622127e+02 
1.685000e-01 7.545975e+02 
1.697500e-01 7.459907e+02 
1.710300e-01 7.372384e+02 
1.722200e-01 7.292486e+02 
1.734400e-01 7.208908e+02 
1.746400e-01 7.128022e+02 
1.758700e-01 7.045491e+02 
1.770900e-01 6.962877e+02 
1.782700e-01 6.884360e+02 
1.794600e-01 6.804840e+02 
1.807000e-01 6.722293e+02 
1.819100e-01 6.643160e+02 
1.830100e-01 6.571091e+02 
1.842200e-01 6.492896e+02 
1.855000e-01 6.411619e+02 
1.867000e-01 6.336213e+02 
1.879200e-01 6.260856e+02 
1.890900e-01 6.189869e+02 
1.902800e-01 6.119227e+02 
1.915200e-01 6.046850e+02 
1.926900e-01 5.979970e+02 
1.939000e-01 5.912836e+02 
1.951700e-01 5.843549e+02 
1.963100e-01 5.782760e+02 
1.975100e-01 5.720833e+02 
1.987800e-01 5.656357e+02 
2.000100e-01 5.595380e+02 
2.012500e-01 5.535934e+02 
2.023400e-01 5.484458e+02 
2.036100e-01 5.425624e+02 
2.048900e-01 5.368217e+02 
2.060400e-01 5.317425e+02 
2.072200e-01 5.266116e+02 
2.084200e-01 5.215359e+02 
2.096900e-01 5.162454e+02 
2.109200e-01 5.111995e+02 
2.121100e-01 5.064102e+02 
2.132700e-01 5.018087e+02 
2.145200e-01 4.969216e+02 
2.157200e-01 4.922845e+02 
2.168800e-01 4.878582e+02 
2.180700e-01 4.833803e+02 
2.193400e-01 4.786532e+02 
2.206000e-01 4.740009e+02 
2.217500e-01 4.698142e+02 
2.229500e-01 4.655050e+02 
2.241400e-01 4.612258e+02 
2.253500e-01 4.569331e+02 
2.264900e-01 4.529432e+02 
2.277100e-01 4.486988e+02 
2.289900e-01 4.442734e+02 
2.301500e-01 4.403185e+02 
2.313600e-01 4.362478e+02 
2.325600e-01 4.322040e+02 
2.337700e-01 4.281818e+02 
2.350000e-01 4.241490e+02 
2.362000e-01 4.202475e+02 
2.374100e-01 4.163422e+02 
2.386500e-01 4.123944e+02 
2.399100e-01 4.084382e+02 
2.410400e-01 4.049187e+02 
2.422500e-01 4.011961e+02 
2.435000e-01 3.974020e+02 
2.447300e-01 3.937183e+02 
2.458700e-01 3.903457e+02 
2.470600e-01 3.868694e+02 
2.483300e-01 3.832082e+02 
2.495600e-01 3.797181e+02 
2.507600e-01 3.763687e+02 
2.519600e-01 3.730616e+02 
2.532200e-01 3.696339e+02 
2.543700e-01 3.665658e+02 
2.555500e-01 3.634698e+02 
2.568000e-01 3.602313e+02 
2.580100e-01 3.571359e+02 
2.592400e-01 3.540559e+02 
2.604100e-01 3.511736e+02 
2.616100e-01 3.482527e+02 
2.628400e-01 3.452954e+02 
2.640600e-01 3.424303e+02 
2.652200e-01 3.397509e+02 
2.664300e-01 3.369887e+02 
2.676500e-01 3.342369e+02 
2.688400e-01 3.316067e+02 
2.700700e-01 3.289339e+02 
2.712400e-01 3.264209e+02 
2.724800e-01 3.237884e+02 
2.736700e-01 3.213053e+02 
2.748800e-01 3.188236e+02 
2.761000e-01 3.163501e+02 
2.773200e-01 3.139050e+02 
2.785400e-01 3.114938e+02 
2.797000e-01 3.092391e+02 
2.808900e-01 3.069513e+02 
2.821400e-01 3.045752e+02 
2.833900e-01 3.022268e+02 
2.845500e-01 3.000794e+02 
2.857800e-01 2.978271e+02 
2.870300e-01 2.955639e+02 
2.882100e-01 2.934509e+02 
2.893900e-01 2.913635e+02 
2.906300e-01 2.891954e+02 
2.918900e-01 2.870169e+02 
2.930500e-01 2.850329e+02 
2.942500e-01 2.830016e+02 
2.954200e-01 2.810410e+02 
2.966500e-01 2.790015e+02 
2.978900e-01 2.769677e+02 
2.990400e-01 2.751011e+02 
3.002700e-01 2.731241e+02 
3.015100e-01 2.711518e+02 
3.026800e-01 2.693102e+02 
3.038500e-01 2.674871e+02 
3.050300e-01 2.656668e+02 
3.062600e-01 2.637846e+02 
3.075000e-01 2.619070e+02 
3.087000e-01 2.601088e+02 
3.099100e-01 2.583140e+02 
3.111200e-01 2.565366e+02 
3.123100e-01 2.548049e+02 
3.135300e-01 2.530473e+02 
3.147300e-01 2.513359e+02 
3.159900e-01 2.495573e+02 
3.171800e-01 2.478946e+02 
3.183700e-01 2.462482e+02 
3.196300e-01 2.445224e+02 
3.208400e-01 2.428819e+02 
3.220300e-01 2.412842e+02 
3.232000e-01 2.397294e+02 
3.244300e-01 2.381110e+02 
3.256700e-01 2.364958e+02 
3.269200e-01 2.348837e+02 
3.280800e-01 2.334021e+02 
3.292500e-01 2.319246e+02 
3.304800e-01 2.303871e+02 
3.317100e-01 2.288645e+02 
3.328900e-01 2.274177e+02 
3.340700e-01 2.259842e+02 
3.353600e-01 2.244362e+02 
3.365300e-01 2.230472e+02 
3.377100e-01 2.216590e+02 
3.389200e-01 2.202488e+02 
3.401600e-01 2.188172e+02 
3.413700e-01 2.174384e+02 
3.425300e-01 2.161322e+02 
3.437700e-01 2.147487e+02 
3.449800e-01 2.134111e+02 
3.461800e-01 2.120967e+02 
3.473600e-01 2.108182e+02 
3.485800e-01 2.095140e+02 
3.498100e-01 2.082111e+02 
3.510200e-01 2.069410e+02 
3.522000e-01 2.057135e+02 
3.533900e-01 2.044864e+02 
3.546400e-01 2.032189e+02 
3.558400e-01 2.020136e+02 
3.570600e-01 2.007991e+02 
3.582700e-01 1.996052e+02 
3.595000e-01 1.984023e+02 
3.607100e-01 1.972351e+02 
3.618900e-01 1.961113e+02 
3.631200e-01 1.949499e+02 
3.643200e-01 1.938267e+02 
3.655500e-01 1.926854e+02 
3.667300e-01 1.915998e+02 
3.679500e-01 1.904976e+02 
3.691900e-01 1.893869e+02 
3.703600e-01 1.883478e+02 
3.715700e-01 1.872821e+02 
3.727700e-01 1.862341e+02 
3.739900e-01 1.851810e+02 
3.752000e-01 1.841515e+02 
3.763900e-01 1.831473e+02 
3.775800e-01 1.821513e+02 
3.788200e-01 1.811222e+02 
3.800300e-01 1.801263e+02 
3.812100e-01 1.791686e+02 
3.824200e-01 1.781984e+02 
3.836100e-01 1.772520e+02 
3.848600e-01 1.762659e+02 
3.860400e-01 1.753427e+02 
3.872400e-01 1.744113e+02 
3.884600e-01 1.734786e+02 
3.896500e-01 1.725785e+02 
3.908700e-01 1.716632e+02 
3.920600e-01 1.707774e+02 
3.933100e-01 1.698544e+02 
3.945300e-01 1.689608e+02 
3.957200e-01 1.681029e+02 
3.969300e-01 1.672392e+02 
3.981700e-01 1.663612e+02 
3.993500e-01 1.655322e+02 
4.094840e-01 1.586981e+02 
4.272360e-01 1.479014e+02 
4.454600e-01 1.380922e+02 
4.630560e-01 1.296463e+02 
4.804610e-01 1.221290e+02 
4.980690e-01 1.152500e+02 
5.159230e-01 1.089179e+02 
5.317440e-01 1.037807e+02 
5.489640e-01 9.863842e+01 
5.671990e-01 9.364908e+01 
5.838690e-01 8.944790e+01 
6.018840e-01 8.525929e+01 
6.202330e-01 8.133086e+01 
6.379250e-01 7.782632e+01 
6.545410e-01 7.477214e+01 
6.714560e-01 7.187123e+01 
6.892080e-01 6.903366e+01 
7.066010e-01 6.644350e+01 
7.240540e-01 6.401276e+01 
7.420450e-01 6.167212e+01 
7.593780e-01 5.956135e+01 
7.764720e-01 5.760451e+01 
7.942840e-01 5.568813e+01 
8.116170e-01 5.393467e+01 
8.288310e-01 5.229290e+01 
8.462240e-01 5.072601e+01 
8.631980e-01 4.928030e+01 
8.810700e-01 4.784019e+01 
8.989410e-01 4.647768e+01 
9.166330e-01 4.519942e+01 
9.345640e-01 4.397132e+01 
9.515980e-01 4.286199e+01 
9.688720e-01 4.179081e+01 
9.865640e-01 4.074659e+01 
1.031870e+00 3.828490e+01 
1.063490e+00 3.673028e+01 
1.097920e+00 3.517129e+01 
1.134370e+00 3.365206e+01 
1.167730e+00 3.236808e+01 
1.203830e+00 3.108082e+01 
1.240470e+00 2.986969e+01 
1.275790e+00 2.878443e+01 
1.309140e+00 2.782607e+01 
1.342970e+00 2.691336e+01 
1.378420e+00 2.601527e+01 
1.413200e+00 2.518719e+01 
1.448110e+00 2.440376e+01 
1.484090e+00 2.364174e+01 
1.518820e+00 2.294718e+01 
1.552880e+00 2.230110e+01 
1.588630e+00 2.165765e+01 
1.623230e+00 2.106598e+01 
1.657720e+00 2.050509e+01 
1.692450e+00 1.996649e+01 
1.726400e+00 1.946417e+01 
1.762200e+00 1.895788e+01 
1.797880e+00 1.847607e+01 
1.833270e+00 1.801919e+01 
1.869070e+00 1.757682e+01 
1.903200e+00 1.717233e+01 
1.937740e+00 1.677939e+01 
1.973190e+00 1.639176e+01 
2.007440e+00 1.603175e+01 
2.042160e+00 1.568034e+01 
2.077900e+00 1.533210e+01 
2.112390e+00 1.500863e+01 
2.146220e+00 1.470209e+01 
2.181600e+00 1.439272e+01 
2.216930e+00 1.409435e+01 
2.250760e+00 1.381824e+01 
2.286500e+00 1.353635e+01 
2.321770e+00 1.326748e+01 
2.355950e+00 1.301495e+01 
2.391280e+00 1.276214e+01 
2.426240e+00 1.251964e+01 
2.460670e+00 1.228817e+01 
2.495640e+00 1.206035e+01 
2.531080e+00 1.183595e+01 
2.566220e+00 1.161995e+01 
2.600830e+00 1.141339e+01 
2.635080e+00 1.121479e+01 
2.670340e+00 1.101581e+01 
2.705970e+00 1.082031e+01 
2.740040e+00 1.063851e+01 
2.774520e+00 1.045924e+01 
2.809730e+00 1.028085e+01 
2.844390e+00 1.010998e+01 
2.879960e+00 9.939157e+00 
2.914860e+00 9.775608e+00 
2.949410e+00 9.617878e+00 
2.984440e+00 9.461708e+00 
3.019760e+00 9.308175e+00 
3.054730e+00 9.160085e+00 
3.089030e+00 9.017747e+00 
3.124060e+00 8.875986e+00 
3.159560e+00 8.735735e+00 
3.194710e+00 8.599946e+00 
3.229010e+00 8.470678e+00 
3.263320e+00 8.343741e+00 
3.297930e+00 8.218749e+00 
3.332830e+00 8.095435e+00 
3.368040e+00 7.973695e+00 
3.403300e+00 7.854518e+00 
3.438450e+00 7.738087e+00 
3.473060e+00 7.626152e+00 
3.508440e+00 7.513649e+00 
3.543110e+00 7.405987e+00 
3.577470e+00 7.301200e+00 
3.613040e+00 7.195125e+00 
3.648120e+00 7.092439e+00 
3.682910e+00 6.992780e+00 
3.718050e+00 6.894043e+00 
3.753320e+00 6.796939e+00 
3.787980e+00 6.703244e+00 
3.822290e+00 6.612340e+00 
3.857020e+00 6.522005e+00 
3.891920e+00 6.433035e+00 
3.926650e+00 6.346056e+00 
3.961970e+00 6.259359e+00 
3.997360e+00 6.173928e+00 
4.031670e+00 6.092797e+00 
4.066330e+00 6.012134e+00 
4.101420e+00 5.932194e+00 
4.136200e+00 5.854041e+00 
4.170810e+00 5.777902e+00 
4.206250e+00 5.701120e+00 
4.241580e+00 5.626105e+00 
4.276300e+00 5.553596e+00 
4.310970e+00 5.482489e+00 
4.346120e+00 5.411671e+00 
4.380600e+00 5.343280e+00 
4.414730e+00 5.276905e+00 
4.450350e+00 5.208557e+00 
4.485320e+00 5.142798e+00 
4.519810e+00 5.078909e+00 
4.555430e+00 5.014085e+00 
4.590870e+00 4.950717e+00 
4.625480e+00 4.889733e+00 
4.659910e+00 4.830213e+00 
4.695230e+00 4.769982e+00 
4.729960e+00 4.711830e+00 
4.764450e+00 4.655034e+00 
4.799530e+00 4.598138e+00 
4.834910e+00 4.541828e+00 
4.869700e+00 4.487156e+00 
4.904370e+00 4.433612e+00 
4.939450e+00 4.380338e+00 
4.973940e+00 4.328697e+00 
5.008430e+00 4.277973e+00 
5.043810e+00 4.226684e+00 
5.078840e+00 4.176703e+00 
5.113500e+00 4.128121e+00 
5.148890e+00 4.079113e+00 
5.184210e+00 4.031055e+00 
5.219060e+00 3.984409e+00 
5.253660e+00 3.938738e+00 
5.288570e+00 3.893444e+00 
5.323420e+00 3.848881e+00 
5.358440e+00 3.804730e+00 
5.393590e+00 3.761166e+00 
5.428310e+00 3.718740e+00 
5.462800e+00 3.677231e+00 
5.497640e+00 3.635991e+00 
5.532670e+00 3.595063e+00 
5.567280e+00 3.555241e+00 
5.602000e+00 3.515941e+00 
5.637270e+00 3.476538e+00 
5.672410e+00 3.437890e+00 
5.707020e+00 3.400437e+00 
5.742040e+00 3.363028e+00 
5.777430e+00 3.325807e+00 
5.812210e+00 3.289810e+00 
5.846820e+00 3.254447e+00 
5.881610e+00 3.219428e+00 
5.916510e+00 3.184846e+00 
5.951600e+00 3.150548e+00 
5.986560e+00 3.116876e+00 
6.021830e+00 3.083430e+00 
6.056490e+00 3.051005e+00 
6.091160e+00 3.019008e+00 
6.125830e+00 2.987492e+00 
6.161090e+00 2.955902e+00 
6.195760e+00 2.925262e+00 
6.230420e+00 2.895084e+00 
6.265690e+00 2.864829e+00 
6.300950e+00 2.834970e+00 
6.335620e+00 2.806042e+00 
6.370880e+00 2.777053e+00 
6.405550e+00 2.748925e+00 
6.440220e+00 2.721184e+00 
6.475480e+00 2.693379e+00 
6.510150e+00 2.666424e+00 
6.544810e+00 2.639842e+00 
6.580080e+00 2.613178e+00 
6.614750e+00 2.587338e+00 
6.649410e+00 2.561836e+00 
6.684080e+00 2.536676e+00 
6.719340e+00 2.511445e+00 
6.754010e+00 2.486976e+00 
6.788680e+00 2.462833e+00 
6.823940e+00 2.438616e+00 
6.859800e+00 2.414332e+00 
6.894470e+00 2.391177e+00 
6.929140e+00 2.368335e+00 
6.963800e+00 2.345805e+00 
6.999070e+00 2.323187e+00 
7.033730e+00 2.301260e+00 
7.068400e+00 2.279616e+00 
7.103660e+00 2.257896e+00 
7.138330e+00 2.236822e+00 
7.173600e+00 2.215668e+00 
7.208260e+00 2.195152e+00 
7.243530e+00 2.174547e+00 
7.277600e+00 2.154914e+00 
7.312860e+00 2.134868e+00 
7.348120e+00 2.115082e+00 
7.382790e+00 2.095877e+00 
7.417460e+00 2.076922e+00 
7.452720e+00 2.057892e+00 
7.487390e+00 2.039418e+00 
7.522650e+00 2.020866e+00 
7.557320e+00 2.002880e+00 
7.591990e+00 1.985128e+00 
7.627250e+00 1.967298e+00 
7.662510e+00 1.949690e+00 
7.697180e+00 1.932620e+00 
7.731850e+00 1.915768e+00 
7.766510e+00 1.899125e+00 
7.801180e+00 1.882678e+00 
7.836440e+00 1.866175e+00 
7.871110e+00 1.850156e+00 
7.906380e+00 1.834056e+00 
7.941040e+00 1.818424e+00 
7.976310e+00 1.802724e+00 
8.011570e+00 1.787238e+00 
8.046240e+00 1.772191e+00 
8.080900e+00 1.757324e+00 
8.115570e+00 1.742636e+00 
8.150830e+00 1.727915e+00 
8.185500e+00 1.713609e+00 
8.220770e+00 1.699223e+00 
8.255430e+00 1.685249e+00 
8.290100e+00 1.671469e+00 
8.324770e+00 1.657849e+00 
8.359430e+00 1.644387e+00 
8.394700e+00 1.630843e+00 
8.429960e+00 1.617482e+00 
8.464630e+00 1.604517e+00 
8.499890e+00 1.591479e+00 
8.534560e+00 1.578802e+00 
8.569200e+00 1.566276e+00 
