# Parameters:
# omega_b = 0.023028, omega_m = 0.134055, n_s = 1.038976, h = 83.346457, w = -1.000000, sigma_8 = 0.866929
# z = 1.900000
#
# k[1/Mpc] # P(k):
8.694000e-04 2.571754e+03 
2.077466e-03 5.814818e+03 
3.285532e-03 8.462154e+03 
4.493598e-03 1.056095e+04 
5.701664e-03 1.215472e+04 
6.909730e-03 1.331254e+04 
8.117797e-03 1.412348e+04 
9.325863e-03 1.463259e+04 
1.053393e-02 1.488557e+04 
1.174199e-02 1.492560e+04 
1.295006e-02 1.478194e+04 
1.415813e-02 1.449557e+04 
1.536619e-02 1.410079e+04 
1.657426e-02 1.362190e+04 
1.778233e-02 1.308256e+04 
1.899039e-02 1.251650e+04 
2.019846e-02 1.194232e+04 
2.140652e-02 1.137619e+04 
2.261459e-02 1.082749e+04 
2.382266e-02 1.030713e+04 
2.503072e-02 9.822430e+03 
2.623879e-02 9.376194e+03 
2.744685e-02 8.969862e+03 
2.865492e-02 8.603918e+03 
2.986299e-02 8.276312e+03 
3.100100e-02 8.002321e+03 
3.220400e-02 7.745864e+03 
3.288100e-02 7.616324e+03 
3.424300e-02 7.382944e+03 
3.555100e-02 7.187886e+03 
3.686000e-02 7.016877e+03 
3.795000e-02 6.888949e+03 
3.929100e-02 6.746001e+03 
4.039800e-02 6.635201e+03 
4.164000e-02 6.515497e+03 
4.294400e-02 6.388801e+03 
4.415000e-02 6.270513e+03 
4.542900e-02 6.136876e+03 
4.660900e-02 6.008999e+03 
4.782300e-02 5.865095e+03 
4.892900e-02 5.728351e+03 
5.031200e-02 5.547410e+03 
5.155900e-02 5.375163e+03 
5.238100e-02 5.258292e+03 
5.378200e-02 5.054754e+03 
5.513400e-02 4.853771e+03 
5.627600e-02 4.682077e+03 
5.735300e-02 4.519878e+03 
5.870100e-02 4.317532e+03 
5.988700e-02 4.142338e+03 
6.113500e-02 3.962877e+03 
6.225900e-02 3.808369e+03 
6.340100e-02 3.661242e+03 
6.480200e-02 3.496270e+03 
6.601100e-02 3.371110e+03 
6.725500e-02 3.258867e+03 
6.829100e-02 3.178977e+03 
6.958600e-02 3.092044e+03 
7.071100e-02 3.028535e+03 
7.192300e-02 2.969979e+03 
7.307400e-02 2.922422e+03 
7.412300e-02 2.884681e+03 
7.550400e-02 2.842113e+03 
7.663100e-02 2.811277e+03 
7.791200e-02 2.779898e+03 
7.912700e-02 2.751708e+03 
8.027600e-02 2.725286e+03 
8.138400e-02 2.699390e+03 
8.272200e-02 2.666586e+03 
8.406100e-02 2.631220e+03 
8.534100e-02 2.593341e+03 
8.653800e-02 2.553993e+03 
8.759800e-02 2.516789e+03 
8.900300e-02 2.463594e+03 
9.009000e-02 2.419147e+03 
9.113300e-02 2.373666e+03 
9.239600e-02 2.316927e+03 
9.358000e-02 2.261588e+03 
9.496100e-02 2.194646e+03 
9.608400e-02 2.140033e+03 
9.727500e-02 2.082504e+03 
9.852600e-02 2.021936e+03 
9.973800e-02 1.965146e+03 
1.009000e-01 1.912420e+03 
1.020900e-01 1.861320e+03 
1.034000e-01 1.808195e+03 
1.046000e-01 1.762481e+03 
1.057200e-01 1.724203e+03 
1.069100e-01 1.686007e+03 
1.082500e-01 1.648264e+03 
1.093900e-01 1.619831e+03 
1.105400e-01 1.593482e+03 
1.116900e-01 1.571556e+03 
1.129600e-01 1.549225e+03 
1.142000e-01 1.531100e+03 
1.153300e-01 1.515963e+03 
1.166400e-01 1.500365e+03 
1.177800e-01 1.487875e+03 
1.190000e-01 1.475194e+03 
1.201200e-01 1.463483e+03 
1.213400e-01 1.450982e+03 
1.227100e-01 1.435442e+03 
1.238900e-01 1.421824e+03 
1.250700e-01 1.406570e+03 
1.263200e-01 1.389870e+03 
1.275500e-01 1.371775e+03 
1.287500e-01 1.353418e+03 
1.299900e-01 1.333131e+03 
1.311300e-01 1.313953e+03 
1.323500e-01 1.292462e+03 
1.335900e-01 1.270412e+03 
1.347100e-01 1.249991e+03 
1.359800e-01 1.227015e+03 
1.372100e-01 1.204574e+03 
1.384300e-01 1.182760e+03 
1.395700e-01 1.162616e+03 
1.407700e-01 1.141927e+03 
1.420300e-01 1.120951e+03 
1.432800e-01 1.100650e+03 
1.444500e-01 1.082825e+03 
1.456300e-01 1.065246e+03 
1.468900e-01 1.047767e+03 
1.480500e-01 1.032285e+03 
1.491700e-01 1.018178e+03 
1.503800e-01 1.003932e+03 
1.516400e-01 9.896533e+02 
1.528200e-01 9.776149e+02 
1.540200e-01 9.656111e+02 
1.551900e-01 9.550146e+02 
1.564300e-01 9.442129e+02 
1.576600e-01 9.340613e+02 
1.588700e-01 9.246917e+02 
1.600900e-01 9.154383e+02 
1.612700e-01 9.069837e+02 
1.625400e-01 8.980520e+02 
1.637600e-01 8.895503e+02 
1.649500e-01 8.813584e+02 
1.662200e-01 8.726956e+02 
1.674000e-01 8.643527e+02 
1.685000e-01 8.567048e+02 
1.697500e-01 8.477639e+02 
1.710300e-01 8.383793e+02 
1.722200e-01 8.298103e+02 
1.734400e-01 8.203395e+02 
1.746400e-01 8.111535e+02 
1.758700e-01 8.016687e+02 
1.770900e-01 7.919509e+02 
1.782700e-01 7.827167e+02 
1.794600e-01 7.732815e+02 
1.807000e-01 7.634341e+02 
1.819100e-01 7.539972e+02 
1.830100e-01 7.454436e+02 
1.842200e-01 7.361722e+02 
1.855000e-01 7.265464e+02 
1.867000e-01 7.178017e+02 
1.879200e-01 7.090642e+02 
1.890900e-01 7.008765e+02 
1.902800e-01 6.929469e+02 
1.915200e-01 6.848223e+02 
1.926900e-01 6.773769e+02 
1.939000e-01 6.701068e+02 
1.951700e-01 6.626018e+02 
1.963100e-01 6.560726e+02 
1.975100e-01 6.495732e+02 
1.987800e-01 6.428036e+02 
2.000100e-01 6.364378e+02 
2.012500e-01 6.303204e+02 
2.023400e-01 6.250210e+02 
2.036100e-01 6.189671e+02 
2.048900e-01 6.130791e+02 
2.060400e-01 6.078672e+02 
2.072200e-01 6.025960e+02 
2.084200e-01 5.973275e+02 
2.096900e-01 5.918338e+02 
2.109200e-01 5.865921e+02 
2.121100e-01 5.815140e+02 
2.132700e-01 5.766284e+02 
2.145200e-01 5.714381e+02 
2.157200e-01 5.664366e+02 
2.168800e-01 5.616267e+02 
2.180700e-01 5.567597e+02 
2.193400e-01 5.515886e+02 
2.206000e-01 5.464392e+02 
2.217500e-01 5.418044e+02 
2.229500e-01 5.370332e+02 
2.241400e-01 5.322544e+02 
2.253500e-01 5.274590e+02 
2.264900e-01 5.230011e+02 
2.277100e-01 5.182626e+02 
2.289900e-01 5.133261e+02 
2.301500e-01 5.089136e+02 
2.313600e-01 5.043716e+02 
2.325600e-01 4.999084e+02 
2.337700e-01 4.954679e+02 
2.350000e-01 4.910148e+02 
2.362000e-01 4.867384e+02 
2.374100e-01 4.824952e+02 
2.386500e-01 4.782044e+02 
2.399100e-01 4.739033e+02 
2.410400e-01 4.701385e+02 
2.422500e-01 4.661628e+02 
2.435000e-01 4.621092e+02 
2.447300e-01 4.581836e+02 
2.458700e-01 4.546348e+02 
2.470600e-01 4.509752e+02 
2.483300e-01 4.471192e+02 
2.495600e-01 4.434572e+02 
2.507600e-01 4.399623e+02 
2.519600e-01 4.365100e+02 
2.532200e-01 4.329300e+02 
2.543700e-01 4.297290e+02 
2.555500e-01 4.265010e+02 
2.568000e-01 4.231226e+02 
2.580100e-01 4.198921e+02 
2.592400e-01 4.166661e+02 
2.604100e-01 4.136416e+02 
2.616100e-01 4.105752e+02 
2.628400e-01 4.074692e+02 
2.640600e-01 4.044378e+02 
2.652200e-01 4.015935e+02 
2.664300e-01 3.986601e+02 
2.676500e-01 3.957365e+02 
2.688400e-01 3.929196e+02 
2.700700e-01 3.900424e+02 
2.712400e-01 3.873364e+02 
2.724800e-01 3.845006e+02 
2.736700e-01 3.818083e+02 
2.748800e-01 3.790995e+02 
2.761000e-01 3.763988e+02 
2.773200e-01 3.737282e+02 
2.785400e-01 3.710851e+02 
2.797000e-01 3.685944e+02 
2.808900e-01 3.660663e+02 
2.821400e-01 3.634401e+02 
2.833900e-01 3.608429e+02 
2.845500e-01 3.584497e+02 
2.857800e-01 3.559392e+02 
2.870300e-01 3.534159e+02 
2.882100e-01 3.510595e+02 
2.893900e-01 3.487243e+02 
2.906300e-01 3.462945e+02 
2.918900e-01 3.438526e+02 
2.930500e-01 3.416281e+02 
2.942500e-01 3.393493e+02 
2.954200e-01 3.371464e+02 
2.966500e-01 3.348545e+02 
2.978900e-01 3.325684e+02 
2.990400e-01 3.304699e+02 
3.002700e-01 3.282479e+02 
3.015100e-01 3.260313e+02 
3.026800e-01 3.239610e+02 
3.038500e-01 3.219112e+02 
3.050300e-01 3.198641e+02 
3.062600e-01 3.177530e+02 
3.075000e-01 3.156465e+02 
3.087000e-01 3.136286e+02 
3.099100e-01 3.116140e+02 
3.111200e-01 3.096213e+02 
3.123100e-01 3.076837e+02 
3.135300e-01 3.057167e+02 
3.147300e-01 3.038010e+02 
3.159900e-01 3.018096e+02 
3.171800e-01 2.999519e+02 
3.183700e-01 2.981149e+02 
3.196300e-01 2.961889e+02 
3.208400e-01 2.943576e+02 
3.220300e-01 2.925736e+02 
3.232000e-01 2.908420e+02 
3.244300e-01 2.890411e+02 
3.256700e-01 2.872432e+02 
3.269200e-01 2.854484e+02 
3.280800e-01 2.837983e+02 
3.292500e-01 2.821562e+02 
3.304800e-01 2.804480e+02 
3.317100e-01 2.787560e+02 
3.328900e-01 2.771477e+02 
3.340700e-01 2.755539e+02 
3.353600e-01 2.738342e+02 
3.365300e-01 2.722914e+02 
3.377100e-01 2.707492e+02 
3.389200e-01 2.691820e+02 
3.401600e-01 2.675906e+02 
3.413700e-01 2.660578e+02 
3.425300e-01 2.646054e+02 
3.437700e-01 2.630665e+02 
3.449800e-01 2.615785e+02 
3.461800e-01 2.601158e+02 
3.473600e-01 2.586920e+02 
3.485800e-01 2.572379e+02 
3.498100e-01 2.557849e+02 
3.510200e-01 2.543682e+02 
3.522000e-01 2.529984e+02 
3.533900e-01 2.516289e+02 
3.546400e-01 2.502099e+02 
3.558400e-01 2.488600e+02 
3.570600e-01 2.474994e+02 
3.582700e-01 2.461615e+02 
3.595000e-01 2.448133e+02 
3.607100e-01 2.435019e+02 
3.618900e-01 2.422365e+02 
3.631200e-01 2.409286e+02 
3.643200e-01 2.396634e+02 
3.655500e-01 2.383774e+02 
3.667300e-01 2.371540e+02 
3.679500e-01 2.359043e+02 
3.691900e-01 2.346448e+02 
3.703600e-01 2.334662e+02 
3.715700e-01 2.322572e+02 
3.727700e-01 2.310680e+02 
3.739900e-01 2.298702e+02 
3.752000e-01 2.286944e+02 
3.763900e-01 2.275474e+02 
3.775800e-01 2.264095e+02 
3.788200e-01 2.252334e+02 
3.800300e-01 2.240952e+02 
3.812100e-01 2.229958e+02 
3.824200e-01 2.218786e+02 
3.836100e-01 2.207885e+02 
3.848600e-01 2.196527e+02 
3.860400e-01 2.185890e+02 
3.872400e-01 2.175157e+02 
3.884600e-01 2.164353e+02 
3.896500e-01 2.153906e+02 
3.908700e-01 2.143278e+02 
3.920600e-01 2.132993e+02 
3.933100e-01 2.122273e+02 
3.945300e-01 2.111894e+02 
3.957200e-01 2.101864e+02 
3.969300e-01 2.091749e+02 
3.981700e-01 2.081463e+02 
3.993500e-01 2.071750e+02 
4.094840e-01 1.991362e+02 
4.272360e-01 1.862625e+02 
4.454600e-01 1.744458e+02 
4.630560e-01 1.642095e+02 
4.804610e-01 1.550757e+02 
4.980690e-01 1.467195e+02 
5.159230e-01 1.390407e+02 
5.317440e-01 1.328233e+02 
5.489640e-01 1.266154e+02 
5.671990e-01 1.206094e+02 
5.838690e-01 1.155584e+02 
6.018840e-01 1.105306e+02 
6.202330e-01 1.058223e+02 
6.379250e-01 1.016209e+02 
6.545410e-01 9.796258e+01 
6.714560e-01 9.448627e+01 
6.892080e-01 9.108403e+01 
7.066010e-01 8.797741e+01 
7.240540e-01 8.505857e+01 
7.420450e-01 8.224655e+01 
7.593780e-01 7.970839e+01 
7.764720e-01 7.735262e+01 
7.942840e-01 7.504366e+01 
8.116170e-01 7.292862e+01 
8.288310e-01 7.094623e+01 
8.462240e-01 6.905184e+01 
8.631980e-01 6.730192e+01 
8.810700e-01 6.555654e+01 
8.989410e-01 6.390333e+01 
9.166330e-01 6.234969e+01 
9.345640e-01 6.085502e+01 
9.515980e-01 5.950333e+01 
9.688720e-01 5.819562e+01 
9.865640e-01 5.691917e+01 
1.031870e+00 5.389946e+01 
1.063490e+00 5.198417e+01 
1.097920e+00 5.005736e+01 
1.134370e+00 4.817020e+01 
1.167730e+00 4.656871e+01 
1.203830e+00 4.495485e+01 
1.240470e+00 4.342875e+01 
1.275790e+00 4.205380e+01 
1.309140e+00 4.083448e+01 
1.342970e+00 3.966518e+01 
1.378420e+00 3.850961e+01 
1.413200e+00 3.743809e+01 
1.448110e+00 3.641849e+01 
1.484090e+00 3.542168e+01 
1.518820e+00 3.450791e+01 
1.552880e+00 3.365284e+01 
1.588630e+00 3.279676e+01 
1.623230e+00 3.200512e+01 
1.657720e+00 3.125137e+01 
1.692450e+00 3.052345e+01 
1.726400e+00 2.984084e+01 
1.762200e+00 2.914914e+01 
1.797880e+00 2.848759e+01 
1.833270e+00 2.785719e+01 
1.869070e+00 2.724378e+01 
1.903200e+00 2.667996e+01 
1.937740e+00 2.612993e+01 
1.973190e+00 2.558485e+01 
2.007440e+00 2.507627e+01 
2.042160e+00 2.457756e+01 
2.077900e+00 2.408119e+01 
2.112390e+00 2.361849e+01 
2.146220e+00 2.317766e+01 
2.181600e+00 2.273119e+01 
2.216930e+00 2.229864e+01 
2.250760e+00 2.189692e+01 
2.286500e+00 2.148542e+01 
2.321770e+00 2.109147e+01 
2.355950e+00 2.071992e+01 
2.391280e+00 2.034646e+01 
2.426240e+00 1.998696e+01 
2.460670e+00 1.964279e+01 
2.495640e+00 1.930318e+01 
2.531080e+00 1.896720e+01 
2.566220e+00 1.864268e+01 
2.600830e+00 1.833147e+01 
2.635080e+00 1.803149e+01 
2.670340e+00 1.772989e+01 
2.705970e+00 1.743269e+01 
2.740040e+00 1.715561e+01 
2.774520e+00 1.688154e+01 
2.809730e+00 1.660803e+01 
2.844390e+00 1.634553e+01 
2.879960e+00 1.608236e+01 
2.914860e+00 1.582966e+01 
2.949410e+00 1.558550e+01 
2.984440e+00 1.534299e+01 
3.019760e+00 1.510411e+01 
3.054730e+00 1.487337e+01 
3.089030e+00 1.465075e+01 
3.124060e+00 1.442878e+01 
3.159560e+00 1.420880e+01 
3.194710e+00 1.399523e+01 
3.229010e+00 1.379167e+01 
3.263320e+00 1.359117e+01 
3.297930e+00 1.339354e+01 
3.332830e+00 1.319818e+01 
3.368040e+00 1.300498e+01 
3.403300e+00 1.281562e+01 
3.438450e+00 1.263020e+01 
3.473060e+00 1.245183e+01 
3.508440e+00 1.227205e+01 
3.543110e+00 1.209992e+01 
3.577470e+00 1.193204e+01 
3.613040e+00 1.176198e+01 
3.648120e+00 1.159703e+01 
3.682910e+00 1.143684e+01 
3.718050e+00 1.127794e+01 
3.753320e+00 1.112149e+01 
3.787980e+00 1.097028e+01 
3.822290e+00 1.082348e+01 
3.857020e+00 1.067744e+01 
3.891920e+00 1.053350e+01 
3.926650e+00 1.039259e+01 
3.961970e+00 1.025205e+01 
3.997360e+00 1.011340e+01 
4.031670e+00 9.981678e+00 
4.066330e+00 9.850552e+00 
4.101420e+00 9.720589e+00 
4.136200e+00 9.593334e+00 
4.170810e+00 9.469350e+00 
4.206250e+00 9.344196e+00 
4.241580e+00 9.221896e+00 
4.276300e+00 9.103573e+00 
4.310970e+00 8.987479e+00 
4.346120e+00 8.871808e+00 
4.380600e+00 8.760026e+00 
4.414730e+00 8.651534e+00 
4.450350e+00 8.539684e+00 
4.485320e+00 8.432071e+00 
4.519810e+00 8.327486e+00 
4.555430e+00 8.221356e+00 
4.590870e+00 8.117569e+00 
4.625480e+00 8.017603e+00 
4.659910e+00 7.920039e+00 
4.695230e+00 7.821270e+00 
4.729960e+00 7.725903e+00 
4.764450e+00 7.632749e+00 
4.799530e+00 7.539414e+00 
4.834910e+00 7.447042e+00 
4.869700e+00 7.357293e+00 
4.904370e+00 7.269385e+00 
4.939450e+00 7.181920e+00 
4.973940e+00 7.097128e+00 
5.008430e+00 7.013843e+00 
5.043810e+00 6.929608e+00 
5.078840e+00 6.847510e+00 
5.113500e+00 6.767712e+00 
5.148890e+00 6.687215e+00 
5.184210e+00 6.608279e+00 
5.219060e+00 6.531659e+00 
5.253660e+00 6.456632e+00 
5.288570e+00 6.382227e+00 
5.323420e+00 6.309003e+00 
5.358440e+00 6.236435e+00 
5.393590e+00 6.164833e+00 
5.428310e+00 6.095129e+00 
5.462800e+00 6.026946e+00 
5.497640e+00 5.959206e+00 
5.532670e+00 5.891991e+00 
5.567280e+00 5.826595e+00 
5.602000e+00 5.762057e+00 
5.637270e+00 5.697334e+00 
5.672410e+00 5.633848e+00 
5.707020e+00 5.572324e+00 
5.742040e+00 5.510884e+00 
5.777430e+00 5.449755e+00 
5.812210e+00 5.390636e+00 
5.846820e+00 5.332581e+00 
5.881610e+00 5.275096e+00 
5.916510e+00 5.218328e+00 
5.951600e+00 5.162018e+00 
5.986560e+00 5.106731e+00 
6.021830e+00 5.051816e+00 
6.056490e+00 4.998592e+00 
6.091160e+00 4.946084e+00 
6.125830e+00 4.894365e+00 
6.161090e+00 4.842520e+00 
6.195760e+00 4.792224e+00 
6.230420e+00 4.742688e+00 
6.265690e+00 4.693026e+00 
6.300950e+00 4.644053e+00 
6.335620e+00 4.596608e+00 
6.370880e+00 4.549062e+00 
6.405550e+00 4.502926e+00 
6.440220e+00 4.457426e+00 
6.475480e+00 4.411820e+00 
6.510150e+00 4.367606e+00 
6.544810e+00 4.323995e+00 
6.580080e+00 4.280248e+00 
6.614750e+00 4.237856e+00 
6.649410e+00 4.196017e+00 
6.684080e+00 4.154739e+00 
6.719340e+00 4.113346e+00 
6.754010e+00 4.073209e+00 
6.788680e+00 4.033616e+00 
6.823940e+00 3.993905e+00 
6.859800e+00 3.954082e+00 
6.894470e+00 3.916116e+00 
6.929140e+00 3.878665e+00 
6.963800e+00 3.841726e+00 
6.999070e+00 3.804642e+00 
7.033730e+00 3.768676e+00 
7.068400e+00 3.733175e+00 
7.103660e+00 3.697550e+00 
7.138330e+00 3.662985e+00 
7.173600e+00 3.628288e+00 
7.208260e+00 3.594638e+00 
7.243530e+00 3.560842e+00 
7.277600e+00 3.528636e+00 
7.312860e+00 3.495750e+00 
7.348120e+00 3.463291e+00 
7.382790e+00 3.431784e+00 
7.417460e+00 3.400679e+00 
7.452720e+00 3.369448e+00 
7.487390e+00 3.339129e+00 
7.522650e+00 3.308683e+00 
7.557320e+00 3.279154e+00 
7.591990e+00 3.250004e+00 
7.627250e+00 3.220727e+00 
7.662510e+00 3.191815e+00 
7.697180e+00 3.163783e+00 
7.731850e+00 3.136109e+00 
7.766510e+00 3.108778e+00 
7.801180e+00 3.081771e+00 
7.836440e+00 3.054658e+00 
7.871110e+00 3.028335e+00 
7.906380e+00 3.001878e+00 
7.941040e+00 2.976191e+00 
7.976310e+00 2.950388e+00 
8.011570e+00 2.924930e+00 
8.046240e+00 2.900194e+00 
8.080900e+00 2.875754e+00 
8.115570e+00 2.851605e+00 
8.150830e+00 2.827383e+00 
8.185500e+00 2.803843e+00 
8.220770e+00 2.780174e+00 
8.255430e+00 2.757183e+00 
8.290100e+00 2.734504e+00 
8.324770e+00 2.712090e+00 
8.359430e+00 2.689936e+00 
8.394700e+00 2.667648e+00 
8.429960e+00 2.645647e+00 
8.464630e+00 2.624286e+00 
8.499890e+00 2.602804e+00 
8.534560e+00 2.581919e+00 
8.569200e+00 2.561282e+00 
