# Parameters:
# omega_b = 0.022870, omega_m = 0.137913, n_s = 0.990157, h = 62.322835, w = -1.000000, sigma_8 = 0.829134
# z = 1.900000
#
# k[1/Mpc] # P(k):
8.694000e-04 3.132848e+03 
2.077466e-03 6.831528e+03 
3.285532e-03 9.756513e+03 
4.493598e-03 1.203407e+04 
5.701664e-03 1.374030e+04 
6.909730e-03 1.496251e+04 
8.117797e-03 1.580369e+04 
9.325863e-03 1.631634e+04 
1.053393e-02 1.655295e+04 
1.174199e-02 1.656294e+04 
1.295006e-02 1.637794e+04 
1.415813e-02 1.604166e+04 
1.536619e-02 1.559222e+04 
1.657426e-02 1.505628e+04 
1.778233e-02 1.445763e+04 
1.899039e-02 1.383130e+04 
2.019846e-02 1.319655e+04 
2.140652e-02 1.257051e+04 
2.261459e-02 1.196263e+04 
2.382266e-02 1.138439e+04 
2.503072e-02 1.084372e+04 
2.623879e-02 1.034378e+04 
2.744685e-02 9.886010e+03 
2.865492e-02 9.471517e+03 
2.986299e-02 9.098403e+03 
3.100100e-02 8.784353e+03 
3.220400e-02 8.488581e+03 
3.288100e-02 8.338264e+03 
3.424300e-02 8.066026e+03 
3.555100e-02 7.837198e+03 
3.686000e-02 7.635709e+03 
3.795000e-02 7.484705e+03 
3.929100e-02 7.316278e+03 
4.039800e-02 7.186615e+03 
4.164000e-02 7.047820e+03 
4.294400e-02 6.903576e+03 
4.415000e-02 6.770731e+03 
4.542900e-02 6.623512e+03 
4.660900e-02 6.484306e+03 
4.782300e-02 6.329771e+03 
4.892900e-02 6.184011e+03 
5.031200e-02 5.992392e+03 
5.155900e-02 5.810626e+03 
5.238100e-02 5.687620e+03 
5.378200e-02 5.474209e+03 
5.513400e-02 5.265459e+03 
5.627600e-02 5.089861e+03 
5.735300e-02 4.927641e+03 
5.870100e-02 4.731955e+03 
5.988700e-02 4.569088e+03 
6.113500e-02 4.408031e+03 
6.225900e-02 4.272621e+03 
6.340100e-02 4.144144e+03 
6.480200e-02 3.997560e+03 
6.601100e-02 3.880749e+03 
6.725500e-02 3.769054e+03 
6.829100e-02 3.682951e+03 
6.958600e-02 3.582759e+03 
7.071100e-02 3.503232e+03 
7.192300e-02 3.424707e+03 
7.307400e-02 3.356707e+03 
7.412300e-02 3.299883e+03 
7.550400e-02 3.232345e+03 
7.663100e-02 3.181882e+03 
7.791200e-02 3.129704e+03 
7.912700e-02 3.083800e+03 
8.027600e-02 3.042473e+03 
8.138400e-02 3.003916e+03 
8.272200e-02 2.958275e+03 
8.406100e-02 2.912693e+03 
8.534100e-02 2.867874e+03 
8.653800e-02 2.824205e+03 
8.759800e-02 2.784416e+03 
8.900300e-02 2.729537e+03 
9.009000e-02 2.685018e+03 
9.113300e-02 2.640280e+03 
9.239600e-02 2.584966e+03 
9.358000e-02 2.531422e+03 
9.496100e-02 2.466804e+03 
9.608400e-02 2.413946e+03 
9.727500e-02 2.358080e+03 
9.852600e-02 2.298574e+03 
9.973800e-02 2.242208e+03 
1.009000e-01 2.189391e+03 
1.020900e-01 2.136804e+03 
1.034000e-01 2.081248e+03 
1.046000e-01 2.032517e+03 
1.057200e-01 1.989922e+03 
1.069100e-01 1.946672e+03 
1.082500e-01 1.901679e+03 
1.093900e-01 1.866214e+03 
1.105400e-01 1.832367e+03 
1.116900e-01 1.801843e+03 
1.129600e-01 1.769900e+03 
1.142000e-01 1.741784e+03 
1.153300e-01 1.717632e+03 
1.166400e-01 1.691619e+03 
1.177800e-01 1.670496e+03 
1.190000e-01 1.648876e+03 
1.201200e-01 1.629996e+03 
1.213400e-01 1.610005e+03 
1.227100e-01 1.588070e+03 
1.238900e-01 1.569509e+03 
1.250700e-01 1.550855e+03 
1.263200e-01 1.531211e+03 
1.275500e-01 1.511567e+03 
1.287500e-01 1.492321e+03 
1.299900e-01 1.472063e+03 
1.311300e-01 1.453287e+03 
1.323500e-01 1.432783e+03 
1.335900e-01 1.411849e+03 
1.347100e-01 1.392599e+03 
1.359800e-01 1.370841e+03 
1.372100e-01 1.349422e+03 
1.384300e-01 1.328408e+03 
1.395700e-01 1.308592e+03 
1.407700e-01 1.288139e+03 
1.420300e-01 1.266615e+03 
1.432800e-01 1.245762e+03 
1.444500e-01 1.226535e+03 
1.456300e-01 1.207565e+03 
1.468900e-01 1.187979e+03 
1.480500e-01 1.170407e+03 
1.491700e-01 1.154029e+03 
1.503800e-01 1.137006e+03 
1.516400e-01 1.119812e+03 
1.528200e-01 1.104707e+03 
1.540200e-01 1.089655e+03 
1.551900e-01 1.075930e+03 
1.564300e-01 1.061831e+03 
1.576600e-01 1.048459e+03 
1.588700e-01 1.035962e+03 
1.600900e-01 1.023628e+03 
1.612700e-01 1.012408e+03 
1.625400e-01 1.000559e+03 
1.637600e-01 9.895271e+02 
1.649500e-01 9.790398e+02 
1.662200e-01 9.680431e+02 
1.674000e-01 9.579544e+02 
1.685000e-01 9.487080e+02 
1.697500e-01 9.382307e+02 
1.710300e-01 9.275494e+02 
1.722200e-01 9.177974e+02 
1.734400e-01 9.075573e+02 
1.746400e-01 8.976442e+02 
1.758700e-01 8.875212e+02 
1.770900e-01 8.773730e+02 
1.782700e-01 8.677266e+02 
1.794600e-01 8.579535e+02 
1.807000e-01 8.478055e+02 
1.819100e-01 8.380757e+02 
1.830100e-01 8.292227e+02 
1.842200e-01 8.196175e+02 
1.855000e-01 8.096326e+02 
1.867000e-01 8.003884e+02 
1.879200e-01 7.911485e+02 
1.890900e-01 7.824468e+02 
1.902800e-01 7.738065e+02 
1.915200e-01 7.649525e+02 
1.926900e-01 7.567746e+02 
1.939000e-01 7.485821e+02 
1.951700e-01 7.401252e+02 
1.963100e-01 7.327082e+02 
1.975100e-01 7.251624e+02 
1.987800e-01 7.173043e+02 
2.000100e-01 7.098739e+02 
2.012500e-01 7.026349e+02 
2.023400e-01 6.963654e+02 
2.036100e-01 6.891978e+02 
2.048900e-01 6.822008e+02 
2.060400e-01 6.760088e+02 
2.072200e-01 6.697522e+02 
2.084200e-01 6.635548e+02 
2.096900e-01 6.570940e+02 
2.109200e-01 6.509307e+02 
2.121100e-01 6.450684e+02 
2.132700e-01 6.394344e+02 
2.145200e-01 6.334499e+02 
2.157200e-01 6.277640e+02 
2.168800e-01 6.223327e+02 
2.180700e-01 6.168372e+02 
2.193400e-01 6.110319e+02 
2.206000e-01 6.053120e+02 
2.217500e-01 6.001638e+02 
2.229500e-01 5.948640e+02 
2.241400e-01 5.895985e+02 
2.253500e-01 5.843155e+02 
2.264900e-01 5.794044e+02 
2.277100e-01 5.741799e+02 
2.289900e-01 5.687326e+02 
2.301500e-01 5.638635e+02 
2.313600e-01 5.588509e+02 
2.325600e-01 5.538769e+02 
2.337700e-01 5.489285e+02 
2.350000e-01 5.439660e+02 
2.362000e-01 5.391671e+02 
2.374100e-01 5.343660e+02 
2.386500e-01 5.295117e+02 
2.399100e-01 5.246460e+02 
2.410400e-01 5.203214e+02 
2.422500e-01 5.157469e+02 
2.435000e-01 5.110835e+02 
2.447300e-01 5.065556e+02 
2.458700e-01 5.024124e+02 
2.470600e-01 4.981407e+02 
2.483300e-01 4.936409e+02 
2.495600e-01 4.893511e+02 
2.507600e-01 4.852342e+02 
2.519600e-01 4.811685e+02 
2.532200e-01 4.769536e+02 
2.543700e-01 4.731794e+02 
2.555500e-01 4.693698e+02 
2.568000e-01 4.653839e+02 
2.580100e-01 4.615734e+02 
2.592400e-01 4.577793e+02 
2.604100e-01 4.542274e+02 
2.616100e-01 4.506273e+02 
2.628400e-01 4.469813e+02 
2.640600e-01 4.434467e+02 
2.652200e-01 4.401400e+02 
2.664300e-01 4.367303e+02 
2.676500e-01 4.333328e+02 
2.688400e-01 4.300836e+02 
2.700700e-01 4.267803e+02 
2.712400e-01 4.236740e+02 
2.724800e-01 4.204193e+02 
2.736700e-01 4.173483e+02 
2.748800e-01 4.142779e+02 
2.761000e-01 4.112171e+02 
2.773200e-01 4.081909e+02 
2.785400e-01 4.052060e+02 
2.797000e-01 4.024144e+02 
2.808900e-01 3.995812e+02 
2.821400e-01 3.966381e+02 
2.833900e-01 3.937288e+02 
2.845500e-01 3.910691e+02 
2.857800e-01 3.882790e+02 
2.870300e-01 3.854750e+02 
2.882100e-01 3.828566e+02 
2.893900e-01 3.802706e+02 
2.906300e-01 3.775849e+02 
2.918900e-01 3.748858e+02 
2.930500e-01 3.724272e+02 
2.942500e-01 3.699101e+02 
2.954200e-01 3.674814e+02 
2.966500e-01 3.649547e+02 
2.978900e-01 3.624345e+02 
2.990400e-01 3.601211e+02 
3.002700e-01 3.576717e+02 
3.015100e-01 3.552282e+02 
3.026800e-01 3.529461e+02 
3.038500e-01 3.506866e+02 
3.050300e-01 3.484302e+02 
3.062600e-01 3.460988e+02 
3.075000e-01 3.437726e+02 
3.087000e-01 3.415443e+02 
3.099100e-01 3.393198e+02 
3.111200e-01 3.371170e+02 
3.123100e-01 3.349708e+02 
3.135300e-01 3.327923e+02 
3.147300e-01 3.306706e+02 
3.159900e-01 3.284652e+02 
3.171800e-01 3.264033e+02 
3.183700e-01 3.243616e+02 
3.196300e-01 3.222210e+02 
3.208400e-01 3.201857e+02 
3.220300e-01 3.182033e+02 
3.232000e-01 3.162737e+02 
3.244300e-01 3.142650e+02 
3.256700e-01 3.122598e+02 
3.269200e-01 3.102581e+02 
3.280800e-01 3.084181e+02 
3.292500e-01 3.065823e+02 
3.304800e-01 3.046715e+02 
3.317100e-01 3.027788e+02 
3.328900e-01 3.009800e+02 
3.340700e-01 2.991975e+02 
3.353600e-01 2.972713e+02 
3.365300e-01 2.955421e+02 
3.377100e-01 2.938138e+02 
3.389200e-01 2.920576e+02 
3.401600e-01 2.902745e+02 
3.413700e-01 2.885558e+02 
3.425300e-01 2.869265e+02 
3.437700e-01 2.852004e+02 
3.449800e-01 2.835314e+02 
3.461800e-01 2.818910e+02 
3.473600e-01 2.802944e+02 
3.485800e-01 2.786640e+02 
3.498100e-01 2.770349e+02 
3.510200e-01 2.754466e+02 
3.522000e-01 2.739112e+02 
3.533900e-01 2.723761e+02 
3.546400e-01 2.707878e+02 
3.558400e-01 2.692771e+02 
3.570600e-01 2.677546e+02 
3.582700e-01 2.662576e+02 
3.595000e-01 2.647491e+02 
3.607100e-01 2.632840e+02 
3.618900e-01 2.618719e+02 
3.631200e-01 2.604125e+02 
3.643200e-01 2.590009e+02 
3.655500e-01 2.575662e+02 
3.667300e-01 2.562014e+02 
3.679500e-01 2.548126e+02 
3.691900e-01 2.534131e+02 
3.703600e-01 2.521035e+02 
3.715700e-01 2.507602e+02 
3.727700e-01 2.494390e+02 
3.739900e-01 2.481104e+02 
3.752000e-01 2.468099e+02 
3.763900e-01 2.455413e+02 
3.775800e-01 2.442828e+02 
3.788200e-01 2.429822e+02 
3.800300e-01 2.417235e+02 
3.812100e-01 2.405117e+02 
3.824200e-01 2.392828e+02 
3.836100e-01 2.380839e+02 
3.848600e-01 2.368346e+02 
3.860400e-01 2.356648e+02 
3.872400e-01 2.344844e+02 
3.884600e-01 2.333009e+02 
3.896500e-01 2.321581e+02 
3.908700e-01 2.309957e+02 
3.920600e-01 2.298708e+02 
3.933100e-01 2.286984e+02 
3.945300e-01 2.275632e+02 
3.957200e-01 2.264718e+02 
3.969300e-01 2.253726e+02 
3.981700e-01 2.242549e+02 
3.993500e-01 2.231995e+02 
4.094840e-01 2.144870e+02 
4.272360e-01 2.006757e+02 
4.454600e-01 1.880880e+02 
4.630560e-01 1.772262e+02 
4.804610e-01 1.675420e+02 
4.980690e-01 1.586682e+02 
5.159230e-01 1.504883e+02 
5.317440e-01 1.438421e+02 
5.489640e-01 1.371776e+02 
5.671990e-01 1.307020e+02 
5.838690e-01 1.252370e+02 
6.018840e-01 1.197803e+02 
6.202330e-01 1.146538e+02 
6.379250e-01 1.100704e+02 
6.545410e-01 1.060699e+02 
6.714560e-01 1.022651e+02 
6.892080e-01 9.853546e+01 
7.066010e-01 9.512709e+01 
7.240540e-01 9.192273e+01 
7.420450e-01 8.883351e+01 
7.593780e-01 8.604412e+01 
7.764720e-01 8.345453e+01 
7.942840e-01 8.091619e+01 
8.116170e-01 7.858996e+01 
8.288310e-01 7.640926e+01 
8.462240e-01 7.432483e+01 
8.631980e-01 7.239908e+01 
8.810700e-01 7.047796e+01 
8.989410e-01 6.865836e+01 
9.166330e-01 6.694746e+01 
9.345640e-01 6.530142e+01 
9.515980e-01 6.381286e+01 
9.688720e-01 6.237190e+01 
9.865640e-01 6.096517e+01 
1.031870e+00 5.763611e+01 
1.063490e+00 5.552389e+01 
1.097920e+00 5.339762e+01 
1.134370e+00 5.131471e+01 
1.167730e+00 4.954647e+01 
1.203830e+00 4.776435e+01 
1.240470e+00 4.607873e+01 
1.275790e+00 4.456014e+01 
1.309140e+00 4.321361e+01 
1.342970e+00 4.192193e+01 
1.378420e+00 4.064562e+01 
1.413200e+00 3.946260e+01 
1.448110e+00 3.833736e+01 
1.484090e+00 3.723729e+01 
1.518820e+00 3.622962e+01 
1.552880e+00 3.528708e+01 
1.588630e+00 3.434399e+01 
1.623230e+00 3.347214e+01 
1.657720e+00 3.264274e+01 
1.692450e+00 3.184205e+01 
1.726400e+00 3.109207e+01 
1.762200e+00 3.033255e+01 
1.797880e+00 2.960674e+01 
1.833270e+00 2.891548e+01 
1.869070e+00 2.824376e+01 
1.903200e+00 2.762653e+01 
1.937740e+00 2.702492e+01 
1.973190e+00 2.642947e+01 
2.007440e+00 2.587440e+01 
2.042160e+00 2.533049e+01 
2.077900e+00 2.478964e+01 
2.112390e+00 2.428614e+01 
2.146220e+00 2.380671e+01 
2.181600e+00 2.332177e+01 
2.216930e+00 2.285228e+01 
2.250760e+00 2.241674e+01 
2.286500e+00 2.197109e+01 
2.321770e+00 2.154479e+01 
2.355950e+00 2.114302e+01 
2.391280e+00 2.073983e+01 
2.426240e+00 2.035198e+01 
2.460670e+00 1.998103e+01 
2.495640e+00 1.961542e+01 
2.531080e+00 1.925424e+01 
2.566220e+00 1.890558e+01 
2.600830e+00 1.857147e+01 
2.635080e+00 1.824972e+01 
2.670340e+00 1.792686e+01 
2.705970e+00 1.760893e+01 
2.740040e+00 1.731273e+01 
2.774520e+00 1.702009e+01 
2.809730e+00 1.672837e+01 
2.844390e+00 1.644862e+01 
2.879960e+00 1.616852e+01 
2.914860e+00 1.589989e+01 
2.949410e+00 1.564052e+01 
2.984440e+00 1.538311e+01 
3.019760e+00 1.512986e+01 
3.054730e+00 1.488545e+01 
3.089030e+00 1.464997e+01 
3.124060e+00 1.441538e+01 
3.159560e+00 1.418319e+01 
3.194710e+00 1.395794e+01 
3.229010e+00 1.374337e+01 
3.263320e+00 1.353237e+01 
3.297930e+00 1.332451e+01 
3.332830e+00 1.311925e+01 
3.368040e+00 1.291648e+01 
3.403300e+00 1.271790e+01 
3.438450e+00 1.252370e+01 
3.473060e+00 1.233696e+01 
3.508440e+00 1.214906e+01 
3.543110e+00 1.196924e+01 
3.577470e+00 1.179413e+01 
3.613040e+00 1.161683e+01 
3.648120e+00 1.144504e+01 
3.682910e+00 1.127834e+01 
3.718050e+00 1.111323e+01 
3.753320e+00 1.095075e+01 
3.787980e+00 1.079382e+01 
3.822290e+00 1.064161e+01 
3.857020e+00 1.049037e+01 
3.891920e+00 1.034141e+01 
3.926650e+00 1.019573e+01 
3.961970e+00 1.005054e+01 
3.997360e+00 9.907455e+00 
4.031670e+00 9.771602e+00 
4.066330e+00 9.636551e+00 
4.101420e+00 9.502742e+00 
4.136200e+00 9.371901e+00 
4.170810e+00 9.244461e+00 
4.206250e+00 9.116004e+00 
4.241580e+00 8.990541e+00 
4.276300e+00 8.869270e+00 
4.310970e+00 8.750361e+00 
4.346120e+00 8.631978e+00 
4.380600e+00 8.517704e+00 
4.414730e+00 8.406828e+00 
4.450350e+00 8.292658e+00 
4.485320e+00 8.182845e+00 
4.519810e+00 8.076280e+00 
4.555430e+00 7.968227e+00 
4.590870e+00 7.862616e+00 
4.625480e+00 7.760973e+00 
4.659910e+00 7.661801e+00 
4.695230e+00 7.561544e+00 
4.729960e+00 7.464785e+00 
4.764450e+00 7.370353e+00 
4.799530e+00 7.275855e+00 
4.834910e+00 7.182358e+00 
4.869700e+00 7.091597e+00 
4.904370e+00 7.002733e+00 
4.939450e+00 6.914376e+00 
4.973940e+00 6.828830e+00 
5.008430e+00 6.744830e+00 
5.043810e+00 6.659948e+00 
5.078840e+00 6.577275e+00 
5.113500e+00 6.496941e+00 
5.148890e+00 6.416037e+00 
5.184210e+00 6.336730e+00 
5.219060e+00 6.259788e+00 
5.253660e+00 6.184509e+00 
5.288570e+00 6.109875e+00 
5.323420e+00 6.036485e+00 
5.358440e+00 5.963815e+00 
5.393590e+00 5.892135e+00 
5.428310e+00 5.822444e+00 
5.462800e+00 5.754330e+00 
5.497640e+00 5.686678e+00 
5.532670e+00 5.619595e+00 
5.567280e+00 5.554356e+00 
5.602000e+00 5.489991e+00 
5.637270e+00 5.425534e+00 
5.672410e+00 5.362345e+00 
5.707020e+00 5.301127e+00 
5.742040e+00 5.240068e+00 
5.777430e+00 5.179347e+00 
5.812210e+00 5.120640e+00 
5.846820e+00 5.063038e+00 
5.881610e+00 5.006026e+00 
5.916510e+00 4.949740e+00 
5.951600e+00 4.893980e+00 
5.986560e+00 4.839275e+00 
6.021830e+00 4.784952e+00 
6.056490e+00 4.732338e+00 
6.091160e+00 4.680466e+00 
6.125830e+00 4.629387e+00 
6.161090e+00 4.578218e+00 
6.195760e+00 4.528633e+00 
6.230420e+00 4.479809e+00 
6.265690e+00 4.430877e+00 
6.300950e+00 4.382690e+00 
6.335620e+00 4.336019e+00 
6.370880e+00 4.289261e+00 
6.405550e+00 4.243932e+00 
6.440220e+00 4.199252e+00 
6.475480e+00 4.154479e+00 
6.510150e+00 4.111101e+00 
6.544810e+00 4.068367e+00 
6.580080e+00 4.025510e+00 
6.614750e+00 3.983989e+00 
6.649410e+00 3.943055e+00 
6.684080e+00 3.902685e+00 
6.719340e+00 3.862212e+00 
6.754010e+00 3.822991e+00 
6.788680e+00 3.784347e+00 
6.823940e+00 3.745596e+00 
6.859800e+00 3.706745e+00 
6.894470e+00 3.669751e+00 
6.929140e+00 3.633279e+00 
6.963800e+00 3.597314e+00 
6.999070e+00 3.561220e+00 
7.033730e+00 3.526259e+00 
7.068400e+00 3.491758e+00 
7.103660e+00 3.457144e+00 
7.138330e+00 3.423578e+00 
7.173600e+00 3.389910e+00 
7.208260e+00 3.357266e+00 
7.243530e+00 3.324488e+00 
7.277600e+00 3.293283e+00 
7.312860e+00 3.261449e+00 
7.348120e+00 3.230035e+00 
7.382790e+00 3.199550e+00 
7.417460e+00 3.169484e+00 
7.452720e+00 3.139317e+00 
7.487390e+00 3.110035e+00 
7.522650e+00 3.080638e+00 
7.557320e+00 3.052154e+00 
7.591990e+00 3.024049e+00 
7.627250e+00 2.995827e+00 
7.662510e+00 2.967964e+00 
7.697180e+00 2.940980e+00 
7.731850e+00 2.914357e+00 
7.766510e+00 2.888070e+00 
7.801180e+00 2.862098e+00 
7.836440e+00 2.836057e+00 
7.871110e+00 2.810797e+00 
7.906380e+00 2.785413e+00 
7.941040e+00 2.760772e+00 
7.976310e+00 2.736036e+00 
8.011570e+00 2.711648e+00 
8.046240e+00 2.687958e+00 
8.080900e+00 2.664555e+00 
8.115570e+00 2.641441e+00 
8.150830e+00 2.618284e+00 
8.185500e+00 2.595785e+00 
8.220770e+00 2.573165e+00 
8.255430e+00 2.551197e+00 
8.290100e+00 2.529559e+00 
8.324770e+00 2.508181e+00 
8.359430e+00 2.487053e+00 
8.394700e+00 2.465802e+00 
8.429960e+00 2.444844e+00 
8.464630e+00 2.424514e+00 
8.499890e+00 2.404074e+00 
8.534560e+00 2.384203e+00 
8.569200e+00 2.364572e+00 
