# Parameters:
# omega_b = 0.021705, omega_m = 0.125512, n_s = 1.020079, h = 58.070866, w = -1.000000, sigma_8 = 0.814961
# z = 1.900000
#
# k[1/Mpc] # P(k):
8.694000e-04 3.727949e+03 
2.077466e-03 8.252135e+03 
3.285532e-03 1.184413e+04 
4.493598e-03 1.460664e+04 
5.701664e-03 1.665054e+04 
6.909730e-03 1.808257e+04 
8.117797e-03 1.902999e+04 
9.325863e-03 1.956025e+04 
1.053393e-02 1.974408e+04 
1.174199e-02 1.964978e+04 
1.295006e-02 1.931928e+04 
1.415813e-02 1.880943e+04 
1.536619e-02 1.817108e+04 
1.657426e-02 1.743906e+04 
1.778233e-02 1.664299e+04 
1.899039e-02 1.582616e+04 
2.019846e-02 1.501275e+04 
2.140652e-02 1.422335e+04 
2.261459e-02 1.346936e+04 
2.382266e-02 1.276372e+04 
2.503072e-02 1.211475e+04 
2.623879e-02 1.152495e+04 
2.744685e-02 1.099591e+04 
2.865492e-02 1.052575e+04 
2.986299e-02 1.011042e+04 
3.100100e-02 9.768190e+03 
3.220400e-02 9.452012e+03 
3.288100e-02 9.294026e+03 
3.424300e-02 9.011479e+03 
3.555100e-02 8.776680e+03 
3.686000e-02 8.570791e+03 
3.795000e-02 8.415756e+03 
3.929100e-02 8.239643e+03 
4.039800e-02 8.100308e+03 
4.164000e-02 7.946849e+03 
4.294400e-02 7.779918e+03 
4.415000e-02 7.621854e+03 
4.542900e-02 7.441041e+03 
4.660900e-02 7.267367e+03 
4.782300e-02 7.071789e+03 
4.892900e-02 6.886753e+03 
5.031200e-02 6.643843e+03 
5.155900e-02 6.414859e+03 
5.238100e-02 6.261152e+03 
5.378200e-02 5.997378e+03 
5.513400e-02 5.744554e+03 
5.627600e-02 5.537082e+03 
5.735300e-02 5.350547e+03 
5.870100e-02 5.133594e+03 
5.988700e-02 4.960474e+03 
6.113500e-02 4.796120e+03 
6.225900e-02 4.662842e+03 
6.340100e-02 4.538997e+03 
6.480200e-02 4.398235e+03 
6.601100e-02 4.284825e+03 
6.725500e-02 4.174002e+03 
6.829100e-02 4.086515e+03 
6.958600e-02 3.982760e+03 
7.071100e-02 3.898950e+03 
7.192300e-02 3.815241e+03 
7.307400e-02 3.742109e+03 
7.412300e-02 3.680611e+03 
7.550400e-02 3.606990e+03 
7.663100e-02 3.551628e+03 
7.791200e-02 3.493789e+03 
7.912700e-02 3.442278e+03 
8.027600e-02 3.395398e+03 
8.138400e-02 3.351229e+03 
8.272200e-02 3.298379e+03 
8.406100e-02 3.245084e+03 
8.534100e-02 3.192251e+03 
8.653800e-02 3.140601e+03 
8.759800e-02 3.093523e+03 
8.900300e-02 3.028659e+03 
9.009000e-02 2.976199e+03 
9.113300e-02 2.923732e+03 
9.239600e-02 2.859126e+03 
9.358000e-02 2.796955e+03 
9.496100e-02 2.722548e+03 
9.608400e-02 2.662070e+03 
9.727500e-02 2.598463e+03 
9.852600e-02 2.531483e+03 
9.973800e-02 2.468395e+03 
1.009000e-01 2.409569e+03 
1.020900e-01 2.351701e+03 
1.034000e-01 2.290882e+03 
1.046000e-01 2.237858e+03 
1.057200e-01 2.192014e+03 
1.069100e-01 2.145624e+03 
1.082500e-01 2.097826e+03 
1.093900e-01 2.060371e+03 
1.105400e-01 2.024756e+03 
1.116900e-01 1.992834e+03 
1.129600e-01 1.959455e+03 
1.142000e-01 1.930084e+03 
1.153300e-01 1.904758e+03 
1.166400e-01 1.877334e+03 
1.177800e-01 1.854757e+03 
1.190000e-01 1.831500e+03 
1.201200e-01 1.810653e+03 
1.213400e-01 1.788479e+03 
1.227100e-01 1.763316e+03 
1.238900e-01 1.741870e+03 
1.250700e-01 1.719837e+03 
1.263200e-01 1.696512e+03 
1.275500e-01 1.672918e+03 
1.287500e-01 1.649776e+03 
1.299900e-01 1.625373e+03 
1.311300e-01 1.602862e+03 
1.323500e-01 1.578431e+03 
1.335900e-01 1.553707e+03 
1.347100e-01 1.531251e+03 
1.359800e-01 1.506098e+03 
1.372100e-01 1.481777e+03 
1.384300e-01 1.458113e+03 
1.395700e-01 1.436251e+03 
1.407700e-01 1.413741e+03 
1.420300e-01 1.390610e+03 
1.432800e-01 1.368196e+03 
1.444500e-01 1.347950e+03 
1.456300e-01 1.327966e+03 
1.468900e-01 1.307489e+03 
1.480500e-01 1.289158e+03 
1.491700e-01 1.272071e+03 
1.503800e-01 1.254312e+03 
1.516400e-01 1.236335e+03 
1.528200e-01 1.220400e+03 
1.540200e-01 1.204516e+03 
1.551900e-01 1.189800e+03 
1.564300e-01 1.174622e+03 
1.576600e-01 1.160075e+03 
1.588700e-01 1.146293e+03 
1.600900e-01 1.132677e+03 
1.612700e-01 1.119994e+03 
1.625400e-01 1.106602e+03 
1.637600e-01 1.094006e+03 
1.649500e-01 1.081959e+03 
1.662200e-01 1.069316e+03 
1.674000e-01 1.057652e+03 
1.685000e-01 1.046963e+03 
1.697500e-01 1.034880e+03 
1.710300e-01 1.022591e+03 
1.722200e-01 1.011373e+03 
1.734400e-01 9.997301e+02 
1.746400e-01 9.884664e+02 
1.758700e-01 9.770231e+02 
1.770900e-01 9.656671e+02 
1.782700e-01 9.548736e+02 
1.794600e-01 9.440353e+02 
1.807000e-01 9.328447e+02 
1.819100e-01 9.221156e+02 
1.830100e-01 9.124540e+02 
1.842200e-01 9.019880e+02 
1.855000e-01 8.911111e+02 
1.867000e-01 8.811167e+02 
1.879200e-01 8.711260e+02 
1.890900e-01 8.617217e+02 
1.902800e-01 8.524107e+02 
1.915200e-01 8.428682e+02 
1.926900e-01 8.340529e+02 
1.939000e-01 8.252189e+02 
1.951700e-01 8.160989e+02 
1.963100e-01 8.080917e+02 
1.975100e-01 7.999247e+02 
1.987800e-01 7.914189e+02 
2.000100e-01 7.833631e+02 
2.012500e-01 7.754856e+02 
2.023400e-01 7.686627e+02 
2.036100e-01 7.608527e+02 
2.048900e-01 7.531921e+02 
2.060400e-01 7.464126e+02 
2.072200e-01 7.395594e+02 
2.084200e-01 7.327376e+02 
2.096900e-01 7.256256e+02 
2.109200e-01 7.188412e+02 
2.121100e-01 7.123631e+02 
2.132700e-01 7.061361e+02 
2.145200e-01 6.995217e+02 
2.157200e-01 6.932269e+02 
2.168800e-01 6.872092e+02 
2.180700e-01 6.811205e+02 
2.193400e-01 6.746855e+02 
2.206000e-01 6.683396e+02 
2.217500e-01 6.626281e+02 
2.229500e-01 6.567486e+02 
2.241400e-01 6.509026e+02 
2.253500e-01 6.450373e+02 
2.264900e-01 6.395849e+02 
2.277100e-01 6.337824e+02 
2.289900e-01 6.277301e+02 
2.301500e-01 6.223203e+02 
2.313600e-01 6.167513e+02 
2.325600e-01 6.112192e+02 
2.337700e-01 6.057157e+02 
2.350000e-01 6.001967e+02 
2.362000e-01 5.948560e+02 
2.374100e-01 5.895084e+02 
2.386500e-01 5.841017e+02 
2.399100e-01 5.786826e+02 
2.410400e-01 5.738597e+02 
2.422500e-01 5.687575e+02 
2.435000e-01 5.635565e+02 
2.447300e-01 5.585058e+02 
2.458700e-01 5.538807e+02 
2.470600e-01 5.491125e+02 
2.483300e-01 5.440899e+02 
2.495600e-01 5.393021e+02 
2.507600e-01 5.347075e+02 
2.519600e-01 5.301702e+02 
2.532200e-01 5.254668e+02 
2.543700e-01 5.212589e+02 
2.555500e-01 5.170141e+02 
2.568000e-01 5.125730e+02 
2.580100e-01 5.083276e+02 
2.592400e-01 5.041078e+02 
2.604100e-01 5.001607e+02 
2.616100e-01 4.961601e+02 
2.628400e-01 4.921088e+02 
2.640600e-01 4.881902e+02 
2.652200e-01 4.845279e+02 
2.664300e-01 4.807517e+02 
2.676500e-01 4.769891e+02 
2.688400e-01 4.733981e+02 
2.700700e-01 4.697521e+02 
2.712400e-01 4.663236e+02 
2.724800e-01 4.627313e+02 
2.736700e-01 4.593467e+02 
2.748800e-01 4.559679e+02 
2.761000e-01 4.525997e+02 
2.773200e-01 4.492696e+02 
2.785400e-01 4.459874e+02 
2.797000e-01 4.429229e+02 
2.808900e-01 4.398127e+02 
2.821400e-01 4.365819e+02 
2.833900e-01 4.333883e+02 
2.845500e-01 4.304735e+02 
2.857800e-01 4.274158e+02 
2.870300e-01 4.243427e+02 
2.882100e-01 4.214730e+02 
2.893900e-01 4.186411e+02 
2.906300e-01 4.157011e+02 
2.918900e-01 4.127464e+02 
2.930500e-01 4.100549e+02 
2.942500e-01 4.072998e+02 
2.954200e-01 4.046432e+02 
2.966500e-01 4.018792e+02 
2.978900e-01 3.991223e+02 
2.990400e-01 3.965916e+02 
3.002700e-01 3.939129e+02 
3.015100e-01 3.912411e+02 
3.026800e-01 3.887458e+02 
3.038500e-01 3.862750e+02 
3.050300e-01 3.838076e+02 
3.062600e-01 3.812591e+02 
3.075000e-01 3.787163e+02 
3.087000e-01 3.762804e+02 
3.099100e-01 3.738486e+02 
3.111200e-01 3.714405e+02 
3.123100e-01 3.690946e+02 
3.135300e-01 3.667132e+02 
3.147300e-01 3.643940e+02 
3.159900e-01 3.619830e+02 
3.171800e-01 3.597291e+02 
3.183700e-01 3.574973e+02 
3.196300e-01 3.551573e+02 
3.208400e-01 3.529323e+02 
3.220300e-01 3.507650e+02 
3.232000e-01 3.486555e+02 
3.244300e-01 3.464594e+02 
3.256700e-01 3.442669e+02 
3.269200e-01 3.420783e+02 
3.280800e-01 3.400664e+02 
3.292500e-01 3.380590e+02 
3.304800e-01 3.359694e+02 
3.317100e-01 3.338996e+02 
3.328900e-01 3.319324e+02 
3.340700e-01 3.299830e+02 
3.353600e-01 3.278761e+02 
3.365300e-01 3.259846e+02 
3.377100e-01 3.240940e+02 
3.389200e-01 3.221728e+02 
3.401600e-01 3.202221e+02 
3.413700e-01 3.183415e+02 
3.425300e-01 3.165584e+02 
3.437700e-01 3.146694e+02 
3.449800e-01 3.128428e+02 
3.461800e-01 3.110475e+02 
3.473600e-01 3.092999e+02 
3.485800e-01 3.075148e+02 
3.498100e-01 3.057312e+02 
3.510200e-01 3.039922e+02 
3.522000e-01 3.023110e+02 
3.533900e-01 3.006301e+02 
3.546400e-01 2.988905e+02 
3.558400e-01 2.972357e+02 
3.570600e-01 2.955679e+02 
3.582700e-01 2.939280e+02 
3.595000e-01 2.922756e+02 
3.607100e-01 2.906703e+02 
3.618900e-01 2.891229e+02 
3.631200e-01 2.875235e+02 
3.643200e-01 2.859765e+02 
3.655500e-01 2.844042e+02 
3.667300e-01 2.829085e+02 
3.679500e-01 2.813859e+02 
3.691900e-01 2.798516e+02 
3.703600e-01 2.784158e+02 
3.715700e-01 2.769431e+02 
3.727700e-01 2.754945e+02 
3.739900e-01 2.740376e+02 
3.752000e-01 2.726113e+02 
3.763900e-01 2.712198e+02 
3.775800e-01 2.698396e+02 
3.788200e-01 2.684130e+02 
3.800300e-01 2.670324e+02 
3.812100e-01 2.657030e+02 
3.824200e-01 2.643548e+02 
3.836100e-01 2.630394e+02 
3.848600e-01 2.616689e+02 
3.860400e-01 2.603854e+02 
3.872400e-01 2.590903e+02 
3.884600e-01 2.577916e+02 
3.896500e-01 2.565376e+02 
3.908700e-01 2.552620e+02 
3.920600e-01 2.540274e+02 
3.933100e-01 2.527408e+02 
3.945300e-01 2.514950e+02 
3.957200e-01 2.502972e+02 
3.969300e-01 2.490907e+02 
3.981700e-01 2.478640e+02 
3.993500e-01 2.467056e+02 
4.094840e-01 2.371419e+02 
4.272360e-01 2.219825e+02 
4.454600e-01 2.081698e+02 
4.630560e-01 1.962564e+02 
4.804610e-01 1.856399e+02 
4.980690e-01 1.759165e+02 
5.159230e-01 1.669567e+02 
5.317440e-01 1.596777e+02 
5.489640e-01 1.523789e+02 
5.671990e-01 1.452872e+02 
5.838690e-01 1.393006e+02 
6.018840e-01 1.333227e+02 
6.202330e-01 1.277055e+02 
6.379250e-01 1.226811e+02 
6.545410e-01 1.182947e+02 
6.714560e-01 1.141221e+02 
6.892080e-01 1.100297e+02 
7.066010e-01 1.062890e+02 
7.240540e-01 1.027708e+02 
7.420450e-01 9.937803e+01 
7.593780e-01 9.631358e+01 
7.764720e-01 9.346774e+01 
7.942840e-01 9.067772e+01 
8.116170e-01 8.811956e+01 
8.288310e-01 8.572064e+01 
8.462240e-01 8.342656e+01 
8.631980e-01 8.130636e+01 
8.810700e-01 7.919032e+01 
8.989410e-01 7.718565e+01 
9.166330e-01 7.529926e+01 
9.345640e-01 7.348375e+01 
9.515980e-01 7.184149e+01 
9.688720e-01 7.025036e+01 
9.865640e-01 6.869643e+01 
1.031870e+00 6.501495e+01 
1.063490e+00 6.267606e+01 
1.097920e+00 6.031881e+01 
1.134370e+00 5.800631e+01 
1.167730e+00 5.604068e+01 
1.203830e+00 5.405687e+01 
1.240470e+00 5.217768e+01 
1.275790e+00 5.048237e+01 
1.309140e+00 4.897766e+01 
1.342970e+00 4.753119e+01 
1.378420e+00 4.610048e+01 
1.413200e+00 4.477269e+01 
1.448110e+00 4.350814e+01 
1.484090e+00 4.227013e+01 
1.518820e+00 4.113494e+01 
1.552880e+00 4.007167e+01 
1.588630e+00 3.900668e+01 
1.623230e+00 3.802077e+01 
1.657720e+00 3.708230e+01 
1.692450e+00 3.617509e+01 
1.726400e+00 3.532470e+01 
1.762200e+00 3.446255e+01 
1.797880e+00 3.363796e+01 
1.833270e+00 3.285183e+01 
1.869070e+00 3.208756e+01 
1.903200e+00 3.138439e+01 
1.937740e+00 3.069860e+01 
1.973190e+00 3.001953e+01 
2.007440e+00 2.938607e+01 
2.042160e+00 2.876484e+01 
2.077900e+00 2.814672e+01 
2.112390e+00 2.757123e+01 
2.146220e+00 2.702262e+01 
2.181600e+00 2.646761e+01 
2.216930e+00 2.592986e+01 
2.250760e+00 2.543085e+01 
2.286500e+00 2.492014e+01 
2.321770e+00 2.443136e+01 
2.355950e+00 2.397037e+01 
2.391280e+00 2.350772e+01 
2.426240e+00 2.306244e+01 
2.460670e+00 2.263645e+01 
2.495640e+00 2.221662e+01 
2.531080e+00 2.180176e+01 
2.566220e+00 2.140101e+01 
2.600830e+00 2.101689e+01 
2.635080e+00 2.064696e+01 
2.670340e+00 2.027582e+01 
2.705970e+00 1.991020e+01 
2.740040e+00 1.956949e+01 
2.774520e+00 1.923284e+01 
2.809730e+00 1.889720e+01 
2.844390e+00 1.857534e+01 
2.879960e+00 1.825308e+01 
2.914860e+00 1.794400e+01 
2.949410e+00 1.764556e+01 
2.984440e+00 1.734926e+01 
3.019760e+00 1.705780e+01 
3.054730e+00 1.677657e+01 
3.089030e+00 1.650557e+01 
3.124060e+00 1.623565e+01 
3.159560e+00 1.596856e+01 
3.194710e+00 1.570940e+01 
3.229010e+00 1.546253e+01 
3.263320e+00 1.521980e+01 
3.297930e+00 1.498071e+01 
3.332830e+00 1.474462e+01 
3.368040e+00 1.451146e+01 
3.403300e+00 1.428315e+01 
3.438450e+00 1.405990e+01 
3.473060e+00 1.384526e+01 
3.508440e+00 1.362932e+01 
3.543110e+00 1.342272e+01 
3.577470e+00 1.322159e+01 
3.613040e+00 1.301798e+01 
3.648120e+00 1.282070e+01 
3.682910e+00 1.262935e+01 
3.718050e+00 1.243991e+01 
3.753320e+00 1.225350e+01 
3.787980e+00 1.207346e+01 
3.822290e+00 1.189888e+01 
3.857020e+00 1.172551e+01 
3.891920e+00 1.155479e+01 
3.926650e+00 1.138786e+01 
3.961970e+00 1.122153e+01 
3.997360e+00 1.105768e+01 
4.031670e+00 1.090214e+01 
4.066330e+00 1.074761e+01 
4.101420e+00 1.059452e+01 
4.136200e+00 1.044488e+01 
4.170810e+00 1.029916e+01 
4.206250e+00 1.015236e+01 
4.241580e+00 1.000902e+01 
4.276300e+00 9.870513e+00 
4.310970e+00 9.734736e+00 
4.346120e+00 9.599608e+00 
4.380600e+00 9.469234e+00 
4.414730e+00 9.342760e+00 
4.450350e+00 9.212575e+00 
4.485320e+00 9.087380e+00 
4.519810e+00 8.965986e+00 
4.555430e+00 8.842953e+00 
4.590870e+00 8.722726e+00 
4.625480e+00 8.607044e+00 
4.659910e+00 8.494193e+00 
4.695230e+00 8.380187e+00 
4.729960e+00 8.270187e+00 
4.764450e+00 8.162884e+00 
4.799530e+00 8.055580e+00 
4.834910e+00 7.949432e+00 
4.869700e+00 7.846422e+00 
4.904370e+00 7.745585e+00 
4.939450e+00 7.645363e+00 
4.973940e+00 7.548402e+00 
5.008430e+00 7.453208e+00 
5.043810e+00 7.357060e+00 
5.078840e+00 7.263446e+00 
5.113500e+00 7.172497e+00 
5.148890e+00 7.080994e+00 
5.184210e+00 6.991315e+00 
5.219060e+00 6.904334e+00 
5.253660e+00 6.819269e+00 
5.288570e+00 6.734948e+00 
5.323420e+00 6.652065e+00 
5.358440e+00 6.570030e+00 
5.393590e+00 6.489126e+00 
5.428310e+00 6.410534e+00 
5.462800e+00 6.333761e+00 
5.497640e+00 6.257522e+00 
5.532670e+00 6.181962e+00 
5.567280e+00 6.108499e+00 
5.602000e+00 6.036030e+00 
5.637270e+00 5.963511e+00 
5.672410e+00 5.892438e+00 
5.707020e+00 5.823593e+00 
5.742040e+00 5.754979e+00 
5.777430e+00 5.686764e+00 
5.812210e+00 5.620821e+00 
5.846820e+00 5.556162e+00 
5.881610e+00 5.492183e+00 
5.916510e+00 5.429028e+00 
5.951600e+00 5.366504e+00 
5.986560e+00 5.305185e+00 
6.021830e+00 5.244304e+00 
6.056490e+00 5.185369e+00 
6.091160e+00 5.127292e+00 
6.125830e+00 5.070112e+00 
6.161090e+00 5.012848e+00 
6.195760e+00 4.957385e+00 
6.230420e+00 4.902782e+00 
6.265690e+00 4.848068e+00 
6.300950e+00 4.794246e+00 
6.335620e+00 4.742124e+00 
6.370880e+00 4.689913e+00 
6.405550e+00 4.639323e+00 
6.440220e+00 4.589473e+00 
6.475480e+00 4.539527e+00 
6.510150e+00 4.491152e+00 
6.544810e+00 4.443522e+00 
6.580080e+00 4.395762e+00 
6.614750e+00 4.349497e+00 
6.649410e+00 4.303912e+00 
6.684080e+00 4.258966e+00 
6.719340e+00 4.213911e+00 
6.754010e+00 4.170267e+00 
6.788680e+00 4.127296e+00 
6.823940e+00 4.084211e+00 
6.859800e+00 4.041020e+00 
6.894470e+00 3.999924e+00 
6.929140e+00 3.959423e+00 
6.963800e+00 3.919490e+00 
6.999070e+00 3.879418e+00 
7.033730e+00 3.840627e+00 
7.068400e+00 3.802352e+00 
7.103660e+00 3.763956e+00 
7.138330e+00 3.726732e+00 
7.173600e+00 3.689412e+00 
7.208260e+00 3.653231e+00 
7.243530e+00 3.616906e+00 
7.277600e+00 3.582343e+00 
7.312860e+00 3.547100e+00 
7.348120e+00 3.512327e+00 
7.382790e+00 3.478585e+00 
7.417460e+00 3.445324e+00 
7.452720e+00 3.411960e+00 
7.487390e+00 3.379580e+00 
7.522650e+00 3.347074e+00 
7.557320e+00 3.315593e+00 
7.591990e+00 3.284536e+00 
7.627250e+00 3.253354e+00 
7.662510e+00 3.222571e+00 
7.697180e+00 3.192780e+00 
7.731850e+00 3.163395e+00 
7.766510e+00 3.134384e+00 
7.801180e+00 3.105724e+00 
7.836440e+00 3.077004e+00 
7.871110e+00 3.049155e+00 
7.906380e+00 3.021172e+00 
7.941040e+00 2.994011e+00 
7.976310e+00 2.966754e+00 
8.011570e+00 2.939890e+00 
8.046240e+00 2.913796e+00 
8.080900e+00 2.888021e+00 
8.115570e+00 2.862569e+00 
8.150830e+00 2.837081e+00 
8.185500e+00 2.812318e+00 
8.220770e+00 2.787425e+00 
8.255430e+00 2.763252e+00 
8.290100e+00 2.739461e+00 
8.324770e+00 2.715959e+00 
8.359430e+00 2.692736e+00 
8.394700e+00 2.669378e+00 
8.429960e+00 2.646349e+00 
8.464630e+00 2.624016e+00 
8.499890e+00 2.601564e+00 
8.534560e+00 2.579740e+00 
8.569200e+00 2.558180e+00 
