# Parameters:
# omega_b = 0.023453, omega_m = 0.134606, n_s = 0.999606, h = 56.417323, w = -1.000000, sigma_8 = 0.799213
# z = 1.900000
#
# k[1/Mpc] # P(k):
8.694000e-04 3.282570e+03 
2.077466e-03 7.195193e+03 
3.285532e-03 1.029855e+04 
4.493598e-03 1.271212e+04 
5.701664e-03 1.451491e+04 
6.909730e-03 1.579844e+04 
8.117797e-03 1.667224e+04 
9.325863e-03 1.719233e+04 
1.053393e-02 1.741553e+04 
1.174199e-02 1.739596e+04 
1.295006e-02 1.716787e+04 
1.415813e-02 1.677866e+04 
1.536619e-02 1.627069e+04 
1.657426e-02 1.567369e+04 
1.778233e-02 1.501323e+04 
1.899039e-02 1.432688e+04 
2.019846e-02 1.363536e+04 
2.140652e-02 1.295700e+04 
2.261459e-02 1.230186e+04 
2.382266e-02 1.168187e+04 
2.503072e-02 1.110502e+04 
2.623879e-02 1.057429e+04 
2.744685e-02 1.009117e+04 
2.865492e-02 9.656120e+03 
2.986299e-02 9.266735e+03 
3.100100e-02 8.941154e+03 
3.220400e-02 8.636516e+03 
3.288100e-02 8.482667e+03 
3.424300e-02 8.205683e+03 
3.555100e-02 7.974611e+03 
3.686000e-02 7.772613e+03 
3.795000e-02 7.622015e+03 
3.929100e-02 7.454718e+03 
4.039800e-02 7.326001e+03 
4.164000e-02 7.187981e+03 
4.294400e-02 7.043589e+03 
4.415000e-02 6.909763e+03 
4.542900e-02 6.759970e+03 
4.660900e-02 6.617357e+03 
4.782300e-02 6.457502e+03 
4.892900e-02 6.305978e+03 
5.031200e-02 6.105799e+03 
5.155900e-02 5.915135e+03 
5.238100e-02 5.785961e+03 
5.378200e-02 5.562011e+03 
5.513400e-02 5.344066e+03 
5.627600e-02 5.162515e+03 
5.735300e-02 4.997184e+03 
5.870100e-02 4.802158e+03 
5.988700e-02 4.644391e+03 
6.113500e-02 4.492850e+03 
6.225900e-02 4.368641e+03 
6.340100e-02 4.252388e+03 
6.480200e-02 4.119737e+03 
6.601100e-02 4.012182e+03 
6.725500e-02 3.906509e+03 
6.829100e-02 3.822415e+03 
6.958600e-02 3.722053e+03 
7.071100e-02 3.640229e+03 
7.192300e-02 3.557870e+03 
7.307400e-02 3.485426e+03 
7.412300e-02 3.424221e+03 
7.550400e-02 3.350737e+03 
7.663100e-02 3.295511e+03 
7.791200e-02 3.238173e+03 
7.912700e-02 3.187757e+03 
8.027600e-02 3.142524e+03 
8.138400e-02 3.100535e+03 
8.272200e-02 3.051225e+03 
8.406100e-02 3.002476e+03 
8.534100e-02 2.955166e+03 
8.653800e-02 2.909584e+03 
8.759800e-02 2.868350e+03 
8.900300e-02 2.811909e+03 
9.009000e-02 2.766437e+03 
9.113300e-02 2.720966e+03 
9.239600e-02 2.664906e+03 
9.358000e-02 2.610796e+03 
9.496100e-02 2.545638e+03 
9.608400e-02 2.492375e+03 
9.727500e-02 2.436096e+03 
9.852600e-02 2.376121e+03 
9.973800e-02 2.319246e+03 
1.009000e-01 2.265895e+03 
1.020900e-01 2.212579e+03 
1.034000e-01 2.156118e+03 
1.046000e-01 2.106448e+03 
1.057200e-01 2.062740e+03 
1.069100e-01 2.018235e+03 
1.082500e-01 1.971567e+03 
1.093900e-01 1.934525e+03 
1.105400e-01 1.899018e+03 
1.116900e-01 1.866624e+03 
1.129600e-01 1.832596e+03 
1.142000e-01 1.802311e+03 
1.153300e-01 1.776191e+03 
1.166400e-01 1.747885e+03 
1.177800e-01 1.724813e+03 
1.190000e-01 1.701158e+03 
1.201200e-01 1.680551e+03 
1.213400e-01 1.658739e+03 
1.227100e-01 1.635057e+03 
1.238900e-01 1.615094e+03 
1.250700e-01 1.595283e+03 
1.263200e-01 1.574535e+03 
1.275500e-01 1.554039e+03 
1.287500e-01 1.534089e+03 
1.299900e-01 1.513291e+03 
1.311300e-01 1.494117e+03 
1.323500e-01 1.473326e+03 
1.335900e-01 1.452165e+03 
1.347100e-01 1.432794e+03 
1.359800e-01 1.410922e+03 
1.372100e-01 1.389438e+03 
1.384300e-01 1.368355e+03 
1.395700e-01 1.348469e+03 
1.407700e-01 1.327933e+03 
1.420300e-01 1.306252e+03 
1.432800e-01 1.285243e+03 
1.444500e-01 1.265754e+03 
1.456300e-01 1.246521e+03 
1.468900e-01 1.226542e+03 
1.480500e-01 1.208581e+03 
1.491700e-01 1.191766e+03 
1.503800e-01 1.174195e+03 
1.516400e-01 1.156415e+03 
1.528200e-01 1.140652e+03 
1.540200e-01 1.124945e+03 
1.551900e-01 1.110500e+03 
1.564300e-01 1.095630e+03 
1.576600e-01 1.081477e+03 
1.588700e-01 1.068187e+03 
1.600900e-01 1.055070e+03 
1.612700e-01 1.043089e+03 
1.625400e-01 1.030438e+03 
1.637600e-01 1.018674e+03 
1.649500e-01 1.007502e+03 
1.662200e-01 9.958023e+02 
1.674000e-01 9.851424e+02 
1.685000e-01 9.753734e+02 
1.697500e-01 9.643700e+02 
1.710300e-01 9.532171e+02 
1.722200e-01 9.430352e+02 
1.734400e-01 9.324745e+02 
1.746400e-01 9.222565e+02 
1.758700e-01 9.118568e+02 
1.770900e-01 9.015005e+02 
1.782700e-01 8.916560e+02 
1.794600e-01 8.817195e+02 
1.807000e-01 8.714260e+02 
1.819100e-01 8.615560e+02 
1.830100e-01 8.525891e+02 
1.842200e-01 8.428619e+02 
1.855000e-01 8.327485e+02 
1.867000e-01 8.233645e+02 
1.879200e-01 8.139843e+02 
1.890900e-01 8.051425e+02 
1.902800e-01 7.963251e+02 
1.915200e-01 7.872891e+02 
1.926900e-01 7.789301e+02 
1.939000e-01 7.705143e+02 
1.951700e-01 7.618270e+02 
1.963100e-01 7.541945e+02 
1.975100e-01 7.463940e+02 
1.987800e-01 7.382709e+02 
2.000100e-01 7.305796e+02 
2.012500e-01 7.230619e+02 
2.023400e-01 7.165513e+02 
2.036100e-01 7.091051e+02 
2.048900e-01 7.018238e+02 
2.060400e-01 6.953805e+02 
2.072200e-01 6.888705e+02 
2.084200e-01 6.824251e+02 
2.096900e-01 6.757059e+02 
2.109200e-01 6.692965e+02 
2.121100e-01 6.632140e+02 
2.132700e-01 6.573695e+02 
2.145200e-01 6.511614e+02 
2.157200e-01 6.452750e+02 
2.168800e-01 6.396578e+02 
2.180700e-01 6.339743e+02 
2.193400e-01 6.279754e+02 
2.206000e-01 6.220738e+02 
2.217500e-01 6.167622e+02 
2.229500e-01 6.112942e+02 
2.241400e-01 6.058660e+02 
2.253500e-01 6.004199e+02 
2.264900e-01 5.953573e+02 
2.277100e-01 5.899685e+02 
2.289900e-01 5.843466e+02 
2.301500e-01 5.793215e+02 
2.313600e-01 5.741484e+02 
2.325600e-01 5.690003e+02 
2.337700e-01 5.638788e+02 
2.350000e-01 5.587429e+02 
2.362000e-01 5.537673e+02 
2.374100e-01 5.487789e+02 
2.386500e-01 5.437354e+02 
2.399100e-01 5.386803e+02 
2.410400e-01 5.341708e+02 
2.422500e-01 5.293989e+02 
2.435000e-01 5.245346e+02 
2.447300e-01 5.198090e+02 
2.458700e-01 5.154731e+02 
2.470600e-01 5.110032e+02 
2.483300e-01 5.062949e+02 
2.495600e-01 5.018033e+02 
2.507600e-01 4.974881e+02 
2.519600e-01 4.932270e+02 
2.532200e-01 4.888100e+02 
2.543700e-01 4.848552e+02 
2.555500e-01 4.808636e+02 
2.568000e-01 4.766877e+02 
2.580100e-01 4.726959e+02 
2.592400e-01 4.687264e+02 
2.604100e-01 4.650127e+02 
2.616100e-01 4.612489e+02 
2.628400e-01 4.574376e+02 
2.640600e-01 4.537510e+02 
2.652200e-01 4.503055e+02 
2.664300e-01 4.467530e+02 
2.676500e-01 4.432135e+02 
2.688400e-01 4.398364e+02 
2.700700e-01 4.364083e+02 
2.712400e-01 4.331847e+02 
2.724800e-01 4.298073e+02 
2.736700e-01 4.266266e+02 
2.748800e-01 4.234527e+02 
2.761000e-01 4.202888e+02 
2.773200e-01 4.171607e+02 
2.785400e-01 4.140787e+02 
2.797000e-01 4.112026e+02 
2.808900e-01 4.082838e+02 
2.821400e-01 4.052519e+02 
2.833900e-01 4.022551e+02 
2.845500e-01 3.995217e+02 
2.857800e-01 3.966545e+02 
2.870300e-01 3.937729e+02 
2.882100e-01 3.910822e+02 
2.893900e-01 3.884275e+02 
2.906300e-01 3.856719e+02 
2.918900e-01 3.829026e+02 
2.930500e-01 3.803800e+02 
2.942500e-01 3.777979e+02 
2.954200e-01 3.753081e+02 
2.966500e-01 3.727178e+02 
2.978900e-01 3.701342e+02 
2.990400e-01 3.677626e+02 
3.002700e-01 3.652519e+02 
3.015100e-01 3.627473e+02 
3.026800e-01 3.604083e+02 
3.038500e-01 3.580923e+02 
3.050300e-01 3.557796e+02 
3.062600e-01 3.533893e+02 
3.075000e-01 3.510044e+02 
3.087000e-01 3.487198e+02 
3.099100e-01 3.464392e+02 
3.111200e-01 3.441802e+02 
3.123100e-01 3.419787e+02 
3.135300e-01 3.397439e+02 
3.147300e-01 3.375675e+02 
3.159900e-01 3.353051e+02 
3.171800e-01 3.331892e+02 
3.183700e-01 3.310933e+02 
3.196300e-01 3.288960e+02 
3.208400e-01 3.268068e+02 
3.220300e-01 3.247719e+02 
3.232000e-01 3.227902e+02 
3.244300e-01 3.207269e+02 
3.256700e-01 3.186671e+02 
3.269200e-01 3.166110e+02 
3.280800e-01 3.147210e+02 
3.292500e-01 3.128345e+02 
3.304800e-01 3.108706e+02 
3.317100e-01 3.089254e+02 
3.328900e-01 3.070767e+02 
3.340700e-01 3.052448e+02 
3.353600e-01 3.032646e+02 
3.365300e-01 3.014868e+02 
3.377100e-01 2.997099e+02 
3.389200e-01 2.979044e+02 
3.401600e-01 2.960712e+02 
3.413700e-01 2.943041e+02 
3.425300e-01 2.926287e+02 
3.437700e-01 2.908538e+02 
3.449800e-01 2.891377e+02 
3.461800e-01 2.874510e+02 
3.473600e-01 2.858094e+02 
3.485800e-01 2.841331e+02 
3.498100e-01 2.824582e+02 
3.510200e-01 2.808253e+02 
3.522000e-01 2.792467e+02 
3.533900e-01 2.776685e+02 
3.546400e-01 2.760362e+02 
3.558400e-01 2.744836e+02 
3.570600e-01 2.729188e+02 
3.582700e-01 2.713804e+02 
3.595000e-01 2.698302e+02 
3.607100e-01 2.683250e+02 
3.618900e-01 2.668747e+02 
3.631200e-01 2.653758e+02 
3.643200e-01 2.639259e+02 
3.655500e-01 2.624525e+02 
3.667300e-01 2.610508e+02 
3.679500e-01 2.596256e+02 
3.691900e-01 2.581894e+02 
3.703600e-01 2.568456e+02 
3.715700e-01 2.554672e+02 
3.727700e-01 2.541115e+02 
3.739900e-01 2.527486e+02 
3.752000e-01 2.514153e+02 
3.763900e-01 2.501147e+02 
3.775800e-01 2.488246e+02 
3.788200e-01 2.474913e+02 
3.800300e-01 2.462009e+02 
3.812100e-01 2.449594e+02 
3.824200e-01 2.437011e+02 
3.836100e-01 2.424734e+02 
3.848600e-01 2.411942e+02 
3.860400e-01 2.399963e+02 
3.872400e-01 2.387877e+02 
3.884600e-01 2.375768e+02 
3.896500e-01 2.364080e+02 
3.908700e-01 2.352191e+02 
3.920600e-01 2.340685e+02 
3.933100e-01 2.328694e+02 
3.945300e-01 2.317085e+02 
3.957200e-01 2.305934e+02 
3.969300e-01 2.294707e+02 
3.981700e-01 2.283291e+02 
3.993500e-01 2.272512e+02 
4.094840e-01 2.183576e+02 
4.272360e-01 2.042907e+02 
4.454600e-01 1.914907e+02 
4.630560e-01 1.804564e+02 
4.804610e-01 1.706214e+02 
4.980690e-01 1.616077e+02 
5.159230e-01 1.532945e+02 
5.317440e-01 1.465354e+02 
5.489640e-01 1.397525e+02 
5.671990e-01 1.331562e+02 
5.838690e-01 1.275858e+02 
6.018840e-01 1.220205e+02 
6.202330e-01 1.167889e+02 
6.379250e-01 1.121096e+02 
6.545410e-01 1.080237e+02 
6.714560e-01 1.041369e+02 
6.892080e-01 1.003258e+02 
7.066010e-01 9.684243e+01 
7.240540e-01 9.356718e+01 
7.420450e-01 9.040918e+01 
7.593780e-01 8.755749e+01 
7.764720e-01 8.490994e+01 
7.942840e-01 8.231476e+01 
8.116170e-01 7.993618e+01 
8.288310e-01 7.770633e+01 
8.462240e-01 7.557480e+01 
8.631980e-01 7.360547e+01 
8.810700e-01 7.164077e+01 
8.989410e-01 6.977994e+01 
9.166330e-01 6.803004e+01 
9.345640e-01 6.634647e+01 
9.515980e-01 6.482398e+01 
9.688720e-01 6.334997e+01 
9.865640e-01 6.191094e+01 
1.031870e+00 5.850521e+01 
1.063490e+00 5.634421e+01 
1.097920e+00 5.416853e+01 
1.134370e+00 5.203718e+01 
1.167730e+00 5.022771e+01 
1.203830e+00 4.840404e+01 
1.240470e+00 4.667908e+01 
1.275790e+00 4.512511e+01 
1.309140e+00 4.374729e+01 
1.342970e+00 4.242554e+01 
1.378420e+00 4.111962e+01 
1.413200e+00 3.990931e+01 
1.448110e+00 3.875827e+01 
1.484090e+00 3.763299e+01 
1.518820e+00 3.660247e+01 
1.552880e+00 3.563868e+01 
1.588630e+00 3.467450e+01 
1.623230e+00 3.378324e+01 
1.657720e+00 3.293557e+01 
1.692450e+00 3.211734e+01 
1.726400e+00 3.135117e+01 
1.762200e+00 3.057539e+01 
1.797880e+00 2.983420e+01 
1.833270e+00 2.912840e+01 
1.869070e+00 2.844280e+01 
1.903200e+00 2.781288e+01 
1.937740e+00 2.719904e+01 
1.973190e+00 2.659168e+01 
2.007440e+00 2.602565e+01 
2.042160e+00 2.547111e+01 
2.077900e+00 2.491982e+01 
2.112390e+00 2.440678e+01 
2.146220e+00 2.391834e+01 
2.181600e+00 2.342445e+01 
2.216930e+00 2.294639e+01 
2.250760e+00 2.250302e+01 
2.286500e+00 2.204949e+01 
2.321770e+00 2.161575e+01 
2.355950e+00 2.120703e+01 
2.391280e+00 2.079704e+01 
2.426240e+00 2.040273e+01 
2.460670e+00 2.002569e+01 
2.495640e+00 1.965419e+01 
2.531080e+00 1.928732e+01 
2.566220e+00 1.893322e+01 
2.600830e+00 1.859397e+01 
2.635080e+00 1.826735e+01 
2.670340e+00 1.793976e+01 
2.705970e+00 1.761722e+01 
2.740040e+00 1.731679e+01 
2.774520e+00 1.702005e+01 
2.809730e+00 1.672433e+01 
2.844390e+00 1.644082e+01 
2.879960e+00 1.615703e+01 
2.914860e+00 1.588494e+01 
2.949410e+00 1.562229e+01 
2.984440e+00 1.536167e+01 
3.019760e+00 1.510534e+01 
3.054730e+00 1.485801e+01 
3.089030e+00 1.461981e+01 
3.124060e+00 1.438256e+01 
3.159560e+00 1.414780e+01 
3.194710e+00 1.392011e+01 
3.229010e+00 1.370325e+01 
3.263320e+00 1.349007e+01 
3.297930e+00 1.328011e+01 
3.332830e+00 1.307282e+01 
3.368040e+00 1.286811e+01 
3.403300e+00 1.266767e+01 
3.438450e+00 1.247170e+01 
3.473060e+00 1.228330e+01 
3.508440e+00 1.209379e+01 
3.543110e+00 1.191246e+01 
3.577470e+00 1.173594e+01 
3.613040e+00 1.155724e+01 
3.648120e+00 1.138413e+01 
3.682910e+00 1.121620e+01 
3.718050e+00 1.104992e+01 
3.753320e+00 1.088631e+01 
3.787980e+00 1.072833e+01 
3.822290e+00 1.057512e+01 
3.857020e+00 1.042294e+01 
3.891920e+00 1.027308e+01 
3.926650e+00 1.012656e+01 
3.961970e+00 9.980555e+00 
3.997360e+00 9.836707e+00 
4.031670e+00 9.700150e+00 
4.066330e+00 9.564447e+00 
4.101420e+00 9.430002e+00 
4.136200e+00 9.298585e+00 
4.170810e+00 9.170593e+00 
4.206250e+00 9.041626e+00 
4.241580e+00 8.915682e+00 
4.276300e+00 8.793974e+00 
4.310970e+00 8.674655e+00 
4.346120e+00 8.555888e+00 
4.380600e+00 8.441276e+00 
4.414730e+00 8.330080e+00 
4.450350e+00 8.215615e+00 
4.485320e+00 8.105526e+00 
4.519810e+00 7.998732e+00 
4.555430e+00 7.890470e+00 
4.590870e+00 7.784669e+00 
4.625480e+00 7.682862e+00 
4.659910e+00 7.583538e+00 
4.695230e+00 7.483162e+00 
4.729960e+00 7.386299e+00 
4.764450e+00 7.291786e+00 
4.799530e+00 7.197236e+00 
4.834910e+00 7.103695e+00 
4.869700e+00 7.012911e+00 
4.904370e+00 6.924033e+00 
4.939450e+00 6.835677e+00 
4.973940e+00 6.750160e+00 
5.008430e+00 6.666194e+00 
5.043810e+00 6.581366e+00 
5.078840e+00 6.498759e+00 
5.113500e+00 6.418496e+00 
5.148890e+00 6.337696e+00 
5.184210e+00 6.258498e+00 
5.219060e+00 6.181671e+00 
5.253660e+00 6.106519e+00 
5.288570e+00 6.032018e+00 
5.323420e+00 5.958773e+00 
5.358440e+00 5.886262e+00 
5.393590e+00 5.814744e+00 
5.428310e+00 5.745233e+00 
5.462800e+00 5.677308e+00 
5.497640e+00 5.609849e+00 
5.532670e+00 5.542970e+00 
5.567280e+00 5.477936e+00 
5.602000e+00 5.413777e+00 
5.637270e+00 5.349549e+00 
5.672410e+00 5.286594e+00 
5.707020e+00 5.225606e+00 
5.742040e+00 5.164795e+00 
5.777430e+00 5.104329e+00 
5.812210e+00 5.045871e+00 
5.846820e+00 4.988527e+00 
5.881610e+00 4.931776e+00 
5.916510e+00 4.875752e+00 
5.951600e+00 4.820269e+00 
5.986560e+00 4.765844e+00 
6.021830e+00 4.711804e+00 
6.056490e+00 4.659473e+00 
6.091160e+00 4.607889e+00 
6.125830e+00 4.557097e+00 
6.161090e+00 4.506222e+00 
6.195760e+00 4.456936e+00 
6.230420e+00 4.408410e+00 
6.265690e+00 4.359779e+00 
6.300950e+00 4.311907e+00 
6.335620e+00 4.265543e+00 
6.370880e+00 4.219096e+00 
6.405550e+00 4.174079e+00 
6.440220e+00 4.129712e+00 
6.475480e+00 4.085256e+00 
6.510150e+00 4.042192e+00 
6.544810e+00 3.999778e+00 
6.580080e+00 3.957246e+00 
6.614750e+00 3.916043e+00 
6.649410e+00 3.875431e+00 
6.684080e+00 3.835383e+00 
6.719340e+00 3.795236e+00 
6.754010e+00 3.756337e+00 
6.788680e+00 3.718020e+00 
6.823940e+00 3.679600e+00 
6.859800e+00 3.641082e+00 
6.894470e+00 3.604417e+00 
6.929140e+00 3.568274e+00 
6.963800e+00 3.532636e+00 
6.999070e+00 3.496872e+00 
7.033730e+00 3.462241e+00 
7.068400e+00 3.428069e+00 
7.103660e+00 3.393787e+00 
7.138330e+00 3.360546e+00 
7.173600e+00 3.327211e+00 
7.208260e+00 3.294891e+00 
7.243530e+00 3.262441e+00 
7.277600e+00 3.231556e+00 
7.312860e+00 3.200055e+00 
7.348120e+00 3.168971e+00 
7.382790e+00 3.138808e+00 
7.417460e+00 3.109068e+00 
7.452720e+00 3.079231e+00 
7.487390e+00 3.050272e+00 
7.522650e+00 3.021200e+00 
7.557320e+00 2.993038e+00 
7.591990e+00 2.965254e+00 
7.627250e+00 2.937356e+00 
7.662510e+00 2.909813e+00 
7.697180e+00 2.883148e+00 
7.731850e+00 2.856843e+00 
7.766510e+00 2.830871e+00 
7.801180e+00 2.805211e+00 
7.836440e+00 2.779492e+00 
7.871110e+00 2.754548e+00 
7.906380e+00 2.729483e+00 
7.941040e+00 2.705153e+00 
7.976310e+00 2.680732e+00 
8.011570e+00 2.656661e+00 
8.046240e+00 2.633278e+00 
8.080900e+00 2.610180e+00 
8.115570e+00 2.587370e+00 
8.150830e+00 2.564525e+00 
8.185500e+00 2.542328e+00 
8.220770e+00 2.520013e+00 
8.255430e+00 2.498343e+00 
8.290100e+00 2.477006e+00 
8.324770e+00 2.455926e+00 
8.359430e+00 2.435095e+00 
8.394700e+00 2.414143e+00 
8.429960e+00 2.393484e+00 
8.464630e+00 2.373448e+00 
8.499890e+00 2.353304e+00 
8.534560e+00 2.333723e+00 
8.569200e+00 2.314379e+00 
