# Parameters:
# omega_b = 0.021783, omega_m = 0.150039, n_s = 0.875197, h = 58.543307, w = -1.000000, sigma_8 = 0.767717
# z = 1.900000
#
# k[1/Mpc] # P(k):
8.694000e-04 3.565446e+03 
2.077466e-03 7.087628e+03 
3.285532e-03 9.697744e+03 
4.493598e-03 1.164172e+04 
5.701664e-03 1.305275e+04 
6.909730e-03 1.402983e+04 
8.117797e-03 1.467265e+04 
9.325863e-03 1.503369e+04 
1.053393e-02 1.516423e+04 
1.174199e-02 1.511155e+04 
1.295006e-02 1.490385e+04 
1.415813e-02 1.457790e+04 
1.536619e-02 1.416546e+04 
1.657426e-02 1.368709e+04 
1.778233e-02 1.316053e+04 
1.899039e-02 1.261306e+04 
2.019846e-02 1.205934e+04 
2.140652e-02 1.151245e+04 
2.261459e-02 1.097895e+04 
2.382266e-02 1.046792e+04 
2.503072e-02 9.986362e+03 
2.623879e-02 9.537105e+03 
2.744685e-02 9.120966e+03 
2.865492e-02 8.739761e+03 
2.986299e-02 8.392240e+03 
3.100100e-02 8.095245e+03 
3.220400e-02 7.811107e+03 
3.288100e-02 7.664359e+03 
3.424300e-02 7.394304e+03 
3.555100e-02 7.162531e+03 
3.686000e-02 6.954064e+03 
3.795000e-02 6.795217e+03 
3.929100e-02 6.615307e+03 
4.039800e-02 6.476077e+03 
4.164000e-02 6.327379e+03 
4.294400e-02 6.175302e+03 
4.415000e-02 6.037831e+03 
4.542900e-02 5.890506e+03 
4.660900e-02 5.754676e+03 
4.782300e-02 5.609476e+03 
4.892900e-02 5.475632e+03 
5.031200e-02 5.304130e+03 
5.155900e-02 5.145141e+03 
5.238100e-02 5.038935e+03 
5.378200e-02 4.856620e+03 
5.513400e-02 4.680080e+03 
5.627600e-02 4.532410e+03 
5.735300e-02 4.396236e+03 
5.870100e-02 4.231817e+03 
5.988700e-02 4.094300e+03 
6.113500e-02 3.956916e+03 
6.225900e-02 3.839474e+03 
6.340100e-02 3.725669e+03 
6.480200e-02 3.592697e+03 
6.601100e-02 3.483403e+03 
6.725500e-02 3.376211e+03 
6.829100e-02 3.291516e+03 
6.958600e-02 3.191446e+03 
7.071100e-02 3.110545e+03 
7.192300e-02 3.029582e+03 
7.307400e-02 2.958644e+03 
7.412300e-02 2.898850e+03 
7.550400e-02 2.827264e+03 
7.663100e-02 2.773684e+03 
7.791200e-02 2.718563e+03 
7.912700e-02 2.670854e+03 
8.027600e-02 2.628803e+03 
8.138400e-02 2.590501e+03 
8.272200e-02 2.546634e+03 
8.406100e-02 2.504480e+03 
8.534100e-02 2.464895e+03 
8.653800e-02 2.427709e+03 
8.759800e-02 2.394556e+03 
8.900300e-02 2.349810e+03 
9.009000e-02 2.314136e+03 
9.113300e-02 2.278616e+03 
9.239600e-02 2.234868e+03 
9.358000e-02 2.192589e+03 
9.496100e-02 2.141358e+03 
9.608400e-02 2.099193e+03 
9.727500e-02 2.054390e+03 
9.852600e-02 2.005849e+03 
9.973800e-02 1.959374e+03 
1.009000e-01 1.915415e+03 
1.020900e-01 1.870452e+03 
1.034000e-01 1.822310e+03 
1.046000e-01 1.779405e+03 
1.057200e-01 1.740679e+03 
1.069100e-01 1.700907e+03 
1.082500e-01 1.658181e+03 
1.093900e-01 1.623684e+03 
1.105400e-01 1.590285e+03 
1.116900e-01 1.559128e+03 
1.129600e-01 1.526235e+03 
1.142000e-01 1.496576e+03 
1.153300e-01 1.471010e+03 
1.166400e-01 1.443305e+03 
1.177800e-01 1.421021e+03 
1.190000e-01 1.398322e+03 
1.201200e-01 1.379282e+03 
1.213400e-01 1.359269e+03 
1.227100e-01 1.338872e+03 
1.238900e-01 1.321963e+03 
1.250700e-01 1.306090e+03 
1.263200e-01 1.289767e+03 
1.275500e-01 1.274302e+03 
1.287500e-01 1.259455e+03 
1.299900e-01 1.244298e+03 
1.311300e-01 1.230328e+03 
1.323500e-01 1.215187e+03 
1.335900e-01 1.199588e+03 
1.347100e-01 1.185069e+03 
1.359800e-01 1.168412e+03 
1.372100e-01 1.151541e+03 
1.384300e-01 1.134730e+03 
1.395700e-01 1.118280e+03 
1.407700e-01 1.101214e+03 
1.420300e-01 1.082395e+03 
1.432800e-01 1.064167e+03 
1.444500e-01 1.046591e+03 
1.456300e-01 1.029261e+03 
1.468900e-01 1.010954e+03 
1.480500e-01 9.944162e+02 
1.491700e-01 9.788788e+02 
1.503800e-01 9.625681e+02 
1.516400e-01 9.460973e+02 
1.528200e-01 9.315704e+02 
1.540200e-01 9.171102e+02 
1.551900e-01 9.040184e+02 
1.564300e-01 8.906021e+02 
1.576600e-01 8.779945e+02 
1.588700e-01 8.663496e+02 
1.600900e-01 8.548808e+02 
1.612700e-01 8.447553e+02 
1.625400e-01 8.340664e+02 
1.637600e-01 8.243177e+02 
1.649500e-01 8.151713e+02 
1.662200e-01 8.056228e+02 
1.674000e-01 7.970895e+02 
1.685000e-01 7.892690e+02 
1.697500e-01 7.804954e+02 
1.710300e-01 7.716371e+02 
1.722200e-01 7.635494e+02 
1.734400e-01 7.551210e+02 
1.746400e-01 7.469639e+02 
1.758700e-01 7.386232e+02 
1.770900e-01 7.302400e+02 
1.782700e-01 7.222710e+02 
1.794600e-01 7.141403e+02 
1.807000e-01 7.056604e+02 
1.819100e-01 6.975302e+02 
1.830100e-01 6.900272e+02 
1.842200e-01 6.818696e+02 
1.855000e-01 6.733849e+02 
1.867000e-01 6.653935e+02 
1.879200e-01 6.574079e+02 
1.890900e-01 6.498690e+02 
1.902800e-01 6.422799e+02 
1.915200e-01 6.345058e+02 
1.926900e-01 6.273056e+02 
1.939000e-01 6.200221e+02 
1.951700e-01 6.125068e+02 
1.963100e-01 6.059044e+02 
1.975100e-01 5.991526e+02 
1.987800e-01 5.921245e+02 
2.000100e-01 5.854792e+02 
2.012500e-01 5.790012e+02 
2.023400e-01 5.733931e+02 
2.036100e-01 5.669912e+02 
2.048900e-01 5.607717e+02 
2.060400e-01 5.552697e+02 
2.072200e-01 5.497167e+02 
2.084200e-01 5.442715e+02 
2.096900e-01 5.385967e+02 
2.109200e-01 5.331849e+02 
2.121100e-01 5.281052e+02 
2.132700e-01 5.232280e+02 
2.145200e-01 5.180484e+02 
2.157200e-01 5.131720e+02 
2.168800e-01 5.085349e+02 
2.180700e-01 5.038438e+02 
2.193400e-01 4.989087e+02 
2.206000e-01 4.940831e+02 
2.217500e-01 4.897404e+02 
2.229500e-01 4.852705e+02 
2.241400e-01 4.808651e+02 
2.253500e-01 4.764465e+02 
2.264900e-01 4.723393e+02 
2.277100e-01 4.679810e+02 
2.289900e-01 4.634488e+02 
2.301500e-01 4.593981e+02 
2.313600e-01 4.552285e+02 
2.325600e-01 4.511003e+02 
2.337700e-01 4.469937e+02 
2.350000e-01 4.428757e+02 
2.362000e-01 4.388950e+02 
2.374100e-01 4.349141e+02 
2.386500e-01 4.308894e+02 
2.399100e-01 4.268556e+02 
2.410400e-01 4.232685e+02 
2.422500e-01 4.194740e+02 
2.435000e-01 4.156062e+02 
2.447300e-01 4.118500e+02 
2.458700e-01 4.084086e+02 
2.470600e-01 4.048610e+02 
2.483300e-01 4.011242e+02 
2.495600e-01 3.975584e+02 
2.507600e-01 3.941315e+02 
2.519600e-01 3.907476e+02 
2.532200e-01 3.872399e+02 
2.543700e-01 3.840931e+02 
2.555500e-01 3.809129e+02 
2.568000e-01 3.775858e+02 
2.580100e-01 3.744056e+02 
2.592400e-01 3.712309e+02 
2.604100e-01 3.682555e+02 
2.616100e-01 3.652400e+02 
2.628400e-01 3.621867e+02 
2.640600e-01 3.592181e+02 
2.652200e-01 3.564378e+02 
2.664300e-01 3.535713e+02 
2.676500e-01 3.507155e+02 
2.688400e-01 3.479783e+02 
2.700700e-01 3.451919e+02 
2.712400e-01 3.425720e+02 
2.724800e-01 3.398274e+02 
2.736700e-01 3.372341e+02 
2.748800e-01 3.346374e+02 
2.761000e-01 3.320493e+02 
2.773200e-01 3.294909e+02 
2.785400e-01 3.269660e+02 
2.797000e-01 3.246013e+02 
2.808900e-01 3.222018e+02 
2.821400e-01 3.197096e+02 
2.833900e-01 3.172463e+02 
2.845500e-01 3.149907e+02 
2.857800e-01 3.126250e+02 
2.870300e-01 3.102479e+02 
2.882100e-01 3.080285e+02 
2.893900e-01 3.058348e+02 
2.906300e-01 3.035557e+02 
2.918900e-01 3.012657e+02 
2.930500e-01 2.991801e+02 
2.942500e-01 2.970445e+02 
2.954200e-01 2.949825e+02 
2.966500e-01 2.928375e+02 
2.978900e-01 2.906984e+02 
2.990400e-01 2.887353e+02 
3.002700e-01 2.866553e+02 
3.015100e-01 2.845798e+02 
3.026800e-01 2.826418e+02 
3.038500e-01 2.807233e+02 
3.050300e-01 2.788078e+02 
3.062600e-01 2.768258e+02 
3.075000e-01 2.748486e+02 
3.087000e-01 2.729550e+02 
3.099100e-01 2.710651e+02 
3.111200e-01 2.691929e+02 
3.123100e-01 2.673677e+02 
3.135300e-01 2.655153e+02 
3.147300e-01 2.637116e+02 
3.159900e-01 2.618371e+02 
3.171800e-01 2.600837e+02 
3.183700e-01 2.583470e+02 
3.196300e-01 2.565265e+02 
3.208400e-01 2.547959e+02 
3.220300e-01 2.531106e+02 
3.232000e-01 2.514694e+02 
3.244300e-01 2.497606e+02 
3.256700e-01 2.480551e+02 
3.269200e-01 2.463530e+02 
3.280800e-01 2.447888e+02 
3.292500e-01 2.432279e+02 
3.304800e-01 2.416032e+02 
3.317100e-01 2.399945e+02 
3.328900e-01 2.384657e+02 
3.340700e-01 2.369512e+02 
3.353600e-01 2.353150e+02 
3.365300e-01 2.338466e+02 
3.377100e-01 2.323791e+02 
3.389200e-01 2.308883e+02 
3.401600e-01 2.293750e+02 
3.413700e-01 2.279173e+02 
3.425300e-01 2.265360e+02 
3.437700e-01 2.250731e+02 
3.449800e-01 2.236588e+02 
3.461800e-01 2.222691e+02 
3.473600e-01 2.209172e+02 
3.485800e-01 2.195382e+02 
3.498100e-01 2.181606e+02 
3.510200e-01 2.168178e+02 
3.522000e-01 2.155200e+02 
3.533900e-01 2.142227e+02 
3.546400e-01 2.128831e+02 
3.558400e-01 2.116092e+02 
3.570600e-01 2.103257e+02 
3.582700e-01 2.090640e+02 
3.595000e-01 2.077928e+02 
3.607100e-01 2.065598e+02 
3.618900e-01 2.053729e+02 
3.631200e-01 2.041464e+02 
3.643200e-01 2.029602e+02 
3.655500e-01 2.017549e+02 
3.667300e-01 2.006086e+02 
3.679500e-01 1.994456e+02 
3.691900e-01 1.982739e+02 
3.703600e-01 1.971777e+02 
3.715700e-01 1.960535e+02 
3.727700e-01 1.949479e+02 
3.739900e-01 1.938374e+02 
3.752000e-01 1.927525e+02 
3.763900e-01 1.916943e+02 
3.775800e-01 1.906448e+02 
3.788200e-01 1.895603e+02 
3.800300e-01 1.885110e+02 
3.812100e-01 1.875027e+02 
3.824200e-01 1.864818e+02 
3.836100e-01 1.854859e+02 
3.848600e-01 1.844484e+02 
3.860400e-01 1.834770e+02 
3.872400e-01 1.824969e+02 
3.884600e-01 1.815165e+02 
3.896500e-01 1.805709e+02 
3.908700e-01 1.796091e+02 
3.920600e-01 1.786784e+02 
3.933100e-01 1.777086e+02 
3.945300e-01 1.767698e+02 
3.957200e-01 1.758696e+02 
3.969300e-01 1.749638e+02 
3.981700e-01 1.740429e+02 
3.993500e-01 1.731734e+02 
4.094840e-01 1.660105e+02 
4.272360e-01 1.547268e+02 
4.454600e-01 1.444968e+02 
4.630560e-01 1.357001e+02 
4.804610e-01 1.278741e+02 
4.980690e-01 1.207112e+02 
5.159230e-01 1.141134e+02 
5.317440e-01 1.087562e+02 
5.489640e-01 1.033881e+02 
5.671990e-01 9.817407e+01 
5.838690e-01 9.377964e+01 
6.018840e-01 8.939504e+01 
6.202330e-01 8.527938e+01 
6.379250e-01 8.160577e+01 
6.545410e-01 7.840221e+01 
6.714560e-01 7.535874e+01 
6.892080e-01 7.238022e+01 
7.066010e-01 6.966078e+01 
7.240540e-01 6.710816e+01 
7.420450e-01 6.464961e+01 
7.593780e-01 6.243220e+01 
7.764720e-01 6.037628e+01 
7.942840e-01 5.836279e+01 
8.116170e-01 5.652008e+01 
8.288310e-01 5.479458e+01 
8.462240e-01 5.314753e+01 
8.631980e-01 5.162771e+01 
8.810700e-01 5.011359e+01 
8.989410e-01 4.868105e+01 
9.166330e-01 4.733669e+01 
9.345640e-01 4.604502e+01 
9.515980e-01 4.487823e+01 
9.688720e-01 4.375121e+01 
9.865640e-01 4.265246e+01 
1.031870e+00 4.006154e+01 
1.063490e+00 3.842482e+01 
1.097920e+00 3.678293e+01 
1.134370e+00 3.518248e+01 
1.167730e+00 3.382949e+01 
1.203830e+00 3.247271e+01 
1.240470e+00 3.119580e+01 
1.275790e+00 3.005141e+01 
1.309140e+00 2.904073e+01 
1.342970e+00 2.807776e+01 
1.378420e+00 2.713014e+01 
1.413200e+00 2.625634e+01 
1.448110e+00 2.542958e+01 
1.484090e+00 2.462524e+01 
1.518820e+00 2.389215e+01 
1.552880e+00 2.321018e+01 
1.588630e+00 2.253099e+01 
1.623230e+00 2.190635e+01 
1.657720e+00 2.131432e+01 
1.692450e+00 2.074575e+01 
1.726400e+00 2.021558e+01 
1.762200e+00 1.968123e+01 
1.797880e+00 1.917276e+01 
1.833270e+00 1.869060e+01 
1.869070e+00 1.822390e+01 
1.903200e+00 1.779710e+01 
1.937740e+00 1.738256e+01 
1.973190e+00 1.697374e+01 
2.007440e+00 1.659411e+01 
2.042160e+00 1.622356e+01 
2.077900e+00 1.585643e+01 
2.112390e+00 1.551554e+01 
2.146220e+00 1.519247e+01 
2.181600e+00 1.486654e+01 
2.216930e+00 1.455221e+01 
2.250760e+00 1.426142e+01 
2.286500e+00 1.396464e+01 
2.321770e+00 1.368160e+01 
2.355950e+00 1.341577e+01 
2.391280e+00 1.314977e+01 
2.426240e+00 1.289466e+01 
2.460670e+00 1.265120e+01 
2.495640e+00 1.241168e+01 
2.531080e+00 1.217583e+01 
2.566220e+00 1.194883e+01 
2.600830e+00 1.173178e+01 
2.635080e+00 1.152315e+01 
2.670340e+00 1.131427e+01 
2.705970e+00 1.110905e+01 
2.740040e+00 1.091825e+01 
2.774520e+00 1.073016e+01 
2.809730e+00 1.054306e+01 
2.844390e+00 1.036389e+01 
2.879960e+00 1.018484e+01 
2.914860e+00 1.001348e+01 
2.949410e+00 9.848245e+00 
2.984440e+00 9.684670e+00 
3.019760e+00 9.523925e+00 
3.054730e+00 9.368925e+00 
3.089030e+00 9.220004e+00 
3.124060e+00 9.071737e+00 
3.159560e+00 8.925114e+00 
3.194710e+00 8.783182e+00 
3.229010e+00 8.648086e+00 
3.263320e+00 8.515499e+00 
3.297930e+00 8.384971e+00 
3.332830e+00 8.256239e+00 
3.368040e+00 8.129198e+00 
3.403300e+00 8.004869e+00 
3.438450e+00 7.883454e+00 
3.473060e+00 7.766747e+00 
3.508440e+00 7.649513e+00 
3.543110e+00 7.537346e+00 
3.577470e+00 7.428236e+00 
3.613040e+00 7.317805e+00 
3.648120e+00 7.210936e+00 
3.682910e+00 7.107256e+00 
3.718050e+00 7.004593e+00 
3.753320e+00 6.903647e+00 
3.787980e+00 6.806264e+00 
3.822290e+00 6.711817e+00 
3.857020e+00 6.618008e+00 
3.891920e+00 6.525642e+00 
3.926650e+00 6.435376e+00 
3.961970e+00 6.345426e+00 
3.997360e+00 6.256829e+00 
4.031670e+00 6.172711e+00 
4.066330e+00 6.089127e+00 
4.101420e+00 6.006303e+00 
4.136200e+00 5.925374e+00 
4.170810e+00 5.846539e+00 
4.206250e+00 5.767088e+00 
4.241580e+00 5.689483e+00 
4.276300e+00 5.614496e+00 
4.310970e+00 5.540980e+00 
4.346120e+00 5.467786e+00 
4.380600e+00 5.397135e+00 
4.414730e+00 5.328576e+00 
4.450350e+00 5.258011e+00 
4.485320e+00 5.190128e+00 
4.519810e+00 5.124221e+00 
4.555430e+00 5.057375e+00 
4.590870e+00 4.992044e+00 
4.625480e+00 4.929188e+00 
4.659910e+00 4.867851e+00 
4.695230e+00 4.805819e+00 
4.729960e+00 4.745941e+00 
4.764450e+00 4.687481e+00 
4.799530e+00 4.628954e+00 
4.834910e+00 4.571036e+00 
4.869700e+00 4.514823e+00 
4.904370e+00 4.459779e+00 
4.939450e+00 4.405030e+00 
4.973940e+00 4.351991e+00 
5.008430e+00 4.299900e+00 
5.043810e+00 4.247251e+00 
5.078840e+00 4.195959e+00 
5.113500e+00 4.146110e+00 
5.148890e+00 4.095865e+00 
5.184210e+00 4.046600e+00 
5.219060e+00 3.998793e+00 
5.253660e+00 3.952003e+00 
5.288570e+00 3.905606e+00 
5.323420e+00 3.859973e+00 
5.358440e+00 3.814779e+00 
5.393590e+00 3.770192e+00 
5.428310e+00 3.726797e+00 
5.462800e+00 3.684358e+00 
5.497640e+00 3.642199e+00 
5.532670e+00 3.600374e+00 
5.567280e+00 3.559687e+00 
5.602000e+00 3.519537e+00 
5.637270e+00 3.479309e+00 
5.672410e+00 3.439862e+00 
5.707020e+00 3.401638e+00 
5.742040e+00 3.363483e+00 
5.777430e+00 3.325527e+00 
5.812210e+00 3.288823e+00 
5.846820e+00 3.252784e+00 
5.881610e+00 3.217102e+00 
5.916510e+00 3.181868e+00 
5.951600e+00 3.146945e+00 
5.986560e+00 3.112670e+00 
6.021830e+00 3.078629e+00 
6.056490e+00 3.045639e+00 
6.091160e+00 3.013096e+00 
6.125830e+00 2.981045e+00 
6.161090e+00 2.948928e+00 
6.195760e+00 2.917792e+00 
6.230420e+00 2.887129e+00 
6.265690e+00 2.856391e+00 
6.300950e+00 2.826079e+00 
6.335620e+00 2.796716e+00 
6.370880e+00 2.767294e+00 
6.405550e+00 2.738757e+00 
6.440220e+00 2.710621e+00 
6.475480e+00 2.682422e+00 
6.510150e+00 2.655094e+00 
6.544810e+00 2.628158e+00 
6.580080e+00 2.601141e+00 
6.614750e+00 2.574963e+00 
6.649410e+00 2.549139e+00 
6.684080e+00 2.523666e+00 
6.719340e+00 2.498124e+00 
6.754010e+00 2.473360e+00 
6.788680e+00 2.448940e+00 
6.823940e+00 2.424449e+00 
6.859800e+00 2.399890e+00 
6.894470e+00 2.376488e+00 
6.929140e+00 2.353408e+00 
6.963800e+00 2.330647e+00 
6.999070e+00 2.307799e+00 
7.033730e+00 2.285661e+00 
7.068400e+00 2.263811e+00 
7.103660e+00 2.241886e+00 
7.138330e+00 2.220619e+00 
7.173600e+00 2.199279e+00 
7.208260e+00 2.178584e+00 
7.243530e+00 2.157802e+00 
7.277600e+00 2.138009e+00 
7.312860e+00 2.117808e+00 
7.348120e+00 2.097871e+00 
7.382790e+00 2.078521e+00 
7.417460e+00 2.059432e+00 
7.452720e+00 2.040272e+00 
7.487390e+00 2.021674e+00 
7.522650e+00 2.002999e+00 
7.557320e+00 1.984902e+00 
7.591990e+00 1.967043e+00 
7.627250e+00 1.949107e+00 
7.662510e+00 1.931397e+00 
7.697180e+00 1.914236e+00 
7.731850e+00 1.897300e+00 
7.766510e+00 1.880575e+00 
7.801180e+00 1.864048e+00 
7.836440e+00 1.847474e+00 
7.871110e+00 1.831392e+00 
7.906380e+00 1.815229e+00 
7.941040e+00 1.799538e+00 
7.976310e+00 1.783783e+00 
8.011570e+00 1.768247e+00 
8.046240e+00 1.753154e+00 
8.080900e+00 1.738241e+00 
8.115570e+00 1.723512e+00 
8.150830e+00 1.708756e+00 
8.185500e+00 1.694417e+00 
8.220770e+00 1.679999e+00 
8.255430e+00 1.665995e+00 
8.290100e+00 1.652195e+00 
8.324770e+00 1.638557e+00 
8.359430e+00 1.625078e+00 
8.394700e+00 1.611518e+00 
8.429960e+00 1.598146e+00 
8.464630e+00 1.585175e+00 
8.499890e+00 1.572132e+00 
8.534560e+00 1.559451e+00 
8.569200e+00 1.546921e+00 
