# Parameters:
# omega_b = 0.022413, omega_m = 0.131575, n_s = 0.958661, h = 72.952756, w = -1.000000, sigma_8 = 0.700000
# z = 1.900000
#
# k[1/Mpc] # P(k):
8.694000e-04 2.787875e+03 
2.077466e-03 5.882337e+03 
3.285532e-03 8.241540e+03 
4.493598e-03 1.001070e+04 
5.701664e-03 1.128530e+04 
6.909730e-03 1.215346e+04 
8.117797e-03 1.270916e+04 
9.325863e-03 1.300118e+04 
1.053393e-02 1.307686e+04 
1.174199e-02 1.297927e+04 
1.295006e-02 1.273622e+04 
1.415813e-02 1.238408e+04 
1.536619e-02 1.195340e+04 
1.657426e-02 1.146504e+04 
1.778233e-02 1.093808e+04 
1.899039e-02 1.039980e+04 
2.019846e-02 9.864794e+03 
2.140652e-02 9.345457e+03 
2.261459e-02 8.848643e+03 
2.382266e-02 8.382304e+03 
2.503072e-02 7.951538e+03 
2.623879e-02 7.557761e+03 
2.744685e-02 7.201543e+03 
2.865492e-02 6.882305e+03 
2.986299e-02 6.597629e+03 
3.100100e-02 6.360217e+03 
3.220400e-02 6.138320e+03 
3.288100e-02 6.026205e+03 
3.424300e-02 5.823924e+03 
3.555100e-02 5.654249e+03 
3.686000e-02 5.504682e+03 
3.795000e-02 5.392133e+03 
3.929100e-02 5.265393e+03 
4.039800e-02 5.166684e+03 
4.164000e-02 5.059869e+03 
4.294400e-02 4.947088e+03 
4.415000e-02 4.842326e+03 
4.542900e-02 4.725316e+03 
4.660900e-02 4.614383e+03 
4.782300e-02 4.491325e+03 
4.892900e-02 4.375584e+03 
5.031200e-02 4.224247e+03 
5.155900e-02 4.081876e+03 
5.238100e-02 3.986119e+03 
5.378200e-02 3.820982e+03 
5.513400e-02 3.660434e+03 
5.627600e-02 3.525655e+03 
5.735300e-02 3.400802e+03 
5.870100e-02 3.248975e+03 
5.988700e-02 3.121073e+03 
6.113500e-02 2.993075e+03 
6.225900e-02 2.884631e+03 
6.340100e-02 2.781880e+03 
6.480200e-02 2.665961e+03 
6.601100e-02 2.576202e+03 
6.725500e-02 2.493356e+03 
6.829100e-02 2.432204e+03 
6.958600e-02 2.363515e+03 
7.071100e-02 2.311273e+03 
7.192300e-02 2.261417e+03 
7.307400e-02 2.219537e+03 
7.412300e-02 2.185337e+03 
7.550400e-02 2.145541e+03 
7.663100e-02 2.116111e+03 
7.791200e-02 2.085703e+03 
7.912700e-02 2.058500e+03 
8.027600e-02 2.033417e+03 
8.138400e-02 2.009372e+03 
8.272200e-02 1.979872e+03 
8.406100e-02 1.949232e+03 
8.534100e-02 1.917784e+03 
8.653800e-02 1.886188e+03 
8.759800e-02 1.856908e+03 
8.900300e-02 1.815882e+03 
9.009000e-02 1.782210e+03 
9.113300e-02 1.748188e+03 
9.239600e-02 1.706057e+03 
9.358000e-02 1.665278e+03 
9.496100e-02 1.616224e+03 
9.608400e-02 1.576286e+03 
9.727500e-02 1.534260e+03 
9.852600e-02 1.489964e+03 
9.973800e-02 1.448343e+03 
1.009000e-01 1.409625e+03 
1.020900e-01 1.371789e+03 
1.034000e-01 1.332254e+03 
1.046000e-01 1.298019e+03 
1.057200e-01 1.268909e+03 
1.069100e-01 1.239684e+03 
1.082500e-01 1.210231e+03 
1.093900e-01 1.187644e+03 
1.105400e-01 1.166463e+03 
1.116900e-01 1.148231e+03 
1.129600e-01 1.129441e+03 
1.142000e-01 1.113621e+03 
1.153300e-01 1.100232e+03 
1.166400e-01 1.086138e+03 
1.177800e-01 1.074770e+03 
1.190000e-01 1.063174e+03 
1.201200e-01 1.052757e+03 
1.213400e-01 1.041675e+03 
1.227100e-01 1.028669e+03 
1.238900e-01 1.017444e+03 
1.250700e-01 1.005437e+03 
1.263200e-01 9.924941e+02 
1.275500e-01 9.789014e+02 
1.287500e-01 9.652888e+02 
1.299900e-01 9.505069e+02 
1.311300e-01 9.366254e+02 
1.323500e-01 9.212030e+02 
1.335900e-01 9.054001e+02 
1.347100e-01 8.907931e+02 
1.359800e-01 8.743293e+02 
1.372100e-01 8.581927e+02 
1.384300e-01 8.424596e+02 
1.395700e-01 8.278155e+02 
1.407700e-01 8.127586e+02 
1.420300e-01 7.972891e+02 
1.432800e-01 7.823245e+02 
1.444500e-01 7.689537e+02 
1.456300e-01 7.557754e+02 
1.468900e-01 7.425126e+02 
1.480500e-01 7.307213e+02 
1.491700e-01 7.199046e+02 
1.503800e-01 7.088827e+02 
1.516400e-01 6.978177e+02 
1.528200e-01 6.883795e+02 
1.540200e-01 6.789746e+02 
1.551900e-01 6.706068e+02 
1.564300e-01 6.620628e+02 
1.576600e-01 6.540260e+02 
1.588700e-01 6.465971e+02 
1.600900e-01 6.392652e+02 
1.612700e-01 6.326125e+02 
1.625400e-01 6.255858e+02 
1.637600e-01 6.189670e+02 
1.649500e-01 6.126300e+02 
1.662200e-01 6.059503e+02 
1.674000e-01 5.996309e+02 
1.685000e-01 5.938392e+02 
1.697500e-01 5.871387e+02 
1.710300e-01 5.801734e+02 
1.722200e-01 5.738152e+02 
1.734400e-01 5.668915e+02 
1.746400e-01 5.601817e+02 
1.758700e-01 5.532753e+02 
1.770900e-01 5.462402e+02 
1.782700e-01 5.395574e+02 
1.794600e-01 5.327416e+02 
1.807000e-01 5.256373e+02 
1.819100e-01 5.188316e+02 
1.830100e-01 5.126503e+02 
1.842200e-01 5.059503e+02 
1.855000e-01 4.989952e+02 
1.867000e-01 4.926375e+02 
1.879200e-01 4.862878e+02 
1.890900e-01 4.803314e+02 
1.902800e-01 4.745191e+02 
1.915200e-01 4.685667e+02 
1.926900e-01 4.631013e+02 
1.939000e-01 4.577244e+02 
1.951700e-01 4.521763e+02 
1.963100e-01 4.473405e+02 
1.975100e-01 4.424979e+02 
1.987800e-01 4.374562e+02 
2.000100e-01 4.327099e+02 
2.012500e-01 4.281326e+02 
2.023400e-01 4.241689e+02 
2.036100e-01 4.196429e+02 
2.048900e-01 4.152432e+02 
2.060400e-01 4.113502e+02 
2.072200e-01 4.074157e+02 
2.084200e-01 4.035014e+02 
2.096900e-01 3.994214e+02 
2.109200e-01 3.955299e+02 
2.121100e-01 3.917904e+02 
2.132700e-01 3.881953e+02 
2.145200e-01 3.843772e+02 
2.157200e-01 3.807192e+02 
2.168800e-01 3.772115e+02 
2.180700e-01 3.736634e+02 
2.193400e-01 3.699043e+02 
2.206000e-01 3.661796e+02 
2.217500e-01 3.628284e+02 
2.229500e-01 3.593796e+02 
2.241400e-01 3.559404e+02 
2.253500e-01 3.524907e+02 
2.264900e-01 3.492850e+02 
2.277100e-01 3.458815e+02 
2.289900e-01 3.423403e+02 
2.301500e-01 3.391761e+02 
2.313600e-01 3.359202e+02 
2.325600e-01 3.327185e+02 
2.337700e-01 3.295344e+02 
2.350000e-01 3.263423e+02 
2.362000e-01 3.232748e+02 
2.374100e-01 3.202285e+02 
2.386500e-01 3.171491e+02 
2.399100e-01 3.140635e+02 
2.410400e-01 3.113563e+02 
2.422500e-01 3.084976e+02 
2.435000e-01 3.055839e+02 
2.447300e-01 3.027618e+02 
2.458700e-01 3.002054e+02 
2.470600e-01 2.975701e+02 
2.483300e-01 2.947945e+02 
2.495600e-01 2.921572e+02 
2.507600e-01 2.896379e+02 
2.519600e-01 2.871502e+02 
2.532200e-01 2.845716e+02 
2.543700e-01 2.822656e+02 
2.555500e-01 2.799403e+02 
2.568000e-01 2.775076e+02 
2.580100e-01 2.751821e+02 
2.592400e-01 2.728613e+02 
2.604100e-01 2.706864e+02 
2.616100e-01 2.684821e+02 
2.628400e-01 2.662501e+02 
2.640600e-01 2.640738e+02 
2.652200e-01 2.620331e+02 
2.664300e-01 2.599292e+02 
2.676500e-01 2.578330e+02 
2.688400e-01 2.558155e+02 
2.700700e-01 2.537566e+02 
2.712400e-01 2.518207e+02 
2.724800e-01 2.497928e+02 
2.736700e-01 2.478690e+02 
2.748800e-01 2.459350e+02 
2.761000e-01 2.440075e+02 
2.773200e-01 2.421021e+02 
2.785400e-01 2.402175e+02 
2.797000e-01 2.384430e+02 
2.808900e-01 2.366425e+02 
2.821400e-01 2.347728e+02 
2.833900e-01 2.329243e+02 
2.845500e-01 2.312213e+02 
2.857800e-01 2.294354e+02 
2.870300e-01 2.276410e+02 
2.882100e-01 2.259659e+02 
2.893900e-01 2.243054e+02 
2.906300e-01 2.225779e+02 
2.918900e-01 2.208422e+02 
2.930500e-01 2.192617e+02 
2.942500e-01 2.176428e+02 
2.954200e-01 2.160770e+02 
2.966500e-01 2.144485e+02 
2.978900e-01 2.128248e+02 
2.990400e-01 2.113348e+02 
3.002700e-01 2.097562e+02 
3.015100e-01 2.081814e+02 
3.026800e-01 2.067110e+02 
3.038500e-01 2.052557e+02 
3.050300e-01 2.038028e+02 
3.062600e-01 2.023021e+02 
3.075000e-01 2.008053e+02 
3.087000e-01 1.993720e+02 
3.099100e-01 1.979416e+02 
3.111200e-01 1.965264e+02 
3.123100e-01 1.951497e+02 
3.135300e-01 1.937527e+02 
3.147300e-01 1.923926e+02 
3.159900e-01 1.909792e+02 
3.171800e-01 1.896604e+02 
3.183700e-01 1.883561e+02 
3.196300e-01 1.869892e+02 
3.208400e-01 1.856900e+02 
3.220300e-01 1.844249e+02 
3.232000e-01 1.831965e+02 
3.244300e-01 1.819191e+02 
3.256700e-01 1.806443e+02 
3.269200e-01 1.793722e+02 
3.280800e-01 1.782032e+02 
3.292500e-01 1.770401e+02 
3.304800e-01 1.758307e+02 
3.317100e-01 1.746332e+02 
3.328900e-01 1.734955e+02 
3.340700e-01 1.723683e+02 
3.353600e-01 1.711533e+02 
3.365300e-01 1.700639e+02 
3.377100e-01 1.689752e+02 
3.389200e-01 1.678694e+02 
3.401600e-01 1.667469e+02 
3.413700e-01 1.656672e+02 
3.425300e-01 1.646451e+02 
3.437700e-01 1.635626e+02 
3.449800e-01 1.625162e+02 
3.461800e-01 1.614880e+02 
3.473600e-01 1.604883e+02 
3.485800e-01 1.594692e+02 
3.498100e-01 1.584512e+02 
3.510200e-01 1.574590e+02 
3.522000e-01 1.565000e+02 
3.533900e-01 1.555415e+02 
3.546400e-01 1.545517e+02 
3.558400e-01 1.536105e+02 
3.570600e-01 1.526621e+02 
3.582700e-01 1.517299e+02 
3.595000e-01 1.507908e+02 
3.607100e-01 1.498793e+02 
3.618900e-01 1.490013e+02 
3.631200e-01 1.480941e+02 
3.643200e-01 1.472168e+02 
3.655500e-01 1.463254e+02 
3.667300e-01 1.454777e+02 
3.679500e-01 1.446157e+02 
3.691900e-01 1.437472e+02 
3.703600e-01 1.429348e+02 
3.715700e-01 1.421016e+02 
3.727700e-01 1.412824e+02 
3.739900e-01 1.404585e+02 
3.752000e-01 1.396520e+02 
3.763900e-01 1.388655e+02 
3.775800e-01 1.380855e+02 
3.788200e-01 1.372795e+02 
3.800300e-01 1.364997e+02 
3.812100e-01 1.357487e+02 
3.824200e-01 1.349870e+02 
3.836100e-01 1.342441e+02 
3.848600e-01 1.334702e+02 
3.860400e-01 1.327457e+02 
3.872400e-01 1.320148e+02 
3.884600e-01 1.312814e+02 
3.896500e-01 1.305732e+02 
3.908700e-01 1.298530e+02 
3.920600e-01 1.291561e+02 
3.933100e-01 1.284300e+02 
3.945300e-01 1.277271e+02 
3.957200e-01 1.270504e+02 
3.969300e-01 1.263687e+02 
3.981700e-01 1.256758e+02 
3.993500e-01 1.250215e+02 
4.094840e-01 1.196239e+02 
4.272360e-01 1.110552e+02 
4.454600e-01 1.032528e+02 
4.630560e-01 9.653292e+01 
4.804610e-01 9.056310e+01 
4.980690e-01 8.511916e+01 
5.159230e-01 8.013130e+01 
5.317440e-01 7.610430e+01 
5.489640e-01 7.209525e+01 
5.671990e-01 6.822623e+01 
5.838690e-01 6.498460e+01 
6.018840e-01 6.176607e+01 
6.202330e-01 5.876052e+01 
6.379250e-01 5.608862e+01 
6.545410e-01 5.376792e+01 
6.714560e-01 5.156812e+01 
6.892080e-01 4.942271e+01 
7.066010e-01 4.746778e+01 
7.240540e-01 4.563683e+01 
7.420450e-01 4.387655e+01 
7.593780e-01 4.229133e+01 
7.764720e-01 4.082375e+01 
7.942840e-01 3.938785e+01 
8.116170e-01 3.807607e+01 
8.288310e-01 3.684925e+01 
8.462240e-01 3.567997e+01 
8.631980e-01 3.460240e+01 
8.810700e-01 3.353041e+01 
8.989410e-01 3.251713e+01 
9.166330e-01 3.156836e+01 
9.345640e-01 3.065788e+01 
9.515980e-01 2.983626e+01 
9.688720e-01 2.904459e+01 
9.865640e-01 2.827382e+01 
1.031870e+00 2.646242e+01 
1.063490e+00 2.532274e+01 
1.097920e+00 2.418353e+01 
1.134370e+00 2.307779e+01 
1.167730e+00 2.214657e+01 
1.203830e+00 2.121668e+01 
1.240470e+00 2.034527e+01 
1.275790e+00 1.956752e+01 
1.309140e+00 1.888278e+01 
1.342970e+00 1.823412e+01 
1.378420e+00 1.759777e+01 
1.413200e+00 1.701320e+01 
1.448110e+00 1.646218e+01 
1.484090e+00 1.592823e+01 
1.518820e+00 1.544311e+01 
1.552880e+00 1.499361e+01 
1.588630e+00 1.454735e+01 
1.623230e+00 1.413853e+01 
1.657720e+00 1.375182e+01 
1.692450e+00 1.338189e+01 
1.726400e+00 1.303777e+01 
1.762200e+00 1.269205e+01 
1.797880e+00 1.236392e+01 
1.833270e+00 1.205371e+01 
1.869070e+00 1.175395e+01 
1.903200e+00 1.148083e+01 
1.937740e+00 1.121605e+01 
1.973190e+00 1.095534e+01 
2.007440e+00 1.071378e+01 
2.042160e+00 1.047858e+01 
2.077900e+00 1.024601e+01 
2.112390e+00 1.003020e+01 
2.146220e+00 9.826379e+00 
2.181600e+00 9.620893e+00 
2.216930e+00 9.423212e+00 
2.250760e+00 9.240537e+00 
2.286500e+00 9.054257e+00 
2.321770e+00 8.876906e+00 
2.355950e+00 8.710717e+00 
2.391280e+00 8.544520e+00 
2.426240e+00 8.385404e+00 
2.460670e+00 8.233684e+00 
2.495640e+00 8.084431e+00 
2.531080e+00 7.937646e+00 
2.566220e+00 7.796657e+00 
2.600830e+00 7.661985e+00 
2.635080e+00 7.532603e+00 
2.670340e+00 7.403008e+00 
2.705970e+00 7.275867e+00 
2.740040e+00 7.157762e+00 
2.774520e+00 7.041418e+00 
2.809730e+00 6.925748e+00 
2.844390e+00 6.815011e+00 
2.879960e+00 6.704366e+00 
2.914860e+00 6.598515e+00 
2.949410e+00 6.496491e+00 
2.984440e+00 6.395631e+00 
3.019760e+00 6.296473e+00 
3.054730e+00 6.200830e+00 
3.089030e+00 6.109020e+00 
3.124060e+00 6.017561e+00 
3.159560e+00 5.927051e+00 
3.194710e+00 5.839527e+00 
3.229010e+00 5.756229e+00 
3.263320e+00 5.674465e+00 
3.297930e+00 5.593958e+00 
3.332830e+00 5.514553e+00 
3.368040e+00 5.436158e+00 
3.403300e+00 5.359407e+00 
3.438450e+00 5.284445e+00 
3.473060e+00 5.212370e+00 
3.508440e+00 5.139941e+00 
3.543110e+00 5.070613e+00 
3.577470e+00 5.003110e+00 
3.613040e+00 4.934775e+00 
3.648120e+00 4.868644e+00 
3.682910e+00 4.804423e+00 
3.718050e+00 4.740732e+00 
3.753320e+00 4.678111e+00 
3.787980e+00 4.617719e+00 
3.822290e+00 4.559089e+00 
3.857020e+00 4.500773e+00 
3.891920e+00 4.443326e+00 
3.926650e+00 4.387154e+00 
3.961970e+00 4.331142e+00 
3.997360e+00 4.275917e+00 
4.031670e+00 4.223450e+00 
4.066330e+00 4.171239e+00 
4.101420e+00 4.119481e+00 
4.136200e+00 4.068850e+00 
4.170810e+00 4.019508e+00 
4.206250e+00 3.969691e+00 
4.241580e+00 3.920996e+00 
4.276300e+00 3.873905e+00 
4.310970e+00 3.827706e+00 
4.346120e+00 3.781662e+00 
4.380600e+00 3.737152e+00 
4.414730e+00 3.693939e+00 
4.450350e+00 3.649410e+00 
4.485320e+00 3.606553e+00 
4.519810e+00 3.564841e+00 
4.555430e+00 3.522475e+00 
4.590870e+00 3.481046e+00 
4.625480e+00 3.441161e+00 
4.659910e+00 3.402220e+00 
4.695230e+00 3.362749e+00 
4.729960e+00 3.324619e+00 
4.764450e+00 3.287336e+00 
4.799530e+00 3.249930e+00 
4.834910e+00 3.212895e+00 
4.869700e+00 3.176915e+00 
4.904370e+00 3.141662e+00 
4.939450e+00 3.106557e+00 
4.973940e+00 3.072465e+00 
5.008430e+00 3.038967e+00 
5.043810e+00 3.005059e+00 
5.078840e+00 2.971991e+00 
5.113500e+00 2.939836e+00 
5.148890e+00 2.907323e+00 
5.184210e+00 2.875424e+00 
5.219060e+00 2.844443e+00 
5.253660e+00 2.814076e+00 
5.288570e+00 2.783949e+00 
5.323420e+00 2.754280e+00 
5.358440e+00 2.724857e+00 
5.393590e+00 2.695814e+00 
5.428310e+00 2.667468e+00 
5.462800e+00 2.639696e+00 
5.497640e+00 2.612094e+00 
5.532670e+00 2.584673e+00 
5.567280e+00 2.557976e+00 
5.602000e+00 2.531619e+00 
5.637270e+00 2.505143e+00 
5.672410e+00 2.479154e+00 
5.707020e+00 2.453958e+00 
5.742040e+00 2.428744e+00 
5.777430e+00 2.403638e+00 
5.812210e+00 2.379348e+00 
5.846820e+00 2.355452e+00 
5.881610e+00 2.331773e+00 
5.916510e+00 2.308380e+00 
5.951600e+00 2.285138e+00 
5.986560e+00 2.262297e+00 
6.021830e+00 2.239601e+00 
6.056490e+00 2.217571e+00 
6.091160e+00 2.195809e+00 
6.125830e+00 2.174366e+00 
6.161090e+00 2.152854e+00 
6.195760e+00 2.131956e+00 
6.230420e+00 2.111366e+00 
6.265690e+00 2.090715e+00 
6.300950e+00 2.070280e+00 
6.335620e+00 2.050477e+00 
6.370880e+00 2.030624e+00 
6.405550e+00 2.011335e+00 
6.440220e+00 1.992298e+00 
6.475480e+00 1.973209e+00 
6.510150e+00 1.954688e+00 
6.544810e+00 1.936394e+00 
6.580080e+00 1.918036e+00 
6.614750e+00 1.900240e+00 
6.649410e+00 1.882649e+00 
6.684080e+00 1.865285e+00 
6.719340e+00 1.847865e+00 
6.754010e+00 1.830955e+00 
6.788680e+00 1.814238e+00 
6.823940e+00 1.797465e+00 
6.859800e+00 1.780639e+00 
6.894470e+00 1.764567e+00 
6.929140e+00 1.748698e+00 
6.963800e+00 1.733041e+00 
6.999070e+00 1.717317e+00 
7.033730e+00 1.702047e+00 
7.068400e+00 1.686969e+00 
7.103660e+00 1.671834e+00 
7.138330e+00 1.657139e+00 
7.173600e+00 1.642370e+00 
7.208260e+00 1.628042e+00 
7.243530e+00 1.613648e+00 
7.277600e+00 1.599913e+00 
7.312860e+00 1.585873e+00 
7.348120e+00 1.572010e+00 
7.382790e+00 1.558549e+00 
7.417460e+00 1.545246e+00 
7.452720e+00 1.531880e+00 
7.487390e+00 1.518900e+00 
7.522650e+00 1.505862e+00 
7.557320e+00 1.493208e+00 
7.591990e+00 1.480711e+00 
7.627250e+00 1.468155e+00 
7.662510e+00 1.455752e+00 
7.697180e+00 1.443707e+00 
7.731850e+00 1.431806e+00 
7.766510e+00 1.420050e+00 
7.801180e+00 1.408429e+00 
7.836440e+00 1.396750e+00 
7.871110e+00 1.385403e+00 
7.906380e+00 1.373995e+00 
7.941040e+00 1.362915e+00 
7.976310e+00 1.351778e+00 
8.011570e+00 1.340783e+00 
8.046240e+00 1.330097e+00 
8.080900e+00 1.319536e+00 
8.115570e+00 1.309097e+00 
8.150830e+00 1.298622e+00 
8.185500e+00 1.288440e+00 
8.220770e+00 1.278198e+00 
8.255430e+00 1.268247e+00 
8.290100e+00 1.258415e+00 
8.324770e+00 1.248693e+00 
8.359430e+00 1.239082e+00 
8.394700e+00 1.229409e+00 
8.429960e+00 1.219859e+00 
8.464630e+00 1.210583e+00 
8.499890e+00 1.201253e+00 
8.534560e+00 1.192178e+00 
8.569200e+00 1.183210e+00 
