# Parameters:
# omega_b = 0.022980, omega_m = 0.137362, n_s = 0.975984, h = 57.125984, w = -1.000000, sigma_8 = 0.758268
# z = 1.900000
#
# k[1/Mpc] # P(k):
8.694000e-04 3.024326e+03 
2.077466e-03 6.510189e+03 
3.285532e-03 9.239868e+03 
4.493598e-03 1.134440e+04 
5.701664e-03 1.290884e+04 
6.909730e-03 1.401771e+04 
8.117797e-03 1.476829e+04 
9.325863e-03 1.521092e+04 
1.053393e-02 1.539658e+04 
1.174199e-02 1.537357e+04 
1.295006e-02 1.517196e+04 
1.415813e-02 1.483269e+04 
1.536619e-02 1.439209e+04 
1.657426e-02 1.387520e+04 
1.778233e-02 1.330359e+04 
1.899039e-02 1.270926e+04 
2.019846e-02 1.210984e+04 
2.140652e-02 1.152092e+04 
2.261459e-02 1.095097e+04 
2.382266e-02 1.041030e+04 
2.503072e-02 9.906082e+03 
2.623879e-02 9.441024e+03 
2.744685e-02 9.016412e+03 
2.865492e-02 8.632883e+03 
2.986299e-02 8.288469e+03 
3.100100e-02 7.999313e+03 
3.220400e-02 7.727560e+03 
3.288100e-02 7.589661e+03 
3.424300e-02 7.340146e+03 
3.555100e-02 7.130479e+03 
3.686000e-02 6.945718e+03 
3.795000e-02 6.807004e+03 
3.929100e-02 6.651725e+03 
4.039800e-02 6.531721e+03 
4.164000e-02 6.402822e+03 
4.294400e-02 6.268257e+03 
4.415000e-02 6.144070e+03 
4.542900e-02 6.006295e+03 
4.660900e-02 5.876039e+03 
4.782300e-02 5.731621e+03 
4.892900e-02 5.595639e+03 
5.031200e-02 5.417339e+03 
5.155900e-02 5.248695e+03 
5.238100e-02 5.134881e+03 
5.378200e-02 4.938154e+03 
5.513400e-02 4.747143e+03 
5.627600e-02 4.588065e+03 
5.735300e-02 4.442944e+03 
5.870100e-02 4.271049e+03 
5.988700e-02 4.131068e+03 
6.113500e-02 3.995464e+03 
6.225900e-02 3.883231e+03 
6.340100e-02 3.777289e+03 
6.480200e-02 3.655648e+03 
6.601100e-02 3.556678e+03 
6.725500e-02 3.459497e+03 
6.829100e-02 3.382350e+03 
6.958600e-02 3.290564e+03 
7.071100e-02 3.215957e+03 
7.192300e-02 3.141028e+03 
7.307400e-02 3.075230e+03 
7.412300e-02 3.019701e+03 
7.550400e-02 2.953109e+03 
7.663100e-02 2.903121e+03 
7.791200e-02 2.851333e+03 
7.912700e-02 2.805941e+03 
8.027600e-02 2.765359e+03 
8.138400e-02 2.727822e+03 
8.272200e-02 2.683943e+03 
8.406100e-02 2.640786e+03 
8.534100e-02 2.599141e+03 
8.653800e-02 2.559188e+03 
8.759800e-02 2.523130e+03 
8.900300e-02 2.473882e+03 
9.009000e-02 2.434264e+03 
9.113300e-02 2.394665e+03 
9.239600e-02 2.345843e+03 
9.358000e-02 2.298696e+03 
9.496100e-02 2.241835e+03 
9.608400e-02 2.195284e+03 
9.727500e-02 2.146039e+03 
9.852600e-02 2.093376e+03 
9.973800e-02 2.043340e+03 
1.009000e-01 1.996328e+03 
1.020900e-01 1.949131e+03 
1.034000e-01 1.899046e+03 
1.046000e-01 1.854876e+03 
1.057200e-01 1.815825e+03 
1.069100e-01 1.776002e+03 
1.082500e-01 1.734060e+03 
1.093900e-01 1.700672e+03 
1.105400e-01 1.668614e+03 
1.116900e-01 1.639264e+03 
1.129600e-01 1.608414e+03 
1.142000e-01 1.580918e+03 
1.153300e-01 1.557222e+03 
1.166400e-01 1.531570e+03 
1.177800e-01 1.510743e+03 
1.190000e-01 1.489431e+03 
1.201200e-01 1.471032e+03 
1.213400e-01 1.451588e+03 
1.227100e-01 1.430755e+03 
1.238900e-01 1.413248e+03 
1.250700e-01 1.396049e+03 
1.263200e-01 1.378088e+03 
1.275500e-01 1.360456e+03 
1.287500e-01 1.343318e+03 
1.299900e-01 1.325488e+03 
1.311300e-01 1.309029e+03 
1.323500e-01 1.291150e+03 
1.335900e-01 1.272892e+03 
1.347100e-01 1.256099e+03 
1.359800e-01 1.237068e+03 
1.372100e-01 1.218237e+03 
1.384300e-01 1.199697e+03 
1.395700e-01 1.182064e+03 
1.407700e-01 1.163839e+03 
1.420300e-01 1.144417e+03 
1.432800e-01 1.125601e+03 
1.444500e-01 1.108008e+03 
1.456300e-01 1.090652e+03 
1.468900e-01 1.072577e+03 
1.480500e-01 1.056317e+03 
1.491700e-01 1.041099e+03 
1.503800e-01 1.025199e+03 
1.516400e-01 1.009127e+03 
1.528200e-01 9.949321e+02 
1.540200e-01 9.807908e+02 
1.551900e-01 9.678657e+02 
1.564300e-01 9.545836e+02 
1.576600e-01 9.419937e+02 
1.588700e-01 9.302348e+02 
1.600900e-01 9.186358e+02 
1.612700e-01 9.081401e+02 
1.625400e-01 8.970582e+02 
1.637600e-01 8.867979e+02 
1.649500e-01 8.770792e+02 
1.662200e-01 8.669053e+02 
1.674000e-01 8.576593e+02 
1.685000e-01 8.491860e+02 
1.697500e-01 8.396349e+02 
1.710300e-01 8.299470e+02 
1.722200e-01 8.211024e+02 
1.734400e-01 8.118868e+02 
1.746400e-01 8.029685e+02 
1.758700e-01 7.938736e+02 
1.770900e-01 7.847799e+02 
1.782700e-01 7.761362e+02 
1.794600e-01 7.673805e+02 
1.807000e-01 7.582901e+02 
1.819100e-01 7.495745e+02 
1.830100e-01 7.416234e+02 
1.842200e-01 7.329933e+02 
1.855000e-01 7.240206e+02 
1.867000e-01 7.156705e+02 
1.879200e-01 7.073249e+02 
1.890900e-01 6.994577e+02 
1.902800e-01 6.916040e+02 
1.915200e-01 6.835568e+02 
1.926900e-01 6.761139e+02 
1.939000e-01 6.686223e+02 
1.951700e-01 6.608900e+02 
1.963100e-01 6.541002e+02 
1.975100e-01 6.471692e+02 
1.987800e-01 6.399524e+02 
2.000100e-01 6.331242e+02 
2.012500e-01 6.264605e+02 
2.023400e-01 6.206901e+02 
2.036100e-01 6.140946e+02 
2.048900e-01 6.076586e+02 
2.060400e-01 6.019639e+02 
2.072200e-01 5.962118e+02 
2.084200e-01 5.905288e+02 
2.096900e-01 5.846049e+02 
2.109200e-01 5.789547e+02 
2.121100e-01 5.736027e+02 
2.132700e-01 5.684608e+02 
2.145200e-01 5.629995e+02 
2.157200e-01 5.578256e+02 
2.168800e-01 5.528905e+02 
2.180700e-01 5.478976e+02 
2.193400e-01 5.426297e+02 
2.206000e-01 5.374508e+02 
2.217500e-01 5.327899e+02 
2.229500e-01 5.279922e+02 
2.241400e-01 5.232326e+02 
2.253500e-01 5.184578e+02 
2.264900e-01 5.140194e+02 
2.277100e-01 5.092975e+02 
2.289900e-01 5.043736e+02 
2.301500e-01 4.999728e+02 
2.313600e-01 4.954427e+02 
2.325600e-01 4.909389e+02 
2.337700e-01 4.864587e+02 
2.350000e-01 4.819662e+02 
2.362000e-01 4.776168e+02 
2.374100e-01 4.732594e+02 
2.386500e-01 4.688542e+02 
2.399100e-01 4.644393e+02 
2.410400e-01 4.605055e+02 
2.422500e-01 4.563435e+02 
2.435000e-01 4.521012e+02 
2.447300e-01 4.479809e+02 
2.458700e-01 4.442035e+02 
2.470600e-01 4.403097e+02 
2.483300e-01 4.362084e+02 
2.495600e-01 4.322966e+02 
2.507600e-01 4.285395e+02 
2.519600e-01 4.248297e+02 
2.532200e-01 4.209844e+02 
2.543700e-01 4.175408e+02 
2.555500e-01 4.140648e+02 
2.568000e-01 4.104285e+02 
2.580100e-01 4.069528e+02 
2.592400e-01 4.034938e+02 
2.604100e-01 4.002567e+02 
2.616100e-01 3.969761e+02 
2.628400e-01 3.936542e+02 
2.640600e-01 3.904371e+02 
2.652200e-01 3.874289e+02 
2.664300e-01 3.843275e+02 
2.676500e-01 3.812375e+02 
2.688400e-01 3.782857e+02 
2.700700e-01 3.752871e+02 
2.712400e-01 3.724675e+02 
2.724800e-01 3.695136e+02 
2.736700e-01 3.667290e+02 
2.748800e-01 3.639475e+02 
2.761000e-01 3.611750e+02 
2.773200e-01 3.584342e+02 
2.785400e-01 3.557322e+02 
2.797000e-01 3.532077e+02 
2.808900e-01 3.506459e+02 
2.821400e-01 3.479850e+02 
2.833900e-01 3.453551e+02 
2.845500e-01 3.429528e+02 
2.857800e-01 3.404330e+02 
2.870300e-01 3.379009e+02 
2.882100e-01 3.355366e+02 
2.893900e-01 3.332023e+02 
2.906300e-01 3.307784e+02 
2.918900e-01 3.283427e+02 
2.930500e-01 3.261242e+02 
2.942500e-01 3.238530e+02 
2.954200e-01 3.216617e+02 
2.966500e-01 3.193821e+02 
2.978900e-01 3.171086e+02 
2.990400e-01 3.150220e+02 
3.002700e-01 3.128122e+02 
3.015100e-01 3.106076e+02 
3.026800e-01 3.085489e+02 
3.038500e-01 3.065107e+02 
3.050300e-01 3.044755e+02 
3.062600e-01 3.023712e+02 
3.075000e-01 3.002719e+02 
3.087000e-01 2.982611e+02 
3.099100e-01 2.962540e+02 
3.111200e-01 2.942661e+02 
3.123100e-01 2.923286e+02 
3.135300e-01 2.903622e+02 
3.147300e-01 2.884472e+02 
3.159900e-01 2.864569e+02 
3.171800e-01 2.845956e+02 
3.183700e-01 2.827522e+02 
3.196300e-01 2.808197e+02 
3.208400e-01 2.789825e+02 
3.220300e-01 2.771932e+02 
3.232000e-01 2.754510e+02 
3.244300e-01 2.736374e+02 
3.256700e-01 2.718270e+02 
3.269200e-01 2.700200e+02 
3.280800e-01 2.683592e+02 
3.292500e-01 2.667021e+02 
3.304800e-01 2.649772e+02 
3.317100e-01 2.632689e+02 
3.328900e-01 2.616455e+02 
3.340700e-01 2.600371e+02 
3.353600e-01 2.582991e+02 
3.365300e-01 2.567392e+02 
3.377100e-01 2.551802e+02 
3.389200e-01 2.535962e+02 
3.401600e-01 2.519881e+02 
3.413700e-01 2.504388e+02 
3.425300e-01 2.489703e+02 
3.437700e-01 2.474148e+02 
3.449800e-01 2.459110e+02 
3.461800e-01 2.444330e+02 
3.473600e-01 2.429950e+02 
3.485800e-01 2.415274e+02 
3.498100e-01 2.400612e+02 
3.510200e-01 2.386318e+02 
3.522000e-01 2.372502e+02 
3.533900e-01 2.358689e+02 
3.546400e-01 2.344415e+02 
3.558400e-01 2.330839e+02 
3.570600e-01 2.317158e+02 
3.582700e-01 2.303708e+02 
3.595000e-01 2.290157e+02 
3.607100e-01 2.277005e+02 
3.618900e-01 2.264337e+02 
3.631200e-01 2.251246e+02 
3.643200e-01 2.238584e+02 
3.655500e-01 2.225717e+02 
3.667300e-01 2.213478e+02 
3.679500e-01 2.201045e+02 
3.691900e-01 2.188516e+02 
3.703600e-01 2.176794e+02 
3.715700e-01 2.164771e+02 
3.727700e-01 2.152947e+02 
3.739900e-01 2.141064e+02 
3.752000e-01 2.129445e+02 
3.763900e-01 2.118111e+02 
3.775800e-01 2.106870e+02 
3.788200e-01 2.095252e+02 
3.800300e-01 2.084010e+02 
3.812100e-01 2.073198e+02 
3.824200e-01 2.062243e+02 
3.836100e-01 2.051556e+02 
3.848600e-01 2.040421e+02 
3.860400e-01 2.029994e+02 
3.872400e-01 2.019475e+02 
3.884600e-01 2.008940e+02 
3.896500e-01 1.998774e+02 
3.908700e-01 1.988434e+02 
3.920600e-01 1.978427e+02 
3.933100e-01 1.968000e+02 
3.945300e-01 1.957904e+02 
3.957200e-01 1.948212e+02 
3.969300e-01 1.938454e+02 
3.981700e-01 1.928534e+02 
3.993500e-01 1.919166e+02 
4.094840e-01 1.841923e+02 
4.272360e-01 1.719870e+02 
4.454600e-01 1.608920e+02 
4.630560e-01 1.513338e+02 
4.804610e-01 1.428197e+02 
4.980690e-01 1.350211e+02 
5.159230e-01 1.278338e+02 
5.317440e-01 1.219953e+02 
5.489640e-01 1.161422e+02 
5.671990e-01 1.104555e+02 
5.838690e-01 1.056594e+02 
6.018840e-01 1.008720e+02 
6.202330e-01 9.637619e+01 
6.379250e-01 9.236012e+01 
6.545410e-01 8.885635e+01 
6.714560e-01 8.552580e+01 
6.892080e-01 8.226400e+01 
7.066010e-01 7.928454e+01 
7.240540e-01 7.648583e+01 
7.420450e-01 7.378903e+01 
7.593780e-01 7.135545e+01 
7.764720e-01 6.909773e+01 
7.942840e-01 6.688567e+01 
8.116170e-01 6.486000e+01 
8.288310e-01 6.296222e+01 
8.462240e-01 6.114962e+01 
8.631980e-01 5.947611e+01 
8.810700e-01 5.780787e+01 
8.989410e-01 5.622867e+01 
9.166330e-01 5.474551e+01 
9.345640e-01 5.331958e+01 
9.515980e-01 5.203084e+01 
9.688720e-01 5.078491e+01 
9.865640e-01 4.956948e+01 
1.031870e+00 4.669895e+01 
1.063490e+00 4.488214e+01 
1.097920e+00 4.305686e+01 
1.134370e+00 4.127385e+01 
1.167730e+00 3.976378e+01 
1.203830e+00 3.824619e+01 
1.240470e+00 3.681487e+01 
1.275790e+00 3.552917e+01 
1.309140e+00 3.439169e+01 
1.342970e+00 3.330483e+01 
1.378420e+00 3.223336e+01 
1.413200e+00 3.124311e+01 
1.448110e+00 3.030401e+01 
1.484090e+00 2.938848e+01 
1.518820e+00 2.855219e+01 
1.552880e+00 2.777236e+01 
1.588630e+00 2.699412e+01 
1.623230e+00 2.627680e+01 
1.657720e+00 2.559577e+01 
1.692450e+00 2.494025e+01 
1.726400e+00 2.432777e+01 
1.762200e+00 2.370916e+01 
1.797880e+00 2.311940e+01 
1.833270e+00 2.255909e+01 
1.869070e+00 2.201575e+01 
1.903200e+00 2.151786e+01 
1.937740e+00 2.103349e+01 
1.973190e+00 2.055501e+01 
2.007440e+00 2.010992e+01 
2.042160e+00 1.967474e+01 
2.077900e+00 1.924285e+01 
2.112390e+00 1.884132e+01 
2.146220e+00 1.846002e+01 
2.181600e+00 1.807485e+01 
2.216930e+00 1.770275e+01 
2.250760e+00 1.735807e+01 
2.286500e+00 1.700586e+01 
2.321770e+00 1.666950e+01 
2.355950e+00 1.635311e+01 
2.391280e+00 1.603606e+01 
2.426240e+00 1.573158e+01 
2.460670e+00 1.544071e+01 
2.495640e+00 1.515428e+01 
2.531080e+00 1.487181e+01 
2.566220e+00 1.459958e+01 
2.600830e+00 1.433901e+01 
2.635080e+00 1.408833e+01 
2.670340e+00 1.383705e+01 
2.705970e+00 1.358992e+01 
2.740040e+00 1.335993e+01 
2.774520e+00 1.313296e+01 
2.809730e+00 1.290695e+01 
2.844390e+00 1.269038e+01 
2.879960e+00 1.247374e+01 
2.914860e+00 1.226619e+01 
2.949410e+00 1.206593e+01 
2.984440e+00 1.186746e+01 
3.019760e+00 1.167229e+01 
3.054730e+00 1.148402e+01 
3.089030e+00 1.130288e+01 
3.124060e+00 1.112247e+01 
3.159560e+00 1.094397e+01 
3.194710e+00 1.077101e+01 
3.229010e+00 1.060631e+01 
3.263320e+00 1.044450e+01 
3.297930e+00 1.028515e+01 
3.332830e+00 1.012789e+01 
3.368040e+00 9.972611e+00 
3.403300e+00 9.820586e+00 
3.438450e+00 9.672012e+00 
3.473060e+00 9.529171e+00 
3.508440e+00 9.385551e+00 
3.543110e+00 9.248120e+00 
3.577470e+00 9.114348e+00 
3.613040e+00 8.978926e+00 
3.648120e+00 8.847787e+00 
3.682910e+00 8.720539e+00 
3.718050e+00 8.594502e+00 
3.753320e+00 8.470524e+00 
3.787980e+00 8.350852e+00 
3.822290e+00 8.234769e+00 
3.857020e+00 8.119440e+00 
3.891920e+00 8.005858e+00 
3.926650e+00 7.894812e+00 
3.961970e+00 7.784138e+00 
3.997360e+00 7.675089e+00 
4.031670e+00 7.571548e+00 
4.066330e+00 7.468625e+00 
4.101420e+00 7.366640e+00 
4.136200e+00 7.266943e+00 
4.170810e+00 7.169827e+00 
4.206250e+00 7.071929e+00 
4.241580e+00 6.976303e+00 
4.276300e+00 6.883881e+00 
4.310970e+00 6.793259e+00 
4.346120e+00 6.703028e+00 
4.380600e+00 6.615919e+00 
4.414730e+00 6.531392e+00 
4.450350e+00 6.444364e+00 
4.485320e+00 6.360647e+00 
4.519810e+00 6.279369e+00 
4.555430e+00 6.196935e+00 
4.590870e+00 6.116363e+00 
4.625480e+00 6.038827e+00 
4.659910e+00 5.963165e+00 
4.695230e+00 5.886649e+00 
4.729960e+00 5.812790e+00 
4.764450e+00 5.740686e+00 
4.799530e+00 5.668501e+00 
4.834910e+00 5.597073e+00 
4.869700e+00 5.527735e+00 
4.904370e+00 5.459838e+00 
4.939450e+00 5.392311e+00 
4.973940e+00 5.326901e+00 
5.008430e+00 5.262664e+00 
5.043810e+00 5.197737e+00 
5.078840e+00 5.134486e+00 
5.113500e+00 5.073018e+00 
5.148890e+00 5.011071e+00 
5.184210e+00 4.950337e+00 
5.219060e+00 4.891403e+00 
5.253660e+00 4.833727e+00 
5.288570e+00 4.776537e+00 
5.323420e+00 4.720290e+00 
5.358440e+00 4.664582e+00 
5.393590e+00 4.609626e+00 
5.428310e+00 4.556157e+00 
5.462800e+00 4.503873e+00 
5.497640e+00 4.451938e+00 
5.532670e+00 4.400420e+00 
5.567280e+00 4.350307e+00 
5.602000e+00 4.300859e+00 
5.637270e+00 4.251319e+00 
5.672410e+00 4.202743e+00 
5.707020e+00 4.155677e+00 
5.742040e+00 4.108705e+00 
5.777430e+00 4.061982e+00 
5.812210e+00 4.016803e+00 
5.846820e+00 3.972451e+00 
5.881610e+00 3.928543e+00 
5.916510e+00 3.885188e+00 
5.951600e+00 3.842221e+00 
5.986560e+00 3.800054e+00 
6.021830e+00 3.758178e+00 
6.056490e+00 3.717601e+00 
6.091160e+00 3.677580e+00 
6.125830e+00 3.638167e+00 
6.161090e+00 3.598675e+00 
6.195760e+00 3.560393e+00 
6.230420e+00 3.522694e+00 
6.265690e+00 3.484905e+00 
6.300950e+00 3.447656e+00 
6.335620e+00 3.411574e+00 
6.370880e+00 3.375422e+00 
6.405550e+00 3.340361e+00 
6.440220e+00 3.305794e+00 
6.475480e+00 3.271152e+00 
6.510150e+00 3.237582e+00 
6.544810e+00 3.204497e+00 
6.580080e+00 3.171313e+00 
6.614750e+00 3.139161e+00 
6.649410e+00 3.107449e+00 
6.684080e+00 3.076169e+00 
6.719340e+00 3.044806e+00 
6.754010e+00 3.014403e+00 
6.788680e+00 2.984429e+00 
6.823940e+00 2.954369e+00 
6.859800e+00 2.924228e+00 
6.894470e+00 2.895512e+00 
6.929140e+00 2.867193e+00 
6.963800e+00 2.839266e+00 
6.999070e+00 2.811235e+00 
7.033730e+00 2.784075e+00 
7.068400e+00 2.757269e+00 
7.103660e+00 2.730374e+00 
7.138330e+00 2.704287e+00 
7.173600e+00 2.678112e+00 
7.208260e+00 2.652731e+00 
7.243530e+00 2.627243e+00 
7.277600e+00 2.602970e+00 
7.312860e+00 2.578200e+00 
7.348120e+00 2.553754e+00 
7.382790e+00 2.530028e+00 
7.417460e+00 2.506623e+00 
7.452720e+00 2.483133e+00 
7.487390e+00 2.460332e+00 
7.522650e+00 2.437437e+00 
7.557320e+00 2.415251e+00 
7.591990e+00 2.393357e+00 
7.627250e+00 2.371369e+00 
7.662510e+00 2.349659e+00 
7.697180e+00 2.328626e+00 
7.731850e+00 2.307868e+00 
7.766510e+00 2.287371e+00 
7.801180e+00 2.267117e+00 
7.836440e+00 2.246805e+00 
7.871110e+00 2.227097e+00 
7.906380e+00 2.207291e+00 
7.941040e+00 2.188062e+00 
7.976310e+00 2.168757e+00 
8.011570e+00 2.149720e+00 
8.046240e+00 2.131225e+00 
8.080900e+00 2.112954e+00 
8.115570e+00 2.094906e+00 
8.150830e+00 2.076824e+00 
8.185500e+00 2.059253e+00 
8.220770e+00 2.041587e+00 
8.255430e+00 2.024429e+00 
8.290100e+00 2.007520e+00 
8.324770e+00 1.990812e+00 
8.359430e+00 1.974299e+00 
8.394700e+00 1.957688e+00 
8.429960e+00 1.941304e+00 
8.464630e+00 1.925412e+00 
8.499890e+00 1.909431e+00 
8.534560e+00 1.893895e+00 
8.569200e+00 1.878545e+00 
