# Parameters:
# omega_b = 0.022272, omega_m = 0.138465, n_s = 0.859449, h = 67.755906, w = -1.000000, sigma_8 = 0.777165
# z = 1.900000
#
# k[1/Mpc] # P(k):
8.694000e-04 4.773888e+03 
2.077466e-03 9.289827e+03 
3.285532e-03 1.251137e+04 
4.493598e-03 1.482000e+04 
5.701664e-03 1.641247e+04 
6.909730e-03 1.744093e+04 
8.117797e-03 1.804951e+04 
9.325863e-03 1.831235e+04 
1.053393e-02 1.829775e+04 
1.174199e-02 1.806576e+04 
1.295006e-02 1.765403e+04 
1.415813e-02 1.711025e+04 
1.536619e-02 1.647400e+04 
1.657426e-02 1.577153e+04 
1.778233e-02 1.502610e+04 
1.899039e-02 1.427182e+04 
2.019846e-02 1.352634e+04 
2.140652e-02 1.280468e+04 
2.261459e-02 1.211458e+04 
2.382266e-02 1.146566e+04 
2.503072e-02 1.086426e+04 
2.623879e-02 1.031198e+04 
2.744685e-02 9.808926e+03 
2.865492e-02 9.354873e+03 
2.986299e-02 8.946731e+03 
3.100100e-02 8.602932e+03 
3.220400e-02 8.278393e+03 
3.288100e-02 8.112798e+03 
3.424300e-02 7.811321e+03 
3.555100e-02 7.555908e+03 
3.686000e-02 7.328872e+03 
3.795000e-02 7.157321e+03 
3.929100e-02 6.964296e+03 
4.039800e-02 6.815117e+03 
4.164000e-02 6.655541e+03 
4.294400e-02 6.490996e+03 
4.415000e-02 6.341025e+03 
4.542900e-02 6.178057e+03 
4.660900e-02 6.026331e+03 
4.782300e-02 5.861928e+03 
4.892900e-02 5.709305e+03 
5.031200e-02 5.512311e+03 
5.155900e-02 5.328843e+03 
5.238100e-02 5.206079e+03 
5.378200e-02 4.995153e+03 
5.513400e-02 4.790667e+03 
5.627600e-02 4.619188e+03 
5.735300e-02 4.460403e+03 
5.870100e-02 4.267353e+03 
5.988700e-02 4.104675e+03 
6.113500e-02 3.941582e+03 
6.225900e-02 3.802756e+03 
6.340100e-02 3.670203e+03 
6.480200e-02 3.519078e+03 
6.601100e-02 3.399863e+03 
6.725500e-02 3.287671e+03 
6.829100e-02 3.202869e+03 
6.958600e-02 3.105833e+03 
7.071100e-02 3.030195e+03 
7.192300e-02 2.956506e+03 
7.307400e-02 2.893375e+03 
7.412300e-02 2.840991e+03 
7.550400e-02 2.779078e+03 
7.663100e-02 2.732931e+03 
7.791200e-02 2.685216e+03 
7.912700e-02 2.643116e+03 
8.027600e-02 2.605075e+03 
8.138400e-02 2.569449e+03 
8.272200e-02 2.527093e+03 
8.406100e-02 2.484625e+03 
8.534100e-02 2.442737e+03 
8.653800e-02 2.401906e+03 
8.759800e-02 2.364731e+03 
8.900300e-02 2.313550e+03 
9.009000e-02 2.272149e+03 
9.113300e-02 2.230689e+03 
9.239600e-02 2.179578e+03 
9.358000e-02 2.130293e+03 
9.496100e-02 2.071074e+03 
9.608400e-02 2.022791e+03 
9.727500e-02 1.971899e+03 
9.852600e-02 1.917912e+03 
9.973800e-02 1.866911e+03 
1.009000e-01 1.819241e+03 
1.020900e-01 1.771967e+03 
1.034000e-01 1.722157e+03 
1.046000e-01 1.678588e+03 
1.057200e-01 1.640689e+03 
1.069100e-01 1.602304e+03 
1.082500e-01 1.562585e+03 
1.093900e-01 1.531432e+03 
1.105400e-01 1.501798e+03 
1.116900e-01 1.475290e+03 
1.129600e-01 1.447637e+03 
1.142000e-01 1.423504e+03 
1.153300e-01 1.402855e+03 
1.166400e-01 1.380740e+03 
1.177800e-01 1.362867e+03 
1.190000e-01 1.344617e+03 
1.201200e-01 1.328724e+03 
1.213400e-01 1.311903e+03 
1.227100e-01 1.293404e+03 
1.238900e-01 1.277725e+03 
1.250700e-01 1.261881e+03 
1.263200e-01 1.245146e+03 
1.275500e-01 1.228300e+03 
1.287500e-01 1.211726e+03 
1.299900e-01 1.194173e+03 
1.311300e-01 1.177838e+03 
1.323500e-01 1.159903e+03 
1.335900e-01 1.141536e+03 
1.347100e-01 1.124576e+03 
1.359800e-01 1.105378e+03 
1.372100e-01 1.086412e+03 
1.384300e-01 1.067803e+03 
1.395700e-01 1.050225e+03 
1.407700e-01 1.032098e+03 
1.420300e-01 1.013033e+03 
1.432800e-01 9.945829e+02 
1.444500e-01 9.776300e+02 
1.456300e-01 9.609207e+02 
1.468900e-01 9.437709e+02 
1.480500e-01 9.284248e+02 
1.491700e-01 9.141946e+02 
1.503800e-01 8.994946e+02 
1.516400e-01 8.846923e+02 
1.528200e-01 8.718414e+02 
1.540200e-01 8.590429e+02 
1.551900e-01 8.475205e+02 
1.564300e-01 8.357248e+02 
1.576600e-01 8.246091e+02 
1.588700e-01 8.143063e+02 
1.600900e-01 8.041462e+02 
1.612700e-01 7.949989e+02 
1.625400e-01 7.853406e+02 
1.637600e-01 7.763648e+02 
1.649500e-01 7.678428e+02 
1.662200e-01 7.589006e+02 
1.674000e-01 7.506560e+02 
1.685000e-01 7.431009e+02 
1.697500e-01 7.344933e+02 
1.710300e-01 7.256731e+02 
1.722200e-01 7.176221e+02 
1.734400e-01 7.090584e+02 
1.746400e-01 7.007666e+02 
1.758700e-01 6.922715e+02 
1.770900e-01 6.836971e+02 
1.782700e-01 6.755507e+02 
1.794600e-01 6.672646e+02 
1.807000e-01 6.586416e+02 
1.819100e-01 6.503790e+02 
1.830100e-01 6.428493e+02 
1.842200e-01 6.346821e+02 
1.855000e-01 6.261984e+02 
1.867000e-01 6.183637e+02 
1.879200e-01 6.105377e+02 
1.890900e-01 6.031783e+02 
1.902800e-01 5.959074e+02 
1.915200e-01 5.884610e+02 
1.926900e-01 5.815987e+02 
1.939000e-01 5.747651e+02 
1.951700e-01 5.677147e+02 
1.963100e-01 5.615467e+02 
1.975100e-01 5.553079e+02 
1.987800e-01 5.488137e+02 
2.000100e-01 5.426857e+02 
2.012500e-01 5.367412e+02 
2.023400e-01 5.315946e+02 
2.036100e-01 5.257171e+02 
2.048900e-01 5.199979e+02 
2.060400e-01 5.149383e+02 
2.072200e-01 5.098279e+02 
2.084200e-01 5.047714e+02 
2.096900e-01 4.995015e+02 
2.109200e-01 4.944760e+02 
2.121100e-01 4.896952e+02 
2.132700e-01 4.851020e+02 
2.145200e-01 4.802244e+02 
2.157200e-01 4.755887e+02 
2.168800e-01 4.711606e+02 
2.180700e-01 4.666816e+02 
2.193400e-01 4.619531e+02 
2.206000e-01 4.572985e+02 
2.217500e-01 4.531106e+02 
2.229500e-01 4.488007e+02 
2.241400e-01 4.445314e+02 
2.253500e-01 4.402495e+02 
2.264900e-01 4.362704e+02 
2.277100e-01 4.320508e+02 
2.289900e-01 4.276659e+02 
2.301500e-01 4.237476e+02 
2.313600e-01 4.197156e+02 
2.325600e-01 4.157466e+02 
2.337700e-01 4.117992e+02 
2.350000e-01 4.078417e+02 
2.362000e-01 4.040317e+02 
2.374100e-01 4.002396e+02 
2.386500e-01 3.964065e+02 
2.399100e-01 3.925654e+02 
2.410400e-01 3.891791e+02 
2.422500e-01 3.856012e+02 
2.435000e-01 3.819545e+02 
2.447300e-01 3.784190e+02 
2.458700e-01 3.752025e+02 
2.470600e-01 3.718868e+02 
2.483300e-01 3.683947e+02 
2.495600e-01 3.650710e+02 
2.507600e-01 3.618884e+02 
2.519600e-01 3.587459e+02 
2.532200e-01 3.554887e+02 
2.543700e-01 3.525726e+02 
2.555500e-01 3.496297e+02 
2.568000e-01 3.465511e+02 
2.580100e-01 3.436085e+02 
2.592400e-01 3.406723e+02 
2.604100e-01 3.379210e+02 
2.616100e-01 3.351328e+02 
2.628400e-01 3.323096e+02 
2.640600e-01 3.295616e+02 
2.652200e-01 3.269866e+02 
2.664300e-01 3.243320e+02 
2.676500e-01 3.216874e+02 
2.688400e-01 3.191477e+02 
2.700700e-01 3.165595e+02 
2.712400e-01 3.141261e+02 
2.724800e-01 3.115770e+02 
2.736700e-01 3.091638e+02 
2.748800e-01 3.067429e+02 
2.761000e-01 3.043301e+02 
2.773200e-01 3.019451e+02 
2.785400e-01 2.995890e+02 
2.797000e-01 2.973770e+02 
2.808900e-01 2.951325e+02 
2.821400e-01 2.928017e+02 
2.833900e-01 2.904977e+02 
2.845500e-01 2.883815e+02 
2.857800e-01 2.861623e+02 
2.870300e-01 2.839325e+02 
2.882100e-01 2.818510e+02 
2.893900e-01 2.797907e+02 
2.906300e-01 2.776489e+02 
2.918900e-01 2.754970e+02 
2.930500e-01 2.735374e+02 
2.942500e-01 2.715307e+02 
2.954200e-01 2.695919e+02 
2.966500e-01 2.675754e+02 
2.978900e-01 2.655646e+02 
2.990400e-01 2.637195e+02 
3.002700e-01 2.617650e+02 
3.015100e-01 2.598151e+02 
3.026800e-01 2.579947e+02 
3.038500e-01 2.561927e+02 
3.050300e-01 2.543938e+02 
3.062600e-01 2.525347e+02 
3.075000e-01 2.506805e+02 
3.087000e-01 2.489048e+02 
3.099100e-01 2.471327e+02 
3.111200e-01 2.453787e+02 
3.123100e-01 2.436709e+02 
3.135300e-01 2.419379e+02 
3.147300e-01 2.402507e+02 
3.159900e-01 2.384974e+02 
3.171800e-01 2.368598e+02 
3.183700e-01 2.352394e+02 
3.196300e-01 2.335410e+02 
3.208400e-01 2.319267e+02 
3.220300e-01 2.303548e+02 
3.232000e-01 2.288265e+02 
3.244300e-01 2.272366e+02 
3.256700e-01 2.256498e+02 
3.269200e-01 2.240663e+02 
3.280800e-01 2.226112e+02 
3.292500e-01 2.211618e+02 
3.304800e-01 2.196541e+02 
3.317100e-01 2.181612e+02 
3.328900e-01 2.167427e+02 
3.340700e-01 2.153375e+02 
3.353600e-01 2.138213e+02 
3.365300e-01 2.124613e+02 
3.377100e-01 2.111023e+02 
3.389200e-01 2.097218e+02 
3.401600e-01 2.083206e+02 
3.413700e-01 2.069718e+02 
3.425300e-01 2.056945e+02 
3.437700e-01 2.043416e+02 
3.449800e-01 2.030339e+02 
3.461800e-01 2.017489e+02 
3.473600e-01 2.004993e+02 
3.485800e-01 1.992250e+02 
3.498100e-01 1.979521e+02 
3.510200e-01 1.967114e+02 
3.522000e-01 1.955123e+02 
3.533900e-01 1.943138e+02 
3.546400e-01 1.930760e+02 
3.558400e-01 1.918991e+02 
3.570600e-01 1.907132e+02 
3.582700e-01 1.895476e+02 
3.595000e-01 1.883734e+02 
3.607100e-01 1.872339e+02 
3.618900e-01 1.861365e+02 
3.631200e-01 1.850026e+02 
3.643200e-01 1.839061e+02 
3.655500e-01 1.827920e+02 
3.667300e-01 1.817324e+02 
3.679500e-01 1.806562e+02 
3.691900e-01 1.795719e+02 
3.703600e-01 1.785575e+02 
3.715700e-01 1.775173e+02 
3.727700e-01 1.764944e+02 
3.739900e-01 1.754663e+02 
3.752000e-01 1.744606e+02 
3.763900e-01 1.734798e+02 
3.775800e-01 1.725071e+02 
3.788200e-01 1.715020e+02 
3.800300e-01 1.705296e+02 
3.812100e-01 1.695941e+02 
3.824200e-01 1.686461e+02 
3.836100e-01 1.677214e+02 
3.848600e-01 1.667582e+02 
3.860400e-01 1.658563e+02 
3.872400e-01 1.649466e+02 
3.884600e-01 1.640350e+02 
3.896500e-01 1.631551e+02 
3.908700e-01 1.622604e+02 
3.920600e-01 1.613946e+02 
3.933100e-01 1.604925e+02 
3.945300e-01 1.596193e+02 
3.957200e-01 1.587803e+02 
3.969300e-01 1.579355e+02 
3.981700e-01 1.570767e+02 
3.993500e-01 1.562660e+02 
4.094840e-01 1.495827e+02 
4.272360e-01 1.390191e+02 
4.454600e-01 1.294315e+02 
4.630560e-01 1.211919e+02 
4.804610e-01 1.138788e+02 
4.980690e-01 1.072089e+02 
5.159230e-01 1.010918e+02 
5.317440e-01 9.614573e+01 
5.489640e-01 9.121190e+01 
5.671990e-01 8.644129e+01 
5.838690e-01 8.243562e+01 
6.018840e-01 7.845232e+01 
6.202330e-01 7.472573e+01 
6.379250e-01 7.140718e+01 
6.545410e-01 6.852034e+01 
6.714560e-01 6.578167e+01 
6.892080e-01 6.310606e+01 
7.066010e-01 6.066602e+01 
7.240540e-01 5.837815e+01 
7.420450e-01 5.617661e+01 
7.593780e-01 5.419233e+01 
7.764720e-01 5.235389e+01 
7.942840e-01 5.055422e+01 
8.116170e-01 4.890825e+01 
8.288310e-01 4.736768e+01 
8.462240e-01 4.589791e+01 
8.631980e-01 4.454237e+01 
8.810700e-01 4.319259e+01 
8.989410e-01 4.191609e+01 
9.166330e-01 4.071898e+01 
9.345640e-01 3.956938e+01 
9.515980e-01 3.853140e+01 
9.688720e-01 3.752956e+01 
9.865640e-01 3.655341e+01 
1.031870e+00 3.425464e+01 
1.063490e+00 3.280490e+01 
1.097920e+00 3.135250e+01 
1.134370e+00 2.993933e+01 
1.167730e+00 2.874655e+01 
1.203830e+00 2.755275e+01 
1.240470e+00 2.643121e+01 
1.275790e+00 2.542804e+01 
1.309140e+00 2.454344e+01 
1.342970e+00 2.370254e+01 
1.378420e+00 2.287629e+01 
1.413200e+00 2.211585e+01 
1.448110e+00 2.139771e+01 
1.484090e+00 2.070020e+01 
1.518820e+00 2.006562e+01 
1.552880e+00 1.947640e+01 
1.588630e+00 1.889057e+01 
1.623230e+00 1.835270e+01 
1.657720e+00 1.784361e+01 
1.692450e+00 1.735554e+01 
1.726400e+00 1.690116e+01 
1.762200e+00 1.644392e+01 
1.797880e+00 1.600945e+01 
1.833270e+00 1.559807e+01 
1.869070e+00 1.520043e+01 
1.903200e+00 1.483734e+01 
1.937740e+00 1.448510e+01 
1.973190e+00 1.413816e+01 
2.007440e+00 1.381640e+01 
2.042160e+00 1.350273e+01 
2.077900e+00 1.319234e+01 
2.112390e+00 1.290442e+01 
2.146220e+00 1.263194e+01 
2.181600e+00 1.235729e+01 
2.216930e+00 1.209274e+01 
2.250760e+00 1.184824e+01 
2.286500e+00 1.159892e+01 
2.321770e+00 1.136137e+01 
2.355950e+00 1.113851e+01 
2.391280e+00 1.091575e+01 
2.426240e+00 1.070230e+01 
2.460670e+00 1.049874e+01 
2.495640e+00 1.029860e+01 
2.531080e+00 1.010175e+01 
2.566220e+00 9.912444e+00 
2.600830e+00 9.731571e+00 
2.635080e+00 9.557831e+00 
2.670340e+00 9.384001e+00 
2.705970e+00 9.213352e+00 
2.740040e+00 9.054779e+00 
2.774520e+00 8.898592e+00 
2.809730e+00 8.743323e+00 
2.844390e+00 8.594708e+00 
2.879960e+00 8.446279e+00 
2.914860e+00 8.304326e+00 
2.949410e+00 8.167508e+00 
2.984440e+00 8.032167e+00 
3.019760e+00 7.899218e+00 
3.054730e+00 7.771052e+00 
3.089030e+00 7.648028e+00 
3.124060e+00 7.525567e+00 
3.159560e+00 7.404498e+00 
3.194710e+00 7.287376e+00 
3.229010e+00 7.175921e+00 
3.263320e+00 7.066610e+00 
3.297930e+00 6.959016e+00 
3.332830e+00 6.852944e+00 
3.368040e+00 6.748299e+00 
3.403300e+00 6.645910e+00 
3.438450e+00 6.545965e+00 
3.473060e+00 6.449901e+00 
3.508440e+00 6.353463e+00 
3.543110e+00 6.261193e+00 
3.577470e+00 6.171466e+00 
3.613040e+00 6.080662e+00 
3.648120e+00 5.992825e+00 
3.682910e+00 5.907609e+00 
3.718050e+00 5.823236e+00 
3.753320e+00 5.740292e+00 
3.787980e+00 5.660305e+00 
3.822290e+00 5.582731e+00 
3.857020e+00 5.505685e+00 
3.891920e+00 5.429830e+00 
3.926650e+00 5.355718e+00 
3.961970e+00 5.281866e+00 
3.997360e+00 5.209135e+00 
4.031670e+00 5.140080e+00 
4.066330e+00 5.071473e+00 
4.101420e+00 5.003486e+00 
4.136200e+00 4.937066e+00 
4.170810e+00 4.872358e+00 
4.206250e+00 4.807147e+00 
4.241580e+00 4.743447e+00 
4.276300e+00 4.681902e+00 
4.310970e+00 4.621563e+00 
4.346120e+00 4.561487e+00 
4.380600e+00 4.503497e+00 
4.414730e+00 4.447219e+00 
4.450350e+00 4.389296e+00 
4.485320e+00 4.333569e+00 
4.519810e+00 4.279458e+00 
4.555430e+00 4.224569e+00 
4.590870e+00 4.170923e+00 
4.625480e+00 4.119313e+00 
4.659910e+00 4.068943e+00 
4.695230e+00 4.017994e+00 
4.729960e+00 3.968807e+00 
4.764450e+00 3.920780e+00 
4.799530e+00 3.872689e+00 
4.834910e+00 3.825095e+00 
4.869700e+00 3.778900e+00 
4.904370e+00 3.733661e+00 
4.939450e+00 3.688658e+00 
4.973940e+00 3.645050e+00 
5.008430e+00 3.602218e+00 
5.043810e+00 3.558920e+00 
5.078840e+00 3.516734e+00 
5.113500e+00 3.475730e+00 
5.148890e+00 3.434388e+00 
5.184210e+00 3.393849e+00 
5.219060e+00 3.354503e+00 
5.253660e+00 3.315986e+00 
5.288570e+00 3.277787e+00 
5.323420e+00 3.240214e+00 
5.358440e+00 3.202996e+00 
5.393590e+00 3.166274e+00 
5.428310e+00 3.130521e+00 
5.462800e+00 3.095544e+00 
5.497640e+00 3.060795e+00 
5.532670e+00 3.026318e+00 
5.567280e+00 2.992776e+00 
5.602000e+00 2.959673e+00 
5.637270e+00 2.926492e+00 
5.672410e+00 2.893949e+00 
5.707020e+00 2.862412e+00 
5.742040e+00 2.830920e+00 
5.777430e+00 2.799587e+00 
5.812210e+00 2.769284e+00 
5.846820e+00 2.739524e+00 
5.881610e+00 2.710056e+00 
5.916510e+00 2.680955e+00 
5.951600e+00 2.652099e+00 
5.986560e+00 2.623771e+00 
6.021830e+00 2.595634e+00 
6.056490e+00 2.568360e+00 
6.091160e+00 2.541452e+00 
6.125830e+00 2.514948e+00 
6.161090e+00 2.488383e+00 
6.195760e+00 2.462619e+00 
6.230420e+00 2.437242e+00 
6.265690e+00 2.411801e+00 
6.300950e+00 2.386705e+00 
6.335620e+00 2.362390e+00 
6.370880e+00 2.338024e+00 
6.405550e+00 2.314386e+00 
6.440220e+00 2.291076e+00 
6.475480e+00 2.267712e+00 
6.510150e+00 2.245063e+00 
6.544810e+00 2.222731e+00 
6.580080e+00 2.200330e+00 
6.614750e+00 2.178621e+00 
6.649410e+00 2.157200e+00 
6.684080e+00 2.136067e+00 
6.719340e+00 2.114873e+00 
6.754010e+00 2.094322e+00 
6.788680e+00 2.074048e+00 
6.823940e+00 2.053712e+00 
6.859800e+00 2.033318e+00 
6.894470e+00 2.013880e+00 
6.929140e+00 1.994707e+00 
6.963800e+00 1.975795e+00 
6.999070e+00 1.956810e+00 
7.033730e+00 1.938407e+00 
7.068400e+00 1.920242e+00 
7.103660e+00 1.902012e+00 
7.138330e+00 1.884327e+00 
7.173600e+00 1.866575e+00 
7.208260e+00 1.849359e+00 
7.243530e+00 1.832069e+00 
7.277600e+00 1.815597e+00 
7.312860e+00 1.798782e+00 
7.348120e+00 1.782186e+00 
7.382790e+00 1.766076e+00 
7.417460e+00 1.750178e+00 
7.452720e+00 1.734220e+00 
7.487390e+00 1.718726e+00 
7.522650e+00 1.703168e+00 
7.557320e+00 1.688087e+00 
7.591990e+00 1.673203e+00 
7.627250e+00 1.658253e+00 
7.662510e+00 1.643489e+00 
7.697180e+00 1.629180e+00 
7.731850e+00 1.615054e+00 
7.766510e+00 1.601103e+00 
7.801180e+00 1.587317e+00 
7.836440e+00 1.573486e+00 
7.871110e+00 1.560063e+00 
7.906380e+00 1.546572e+00 
7.941040e+00 1.533472e+00 
7.976310e+00 1.520317e+00 
8.011570e+00 1.507343e+00 
8.046240e+00 1.494737e+00 
8.080900e+00 1.482280e+00 
8.115570e+00 1.469976e+00 
8.150830e+00 1.457646e+00 
8.185500e+00 1.445663e+00 
8.220770e+00 1.433614e+00 
8.255430e+00 1.421909e+00 
8.290100e+00 1.410371e+00 
8.324770e+00 1.398968e+00 
8.359430e+00 1.387697e+00 
8.394700e+00 1.376357e+00 
8.429960e+00 1.365171e+00 
8.464630e+00 1.354318e+00 
8.499890e+00 1.343404e+00 
8.534560e+00 1.332792e+00 
8.569200e+00 1.322305e+00 
