# Parameters:
# omega_b = 0.022445, omega_m = 0.145354, n_s = 1.002756, h = 55.236220, w = -1.000000, sigma_8 = 0.882677
# z = 1.900000
#
# k[1/Mpc] # P(k):
8.694000e-04 3.004783e+03 
2.077466e-03 6.634906e+03 
3.285532e-03 9.589001e+03 
4.493598e-03 1.195390e+04 
5.701664e-03 1.378197e+04 
6.909730e-03 1.514222e+04 
8.117797e-03 1.612505e+04 
9.325863e-03 1.677622e+04 
1.053393e-02 1.714390e+04 
1.174199e-02 1.727558e+04 
1.295006e-02 1.720043e+04 
1.415813e-02 1.696099e+04 
1.536619e-02 1.659557e+04 
1.657426e-02 1.613074e+04 
1.778233e-02 1.558959e+04 
1.899039e-02 1.500760e+04 
2.019846e-02 1.440465e+04 
2.140652e-02 1.379901e+04 
2.261459e-02 1.320047e+04 
2.382266e-02 1.262183e+04 
2.503072e-02 1.207286e+04 
2.623879e-02 1.155824e+04 
2.744685e-02 1.108004e+04 
2.865492e-02 1.064156e+04 
2.986299e-02 1.024222e+04 
3.100100e-02 9.902162e+03 
3.220400e-02 9.578656e+03 
3.288100e-02 9.412891e+03 
3.424300e-02 9.110750e+03 
3.555100e-02 8.855327e+03 
3.686000e-02 8.629720e+03 
3.795000e-02 8.460720e+03 
3.929100e-02 8.273263e+03 
4.039800e-02 8.130323e+03 
4.164000e-02 7.978914e+03 
4.294400e-02 7.824415e+03 
4.415000e-02 7.683853e+03 
4.542900e-02 7.530363e+03 
4.660900e-02 7.386346e+03 
4.782300e-02 7.227530e+03 
4.892900e-02 7.077877e+03 
5.031200e-02 6.880959e+03 
5.155900e-02 6.693297e+03 
5.238100e-02 6.565699e+03 
5.378200e-02 6.343186e+03 
5.513400e-02 6.124217e+03 
5.627600e-02 5.939456e+03 
5.735300e-02 5.768818e+03 
5.870100e-02 5.563758e+03 
5.988700e-02 5.394163e+03 
6.113500e-02 5.227224e+03 
6.225900e-02 5.086715e+03 
6.340100e-02 4.951975e+03 
6.480200e-02 4.795164e+03 
6.601100e-02 4.665595e+03 
6.725500e-02 4.537056e+03 
6.829100e-02 4.434013e+03 
6.958600e-02 4.310764e+03 
7.071100e-02 4.209934e+03 
7.192300e-02 4.108244e+03 
7.307400e-02 4.018713e+03 
7.412300e-02 3.943110e+03 
7.550400e-02 3.852657e+03 
7.663100e-02 3.785104e+03 
7.791200e-02 3.716002e+03 
7.912700e-02 3.656606e+03 
8.027600e-02 3.604553e+03 
8.138400e-02 3.557370e+03 
8.272200e-02 3.503585e+03 
8.406100e-02 3.452048e+03 
8.534100e-02 3.403648e+03 
8.653800e-02 3.357976e+03 
8.759800e-02 3.317056e+03 
8.900300e-02 3.261427e+03 
9.009000e-02 3.216665e+03 
9.113300e-02 3.171661e+03 
9.239600e-02 3.115841e+03 
9.358000e-02 3.061404e+03 
9.496100e-02 2.994789e+03 
9.608400e-02 2.939611e+03 
9.727500e-02 2.880708e+03 
9.852600e-02 2.816375e+03 
9.973800e-02 2.754567e+03 
1.009000e-01 2.695927e+03 
1.020900e-01 2.635660e+03 
1.034000e-01 2.571009e+03 
1.046000e-01 2.513277e+03 
1.057200e-01 2.461039e+03 
1.069100e-01 2.407333e+03 
1.082500e-01 2.349556e+03 
1.093900e-01 2.302867e+03 
1.105400e-01 2.257633e+03 
1.116900e-01 2.215417e+03 
1.129600e-01 2.170833e+03 
1.142000e-01 2.130643e+03 
1.153300e-01 2.096009e+03 
1.166400e-01 2.058505e+03 
1.177800e-01 2.028391e+03 
1.190000e-01 1.997740e+03 
1.201200e-01 1.972107e+03 
1.213400e-01 1.945173e+03 
1.227100e-01 1.917869e+03 
1.238900e-01 1.895261e+03 
1.250700e-01 1.874143e+03 
1.263200e-01 1.852465e+03 
1.275500e-01 1.832015e+03 
1.287500e-01 1.812420e+03 
1.299900e-01 1.792474e+03 
1.311300e-01 1.774108e+03 
1.323500e-01 1.754223e+03 
1.335900e-01 1.733727e+03 
1.347100e-01 1.714635e+03 
1.359800e-01 1.692704e+03 
1.372100e-01 1.670440e+03 
1.384300e-01 1.648215e+03 
1.395700e-01 1.626389e+03 
1.407700e-01 1.603718e+03 
1.420300e-01 1.578578e+03 
1.432800e-01 1.554208e+03 
1.444500e-01 1.530567e+03 
1.456300e-01 1.507239e+03 
1.468900e-01 1.482463e+03 
1.480500e-01 1.460032e+03 
1.491700e-01 1.438885e+03 
1.503800e-01 1.416598e+03 
1.516400e-01 1.394051e+03 
1.528200e-01 1.374043e+03 
1.540200e-01 1.354114e+03 
1.551900e-01 1.335971e+03 
1.564300e-01 1.317346e+03 
1.576600e-01 1.299798e+03 
1.588700e-01 1.283535e+03 
1.600900e-01 1.267511e+03 
1.612700e-01 1.253313e+03 
1.625400e-01 1.238322e+03 
1.637600e-01 1.224645e+03 
1.649500e-01 1.211810e+03 
1.662200e-01 1.198416e+03 
1.674000e-01 1.186487e+03 
1.685000e-01 1.175554e+03 
1.697500e-01 1.163322e+03 
1.710300e-01 1.151007e+03 
1.722200e-01 1.139761e+03 
1.734400e-01 1.128120e+03 
1.746400e-01 1.116855e+03 
1.758700e-01 1.105353e+03 
1.770900e-01 1.093829e+03 
1.782700e-01 1.082872e+03 
1.794600e-01 1.071710e+03 
1.807000e-01 1.060077e+03 
1.819100e-01 1.048920e+03 
1.830100e-01 1.038623e+03 
1.842200e-01 1.027424e+03 
1.855000e-01 1.015769e+03 
1.867000e-01 1.004767e+03 
1.879200e-01 9.937675e+02 
1.890900e-01 9.833719e+02 
1.902800e-01 9.728726e+02 
1.915200e-01 9.621113e+02 
1.926900e-01 9.521295e+02 
1.939000e-01 9.419959e+02 
1.951700e-01 9.315342e+02 
1.963100e-01 9.223279e+02 
1.975100e-01 9.128799e+02 
1.987800e-01 9.030407e+02 
2.000100e-01 8.937244e+02 
2.012500e-01 8.846191e+02 
2.023400e-01 8.767331e+02 
2.036100e-01 8.677225e+02 
2.048900e-01 8.589460e+02 
2.060400e-01 8.511791e+02 
2.072200e-01 8.433364e+02 
2.084200e-01 8.356335e+02 
2.096900e-01 8.276027e+02 
2.109200e-01 8.199414e+02 
2.121100e-01 8.127376e+02 
2.132700e-01 8.058181e+02 
2.145200e-01 7.984673e+02 
2.157200e-01 7.915371e+02 
2.168800e-01 7.849414e+02 
2.180700e-01 7.782671e+02 
2.193400e-01 7.712339e+02 
2.206000e-01 7.643370e+02 
2.217500e-01 7.581285e+02 
2.229500e-01 7.517362e+02 
2.241400e-01 7.454001e+02 
2.253500e-01 7.390422e+02 
2.264900e-01 7.331308e+02 
2.277100e-01 7.268301e+02 
2.289900e-01 7.202473e+02 
2.301500e-01 7.143620e+02 
2.313600e-01 7.083020e+02 
2.325600e-01 7.022410e+02 
2.337700e-01 6.962102e+02 
2.350000e-01 6.901611e+02 
2.362000e-01 6.842826e+02 
2.374100e-01 6.783676e+02 
2.386500e-01 6.723862e+02 
2.399100e-01 6.663899e+02 
2.410400e-01 6.610085e+02 
2.422500e-01 6.553091e+02 
2.435000e-01 6.494984e+02 
2.447300e-01 6.438465e+02 
2.458700e-01 6.386365e+02 
2.470600e-01 6.332647e+02 
2.483300e-01 6.276056e+02 
2.495600e-01 6.221973e+02 
2.507600e-01 6.169889e+02 
2.519600e-01 6.118452e+02 
2.532200e-01 6.065126e+02 
2.543700e-01 6.017315e+02 
2.555500e-01 5.969014e+02 
2.568000e-01 5.918477e+02 
2.580100e-01 5.870164e+02 
2.592400e-01 5.822117e+02 
2.604100e-01 5.777163e+02 
2.616100e-01 5.731597e+02 
2.628400e-01 5.685452e+02 
2.640600e-01 5.640879e+02 
2.652200e-01 5.599244e+02 
2.664300e-01 5.556312e+02 
2.676500e-01 5.513531e+02 
2.688400e-01 5.472798e+02 
2.700700e-01 5.431501e+02 
2.712400e-01 5.392663e+02 
2.724800e-01 5.351968e+02 
2.736700e-01 5.313721e+02 
2.748800e-01 5.275638e+02 
2.761000e-01 5.237671e+02 
2.773200e-01 5.200129e+02 
2.785400e-01 5.163183e+02 
2.797000e-01 5.128804e+02 
2.808900e-01 5.093909e+02 
2.821400e-01 5.057658e+02 
2.833900e-01 5.021827e+02 
2.845500e-01 4.989266e+02 
2.857800e-01 4.955106e+02 
2.870300e-01 4.920770e+02 
2.882100e-01 4.888703e+02 
2.893900e-01 4.857125e+02 
2.906300e-01 4.824375e+02 
2.918900e-01 4.791457e+02 
2.930500e-01 4.761468e+02 
2.942500e-01 4.730779e+02 
2.954200e-01 4.701224e+02 
2.966500e-01 4.670470e+02 
2.978900e-01 4.639791e+02 
2.990400e-01 4.611625e+02 
3.002700e-01 4.581816e+02 
3.015100e-01 4.552082e+02 
3.026800e-01 4.524308e+02 
3.038500e-01 4.496805e+02 
3.050300e-01 4.469336e+02 
3.062600e-01 4.440940e+02 
3.075000e-01 4.412604e+02 
3.087000e-01 4.385456e+02 
3.099100e-01 4.358351e+02 
3.111200e-01 4.331490e+02 
3.123100e-01 4.305292e+02 
3.135300e-01 4.278694e+02 
3.147300e-01 4.252787e+02 
3.159900e-01 4.225853e+02 
3.171800e-01 4.200636e+02 
3.183700e-01 4.175641e+02 
3.196300e-01 4.149433e+02 
3.208400e-01 4.124510e+02 
3.220300e-01 4.100230e+02 
3.232000e-01 4.076557e+02 
3.244300e-01 4.051895e+02 
3.256700e-01 4.027270e+02 
3.269200e-01 4.002687e+02 
3.280800e-01 3.980086e+02 
3.292500e-01 3.957494e+02 
3.304800e-01 3.933960e+02 
3.317100e-01 3.910648e+02 
3.328900e-01 3.888489e+02 
3.340700e-01 3.866528e+02 
3.353600e-01 3.842759e+02 
3.365300e-01 3.821406e+02 
3.377100e-01 3.800061e+02 
3.389200e-01 3.778368e+02 
3.401600e-01 3.756341e+02 
3.413700e-01 3.735085e+02 
3.425300e-01 3.714916e+02 
3.437700e-01 3.693547e+02 
3.449800e-01 3.672882e+02 
3.461800e-01 3.652569e+02 
3.473600e-01 3.632790e+02 
3.485800e-01 3.612571e+02 
3.498100e-01 3.592368e+02 
3.510200e-01 3.572668e+02 
3.522000e-01 3.553622e+02 
3.533900e-01 3.534577e+02 
3.546400e-01 3.514859e+02 
3.558400e-01 3.496101e+02 
3.570600e-01 3.477193e+02 
3.582700e-01 3.458601e+02 
3.595000e-01 3.439864e+02 
3.607100e-01 3.421665e+02 
3.618900e-01 3.404124e+02 
3.631200e-01 3.385993e+02 
3.643200e-01 3.368453e+02 
3.655500e-01 3.350625e+02 
3.667300e-01 3.333664e+02 
3.679500e-01 3.316408e+02 
3.691900e-01 3.299017e+02 
3.703600e-01 3.282742e+02 
3.715700e-01 3.266046e+02 
3.727700e-01 3.249624e+02 
3.739900e-01 3.233114e+02 
3.752000e-01 3.216963e+02 
3.763900e-01 3.201207e+02 
3.775800e-01 3.185575e+02 
3.788200e-01 3.169418e+02 
3.800300e-01 3.153780e+02 
3.812100e-01 3.138735e+02 
3.824200e-01 3.123484e+02 
3.836100e-01 3.108603e+02 
3.848600e-01 3.093097e+02 
3.860400e-01 3.078574e+02 
3.872400e-01 3.063920e+02 
3.884600e-01 3.049242e+02 
3.896500e-01 3.035075e+02 
3.908700e-01 3.020664e+02 
3.920600e-01 3.006715e+02 
3.933100e-01 2.992176e+02 
3.945300e-01 2.978098e+02 
3.957200e-01 2.964584e+02 
3.969300e-01 2.950978e+02 
3.981700e-01 2.937142e+02 
3.993500e-01 2.924075e+02 
4.094840e-01 2.816238e+02 
4.272360e-01 2.645752e+02 
4.454600e-01 2.490506e+02 
4.630560e-01 2.356515e+02 
4.804610e-01 2.236833e+02 
4.980690e-01 2.126845e+02 
5.159230e-01 2.025061e+02 
5.317440e-01 1.942022e+02 
5.489640e-01 1.858362e+02 
5.671990e-01 1.776707e+02 
5.838690e-01 1.707490e+02 
6.018840e-01 1.638135e+02 
6.202330e-01 1.572736e+02 
6.379250e-01 1.514081e+02 
6.545410e-01 1.462741e+02 
6.714560e-01 1.413829e+02 
6.892080e-01 1.365756e+02 
7.066010e-01 1.321766e+02 
7.240540e-01 1.280335e+02 
7.420450e-01 1.240347e+02 
7.593780e-01 1.204202e+02 
7.764720e-01 1.170609e+02 
7.942840e-01 1.137663e+02 
8.116170e-01 1.107431e+02 
8.288310e-01 1.079069e+02 
8.462240e-01 1.051928e+02 
8.631980e-01 1.026831e+02 
8.810700e-01 1.001768e+02 
8.989410e-01 9.780145e+01 
9.166330e-01 9.556387e+01 
9.345640e-01 9.340906e+01 
9.515980e-01 9.145903e+01 
9.688720e-01 8.956725e+01 
9.865640e-01 8.771840e+01 
1.031870e+00 8.332891e+01 
1.063490e+00 8.053292e+01 
1.097920e+00 7.770902e+01 
1.134370e+00 7.492993e+01 
1.167730e+00 7.256134e+01 
1.203830e+00 7.016271e+01 
1.240470e+00 6.788318e+01 
1.275790e+00 6.581940e+01 
1.309140e+00 6.398283e+01 
1.342970e+00 6.220907e+01 
1.378420e+00 6.044991e+01 
1.413200e+00 5.881152e+01 
1.448110e+00 5.724561e+01 
1.484090e+00 5.570762e+01 
1.518820e+00 5.429263e+01 
1.552880e+00 5.296242e+01 
1.588630e+00 5.162592e+01 
1.623230e+00 5.038446e+01 
1.657720e+00 4.919988e+01 
1.692450e+00 4.805082e+01 
1.726400e+00 4.697058e+01 
1.762200e+00 4.587204e+01 
1.797880e+00 4.481850e+01 
1.833270e+00 4.381129e+01 
1.869070e+00 4.282964e+01 
1.903200e+00 4.192377e+01 
1.937740e+00 4.103833e+01 
1.973190e+00 4.015962e+01 
2.007440e+00 3.933796e+01 
2.042160e+00 3.853025e+01 
2.077900e+00 3.772477e+01 
2.112390e+00 3.697364e+01 
2.146220e+00 3.625556e+01 
2.181600e+00 3.552800e+01 
2.216930e+00 3.482144e+01 
2.250760e+00 3.416469e+01 
2.286500e+00 3.349154e+01 
2.321770e+00 3.284614e+01 
2.355950e+00 3.223620e+01 
2.391280e+00 3.162301e+01 
2.426240e+00 3.103187e+01 
2.460670e+00 3.046563e+01 
2.495640e+00 2.990701e+01 
2.531080e+00 2.935397e+01 
2.566220e+00 2.881886e+01 
2.600830e+00 2.830534e+01 
2.635080e+00 2.781024e+01 
2.670340e+00 2.731299e+01 
2.705970e+00 2.682248e+01 
2.740040e+00 2.636491e+01 
2.774520e+00 2.591222e+01 
2.809730e+00 2.546040e+01 
2.844390e+00 2.502681e+01 
2.879960e+00 2.459224e+01 
2.914860e+00 2.417499e+01 
2.949410e+00 2.377183e+01 
2.984440e+00 2.337104e+01 
3.019760e+00 2.297659e+01 
3.054730e+00 2.259582e+01 
3.089030e+00 2.222837e+01 
3.124060e+00 2.186230e+01 
3.159560e+00 2.149993e+01 
3.194710e+00 2.114795e+01 
3.229010e+00 2.081253e+01 
3.263320e+00 2.048241e+01 
3.297930e+00 2.015717e+01 
3.332830e+00 1.983582e+01 
3.368040e+00 1.951831e+01 
3.403300e+00 1.920732e+01 
3.438450e+00 1.890303e+01 
3.473060e+00 1.861044e+01 
3.508440e+00 1.831585e+01 
3.543110e+00 1.803399e+01 
3.577470e+00 1.775949e+01 
3.613040e+00 1.748155e+01 
3.648120e+00 1.721212e+01 
3.682910e+00 1.695077e+01 
3.718050e+00 1.669204e+01 
3.753320e+00 1.643738e+01 
3.787980e+00 1.619128e+01 
3.822290e+00 1.595266e+01 
3.857020e+00 1.571569e+01 
3.891920e+00 1.548232e+01 
3.926650e+00 1.525408e+01 
3.961970e+00 1.502666e+01 
3.997360e+00 1.480259e+01 
4.031670e+00 1.458992e+01 
4.066330e+00 1.437859e+01 
4.101420e+00 1.416927e+01 
4.136200e+00 1.396463e+01 
4.170810e+00 1.376538e+01 
4.206250e+00 1.356467e+01 
4.241580e+00 1.336872e+01 
4.276300e+00 1.317937e+01 
4.310970e+00 1.299375e+01 
4.346120e+00 1.280905e+01 
4.380600e+00 1.263087e+01 
4.414730e+00 1.245805e+01 
4.450350e+00 1.228015e+01 
4.485320e+00 1.210911e+01 
4.519810e+00 1.194332e+01 
4.555430e+00 1.177533e+01 
4.590870e+00 1.161119e+01 
4.625480e+00 1.145325e+01 
4.659910e+00 1.129920e+01 
4.695230e+00 1.114363e+01 
4.729960e+00 1.099357e+01 
4.764450e+00 1.084723e+01 
4.799530e+00 1.070094e+01 
4.834910e+00 1.055625e+01 
4.869700e+00 1.041585e+01 
4.904370e+00 1.027844e+01 
4.939450e+00 1.014190e+01 
4.973940e+00 1.000987e+01 
5.008430e+00 9.880274e+00 
5.043810e+00 9.749412e+00 
5.078840e+00 9.622029e+00 
5.113500e+00 9.498297e+00 
5.148890e+00 9.373882e+00 
5.184210e+00 9.251975e+00 
5.219060e+00 9.133764e+00 
5.253660e+00 9.018200e+00 
5.288570e+00 8.903669e+00 
5.323420e+00 8.791120e+00 
5.358440e+00 8.679750e+00 
5.393590e+00 8.569937e+00 
5.428310e+00 8.463338e+00 
5.462800e+00 8.359255e+00 
5.497640e+00 8.255915e+00 
5.532670e+00 8.153523e+00 
5.567280e+00 8.053994e+00 
5.602000e+00 7.955833e+00 
5.637270e+00 7.857661e+00 
5.672410e+00 7.761476e+00 
5.707020e+00 7.668324e+00 
5.742040e+00 7.575541e+00 
5.777430e+00 7.483324e+00 
5.812210e+00 7.394196e+00 
5.846820e+00 7.306839e+00 
5.881610e+00 7.220422e+00 
5.916510e+00 7.135136e+00 
5.951600e+00 7.050750e+00 
5.986560e+00 6.968021e+00 
6.021830e+00 6.885898e+00 
6.056490e+00 6.806431e+00 
6.091160e+00 6.728146e+00 
6.125830e+00 6.651084e+00 
6.161090e+00 6.573937e+00 
6.195760e+00 6.499258e+00 
6.230420e+00 6.425749e+00 
6.265690e+00 6.352107e+00 
6.300950e+00 6.279719e+00 
6.335620e+00 6.209631e+00 
6.370880e+00 6.139435e+00 
6.405550e+00 6.071446e+00 
6.440220e+00 6.004470e+00 
6.475480e+00 5.937376e+00 
6.510150e+00 5.872415e+00 
6.544810e+00 5.808488e+00 
6.580080e+00 5.744399e+00 
6.614750e+00 5.682328e+00 
6.649410e+00 5.621197e+00 
6.684080e+00 5.560938e+00 
6.719340e+00 5.500543e+00 
6.754010e+00 5.442062e+00 
6.788680e+00 5.384517e+00 
6.823940e+00 5.326831e+00 
6.859800e+00 5.269013e+00 
6.894470e+00 5.214027e+00 
6.929140e+00 5.159851e+00 
6.963800e+00 5.106445e+00 
6.999070e+00 5.052865e+00 
7.033730e+00 5.001023e+00 
7.068400e+00 4.949879e+00 
7.103660e+00 4.898582e+00 
7.138330e+00 4.848866e+00 
7.173600e+00 4.799040e+00 
7.208260e+00 4.750743e+00 
7.243530e+00 4.702262e+00 
7.277600e+00 4.656151e+00 
7.312860e+00 4.609151e+00 
7.348120e+00 4.562784e+00 
7.382790e+00 4.517800e+00 
7.417460e+00 4.473474e+00 
7.452720e+00 4.429025e+00 
7.487390e+00 4.385893e+00 
7.522650e+00 4.342601e+00 
7.557320e+00 4.300686e+00 
7.591990e+00 4.259345e+00 
7.627250e+00 4.217844e+00 
7.662510e+00 4.176881e+00 
7.697180e+00 4.137257e+00 
7.731850e+00 4.098186e+00 
7.766510e+00 4.059617e+00 
7.801180e+00 4.021521e+00 
7.836440e+00 3.983362e+00 
7.871110e+00 3.946372e+00 
7.906380e+00 3.909210e+00 
7.941040e+00 3.873145e+00 
7.976310e+00 3.836961e+00 
8.011570e+00 3.801309e+00 
8.046240e+00 3.766683e+00 
8.080900e+00 3.732487e+00 
8.115570e+00 3.698725e+00 
8.150830e+00 3.664925e+00 
8.185500e+00 3.632091e+00 
8.220770e+00 3.599090e+00 
8.255430e+00 3.567048e+00 
8.290100e+00 3.535527e+00 
8.324770e+00 3.504393e+00 
8.359430e+00 3.473633e+00 
8.394700e+00 3.442700e+00 
8.429960e+00 3.412211e+00 
8.464630e+00 3.382652e+00 
8.499890e+00 3.352939e+00 
8.534560e+00 3.324062e+00 
8.569200e+00 3.295539e+00 
