# Parameters:
# omega_b = 0.023169, omega_m = 0.126890, n_s = 0.964961, h = 72.716535, w = -1.000000, sigma_8 = 0.756693
# z = 1.900000
#
# k[1/Mpc] # P(k):
8.694000e-04 3.688610e+03 
2.077466e-03 7.799926e+03 
3.285532e-03 1.091182e+04 
4.493598e-03 1.322712e+04 
5.701664e-03 1.486808e+04 
6.909730e-03 1.596025e+04 
8.117797e-03 1.663608e+04 
9.325863e-03 1.696304e+04 
1.053393e-02 1.700458e+04 
1.174199e-02 1.681746e+04 
1.295006e-02 1.643945e+04 
1.415813e-02 1.592010e+04 
1.536619e-02 1.530091e+04 
1.657426e-02 1.461097e+04 
1.778233e-02 1.387647e+04 
1.899039e-02 1.313397e+04 
2.019846e-02 1.240276e+04 
2.140652e-02 1.169889e+04 
2.261459e-02 1.103118e+04 
2.382266e-02 1.040931e+04 
2.503072e-02 9.838795e+03 
2.623879e-02 9.320583e+03 
2.744685e-02 8.854941e+03 
2.865492e-02 8.440177e+03 
2.986299e-02 8.072565e+03 
3.100100e-02 7.768020e+03 
3.220400e-02 7.485312e+03 
3.288100e-02 7.343475e+03 
3.424300e-02 7.089405e+03 
3.555100e-02 6.878521e+03 
3.686000e-02 6.694770e+03 
3.795000e-02 6.557913e+03 
3.929100e-02 6.405548e+03 
4.039800e-02 6.287726e+03 
4.164000e-02 6.160681e+03 
4.294400e-02 6.026415e+03 
4.415000e-02 5.901155e+03 
4.542900e-02 5.759890e+03 
4.660900e-02 5.624928e+03 
4.782300e-02 5.473398e+03 
4.892900e-02 5.329852e+03 
5.031200e-02 5.140650e+03 
5.155900e-02 4.961389e+03 
5.238100e-02 4.840391e+03 
5.378200e-02 4.631226e+03 
5.513400e-02 4.427658e+03 
5.627600e-02 4.256987e+03 
5.735300e-02 4.099454e+03 
5.870100e-02 3.909130e+03 
5.988700e-02 3.750273e+03 
6.113500e-02 3.593058e+03 
6.225900e-02 3.461519e+03 
6.340100e-02 3.338355e+03 
6.480200e-02 3.200882e+03 
6.601100e-02 3.095571e+03 
6.725500e-02 2.999023e+03 
6.829100e-02 2.928135e+03 
6.958600e-02 2.848676e+03 
7.071100e-02 2.788411e+03 
7.192300e-02 2.731001e+03 
7.307400e-02 2.682836e+03 
7.412300e-02 2.643520e+03 
7.550400e-02 2.597710e+03 
7.663100e-02 2.563714e+03 
7.791200e-02 2.528258e+03 
7.912700e-02 2.496082e+03 
8.027600e-02 2.465994e+03 
8.138400e-02 2.436770e+03 
8.272200e-02 2.400389e+03 
8.406100e-02 2.362095e+03 
8.534100e-02 2.322327e+03 
8.653800e-02 2.282128e+03 
8.759800e-02 2.244795e+03 
8.900300e-02 2.192440e+03 
9.009000e-02 2.149510e+03 
9.113300e-02 2.106254e+03 
9.239600e-02 2.052835e+03 
9.358000e-02 2.001348e+03 
9.496100e-02 1.939801e+03 
9.608400e-02 1.889949e+03 
9.727500e-02 1.837703e+03 
9.852600e-02 1.783159e+03 
9.973800e-02 1.732168e+03 
1.009000e-01 1.684948e+03 
1.020900e-01 1.639324e+03 
1.034000e-01 1.591906e+03 
1.046000e-01 1.551109e+03 
1.057200e-01 1.516853e+03 
1.069100e-01 1.482616e+03 
1.082500e-01 1.448564e+03 
1.093900e-01 1.422712e+03 
1.105400e-01 1.398630e+03 
1.116900e-01 1.378215e+03 
1.129600e-01 1.357265e+03 
1.142000e-01 1.339814e+03 
1.153300e-01 1.325042e+03 
1.166400e-01 1.309492e+03 
1.177800e-01 1.296782e+03 
1.190000e-01 1.283739e+03 
1.201200e-01 1.271616e+03 
1.213400e-01 1.258647e+03 
1.227100e-01 1.242738e+03 
1.238900e-01 1.228879e+03 
1.250700e-01 1.213660e+03 
1.263200e-01 1.197151e+03 
1.275500e-01 1.179596e+03 
1.287500e-01 1.161984e+03 
1.299900e-01 1.142816e+03 
1.311300e-01 1.124883e+03 
1.323500e-01 1.105057e+03 
1.335900e-01 1.084890e+03 
1.347100e-01 1.066434e+03 
1.359800e-01 1.045791e+03 
1.372100e-01 1.025857e+03 
1.384300e-01 1.006561e+03 
1.395700e-01 9.889154e+02 
1.407700e-01 9.708142e+02 
1.420300e-01 9.526221e+02 
1.432800e-01 9.350204e+02 
1.444500e-01 9.196235e+02 
1.456300e-01 9.044421e+02 
1.468900e-01 8.893144e+02 
1.480500e-01 8.759066e+02 
1.491700e-01 8.636337e+02 
1.503800e-01 8.511646e+02 
1.516400e-01 8.386312e+02 
1.528200e-01 8.278956e+02 
1.540200e-01 8.171939e+02 
1.551900e-01 8.075554e+02 
1.564300e-01 7.976819e+02 
1.576600e-01 7.883051e+02 
1.588700e-01 7.795275e+02 
1.600900e-01 7.708535e+02 
1.612700e-01 7.627900e+02 
1.625400e-01 7.542734e+02 
1.637600e-01 7.461592e+02 
1.649500e-01 7.383371e+02 
1.662200e-01 7.300820e+02 
1.674000e-01 7.222146e+02 
1.685000e-01 7.150048e+02 
1.697500e-01 7.066734e+02 
1.710300e-01 6.980221e+02 
1.722200e-01 6.901261e+02 
1.734400e-01 6.816003e+02 
1.746400e-01 6.733420e+02 
1.758700e-01 6.648755e+02 
1.770900e-01 6.563171e+02 
1.782700e-01 6.481879e+02 
1.794600e-01 6.399547e+02 
1.807000e-01 6.314105e+02 
1.819100e-01 6.232255e+02 
1.830100e-01 6.158561e+02 
1.842200e-01 6.078789e+02 
1.855000e-01 5.995996e+02 
1.867000e-01 5.920873e+02 
1.879200e-01 5.845835e+02 
1.890900e-01 5.775490e+02 
1.902800e-01 5.707127e+02 
1.915200e-01 5.637105e+02 
1.926900e-01 5.572836e+02 
1.939000e-01 5.509707e+02 
1.951700e-01 5.444559e+02 
1.963100e-01 5.387756e+02 
1.975100e-01 5.330837e+02 
1.987800e-01 5.271570e+02 
2.000100e-01 5.215721e+02 
2.012500e-01 5.161749e+02 
2.023400e-01 5.115008e+02 
2.036100e-01 5.061582e+02 
2.048900e-01 5.009457e+02 
2.060400e-01 4.963333e+02 
2.072200e-01 4.916697e+02 
2.084200e-01 4.870109e+02 
2.096900e-01 4.821544e+02 
2.109200e-01 4.775221e+02 
2.121100e-01 4.730558e+02 
2.132700e-01 4.687611e+02 
2.145200e-01 4.641998e+02 
2.157200e-01 4.598252e+02 
2.168800e-01 4.556283e+02 
2.180700e-01 4.513827e+02 
2.193400e-01 4.468850e+02 
2.206000e-01 4.424292e+02 
2.217500e-01 4.384199e+02 
2.229500e-01 4.342937e+02 
2.241400e-01 4.301874e+02 
2.253500e-01 4.260686e+02 
2.264900e-01 4.222408e+02 
2.277100e-01 4.181830e+02 
2.289900e-01 4.139678e+02 
2.301500e-01 4.102012e+02 
2.313600e-01 4.063251e+02 
2.325600e-01 4.025289e+02 
2.337700e-01 3.987531e+02 
2.350000e-01 3.949675e+02 
2.362000e-01 3.913357e+02 
2.374100e-01 3.877361e+02 
2.386500e-01 3.840972e+02 
2.399100e-01 3.804504e+02 
2.410400e-01 3.772599e+02 
2.422500e-01 3.738915e+02 
2.435000e-01 3.704579e+02 
2.447300e-01 3.671332e+02 
2.458700e-01 3.641268e+02 
2.470600e-01 3.610272e+02 
2.483300e-01 3.577620e+02 
2.495600e-01 3.546602e+02 
2.507600e-01 3.516985e+02 
2.519600e-01 3.487735e+02 
2.532200e-01 3.457410e+02 
2.543700e-01 3.430283e+02 
2.555500e-01 3.402919e+02 
2.568000e-01 3.374287e+02 
2.580100e-01 3.346915e+02 
2.592400e-01 3.319563e+02 
2.604100e-01 3.293914e+02 
2.616100e-01 3.267917e+02 
2.628400e-01 3.241588e+02 
2.640600e-01 3.215873e+02 
2.652200e-01 3.191741e+02 
2.664300e-01 3.166859e+02 
2.676500e-01 3.142065e+02 
2.688400e-01 3.118163e+02 
2.700700e-01 3.093744e+02 
2.712400e-01 3.070783e+02 
2.724800e-01 3.046726e+02 
2.736700e-01 3.023877e+02 
2.748800e-01 3.000877e+02 
2.761000e-01 2.977952e+02 
2.773200e-01 2.955289e+02 
2.785400e-01 2.932857e+02 
2.797000e-01 2.911711e+02 
2.808900e-01 2.890253e+02 
2.821400e-01 2.867967e+02 
2.833900e-01 2.845933e+02 
2.845500e-01 2.825608e+02 
2.857800e-01 2.804293e+02 
2.870300e-01 2.782874e+02 
2.882100e-01 2.762877e+02 
2.893900e-01 2.743048e+02 
2.906300e-01 2.722413e+02 
2.918900e-01 2.701680e+02 
2.930500e-01 2.682799e+02 
2.942500e-01 2.663456e+02 
2.954200e-01 2.644747e+02 
2.966500e-01 2.625287e+02 
2.978900e-01 2.605881e+02 
2.990400e-01 2.588073e+02 
3.002700e-01 2.569208e+02 
3.015100e-01 2.550386e+02 
3.026800e-01 2.532812e+02 
3.038500e-01 2.515416e+02 
3.050300e-01 2.498048e+02 
3.062600e-01 2.480115e+02 
3.075000e-01 2.462227e+02 
3.087000e-01 2.445096e+02 
3.099100e-01 2.427998e+02 
3.111200e-01 2.411083e+02 
3.123100e-01 2.394629e+02 
3.135300e-01 2.377930e+02 
3.147300e-01 2.361672e+02 
3.159900e-01 2.344775e+02 
3.171800e-01 2.329009e+02 
3.183700e-01 2.313417e+02 
3.196300e-01 2.297075e+02 
3.208400e-01 2.281540e+02 
3.220300e-01 2.266412e+02 
3.232000e-01 2.251722e+02 
3.244300e-01 2.236446e+02 
3.256700e-01 2.221199e+02 
3.269200e-01 2.205982e+02 
3.280800e-01 2.191998e+02 
3.292500e-01 2.178082e+02 
3.304800e-01 2.163611e+02 
3.317100e-01 2.149281e+02 
3.328900e-01 2.135664e+02 
3.340700e-01 2.122173e+02 
3.353600e-01 2.107625e+02 
3.365300e-01 2.094579e+02 
3.377100e-01 2.081541e+02 
3.389200e-01 2.068295e+02 
3.401600e-01 2.054849e+02 
3.413700e-01 2.041910e+02 
3.425300e-01 2.029656e+02 
3.437700e-01 2.016678e+02 
3.449800e-01 2.004131e+02 
3.461800e-01 1.991801e+02 
3.473600e-01 1.979809e+02 
3.485800e-01 1.967577e+02 
3.498100e-01 1.955357e+02 
3.510200e-01 1.943446e+02 
3.522000e-01 1.931933e+02 
3.533900e-01 1.920424e+02 
3.546400e-01 1.908528e+02 
3.558400e-01 1.897215e+02 
3.570600e-01 1.885815e+02 
3.582700e-01 1.874609e+02 
3.595000e-01 1.863319e+02 
3.607100e-01 1.852353e+02 
3.618900e-01 1.841786e+02 
3.631200e-01 1.830866e+02 
3.643200e-01 1.820306e+02 
3.655500e-01 1.809574e+02 
3.667300e-01 1.799368e+02 
3.679500e-01 1.788978e+02 
3.691900e-01 1.778510e+02 
3.703600e-01 1.768716e+02 
3.715700e-01 1.758672e+02 
3.727700e-01 1.748794e+02 
3.739900e-01 1.738857e+02 
3.752000e-01 1.729123e+02 
3.763900e-01 1.719628e+02 
3.775800e-01 1.710212e+02 
3.788200e-01 1.700481e+02 
3.800300e-01 1.691065e+02 
3.812100e-01 1.681992e+02 
3.824200e-01 1.672787e+02 
3.836100e-01 1.663807e+02 
3.848600e-01 1.654453e+02 
3.860400e-01 1.645694e+02 
3.872400e-01 1.636858e+02 
3.884600e-01 1.627985e+02 
3.896500e-01 1.619415e+02 
3.908700e-01 1.610698e+02 
3.920600e-01 1.602264e+02 
3.933100e-01 1.593476e+02 
3.945300e-01 1.584968e+02 
3.957200e-01 1.576771e+02 
3.969300e-01 1.568512e+02 
3.981700e-01 1.560116e+02 
3.993500e-01 1.552189e+02 
4.094840e-01 1.486745e+02 
4.272360e-01 1.382716e+02 
4.454600e-01 1.287897e+02 
4.630560e-01 1.206197e+02 
4.804610e-01 1.133607e+02 
4.980690e-01 1.067413e+02 
5.159230e-01 1.006758e+02 
5.317440e-01 9.577715e+01 
5.489640e-01 9.089789e+01 
5.671990e-01 8.618736e+01 
5.838690e-01 8.223663e+01 
6.018840e-01 7.831193e+01 
6.202330e-01 7.464415e+01 
6.379250e-01 7.137949e+01 
6.545410e-01 6.854170e+01 
6.714560e-01 6.584977e+01 
6.892080e-01 6.322081e+01 
7.066010e-01 6.082352e+01 
7.240540e-01 5.857564e+01 
7.420450e-01 5.641271e+01 
7.593780e-01 5.446303e+01 
7.764720e-01 5.265633e+01 
7.942840e-01 5.088738e+01 
8.116170e-01 4.926942e+01 
8.288310e-01 4.775480e+01 
8.462240e-01 4.630957e+01 
8.631980e-01 4.497640e+01 
8.810700e-01 4.364866e+01 
8.989410e-01 4.239263e+01 
9.166330e-01 4.121463e+01 
9.345640e-01 4.008308e+01 
9.515980e-01 3.906112e+01 
9.688720e-01 3.807467e+01 
9.865640e-01 3.711329e+01 
1.031870e+00 3.484826e+01 
1.063490e+00 3.341888e+01 
1.097920e+00 3.198642e+01 
1.134370e+00 3.059161e+01 
1.167730e+00 2.941368e+01 
1.203830e+00 2.823381e+01 
1.240470e+00 2.712459e+01 
1.275790e+00 2.613157e+01 
1.309140e+00 2.525524e+01 
1.342970e+00 2.442154e+01 
1.378420e+00 2.360173e+01 
1.413200e+00 2.284645e+01 
1.448110e+00 2.213246e+01 
1.484090e+00 2.143848e+01 
1.518820e+00 2.080637e+01 
1.552880e+00 2.021886e+01 
1.588630e+00 1.963412e+01 
1.623230e+00 1.909680e+01 
1.657720e+00 1.858767e+01 
1.692450e+00 1.809915e+01 
1.726400e+00 1.764375e+01 
1.762200e+00 1.718504e+01 
1.797880e+00 1.674873e+01 
1.833270e+00 1.633522e+01 
1.869070e+00 1.593500e+01 
1.903200e+00 1.556928e+01 
1.937740e+00 1.521413e+01 
1.973190e+00 1.486390e+01 
2.007440e+00 1.453877e+01 
2.042160e+00 1.422152e+01 
2.077900e+00 1.390727e+01 
2.112390e+00 1.361543e+01 
2.146220e+00 1.333901e+01 
2.181600e+00 1.306009e+01 
2.216930e+00 1.279118e+01 
2.250760e+00 1.254240e+01 
2.286500e+00 1.228846e+01 
2.321770e+00 1.204631e+01 
2.355950e+00 1.181896e+01 
2.391280e+00 1.159140e+01 
2.426240e+00 1.137318e+01 
2.460670e+00 1.116490e+01 
2.495640e+00 1.095993e+01 
2.531080e+00 1.075808e+01 
2.566220e+00 1.056384e+01 
2.600830e+00 1.037811e+01 
2.635080e+00 1.019957e+01 
2.670340e+00 1.002068e+01 
2.705970e+00 9.844948e+00 
2.740040e+00 9.681546e+00 
2.774520e+00 9.520445e+00 
2.809730e+00 9.360147e+00 
2.844390e+00 9.206615e+00 
2.879960e+00 9.053126e+00 
2.914860e+00 8.906188e+00 
2.949410e+00 8.764484e+00 
2.984440e+00 8.624205e+00 
3.019760e+00 8.486284e+00 
3.054730e+00 8.353246e+00 
3.089030e+00 8.225395e+00 
3.124060e+00 8.098051e+00 
3.159560e+00 7.972050e+00 
3.194710e+00 7.850067e+00 
3.229010e+00 7.733940e+00 
3.263320e+00 7.619909e+00 
3.297930e+00 7.507618e+00 
3.332830e+00 7.396832e+00 
3.368040e+00 7.287453e+00 
3.403300e+00 7.180368e+00 
3.438450e+00 7.075746e+00 
3.473060e+00 6.975157e+00 
3.508440e+00 6.874052e+00 
3.543110e+00 6.777290e+00 
3.577470e+00 6.683093e+00 
3.613040e+00 6.587734e+00 
3.648120e+00 6.495421e+00 
3.682910e+00 6.405815e+00 
3.718050e+00 6.317013e+00 
3.753320e+00 6.229680e+00 
3.787980e+00 6.145415e+00 
3.822290e+00 6.063644e+00 
3.857020e+00 5.982365e+00 
3.891920e+00 5.902308e+00 
3.926650e+00 5.824036e+00 
3.961970e+00 5.746007e+00 
3.997360e+00 5.669102e+00 
4.031670e+00 5.596061e+00 
4.066330e+00 5.523427e+00 
4.101420e+00 5.451436e+00 
4.136200e+00 5.381040e+00 
4.170810e+00 5.312449e+00 
4.206250e+00 5.243262e+00 
4.241580e+00 5.175657e+00 
4.276300e+00 5.110301e+00 
4.310970e+00 5.046200e+00 
4.346120e+00 4.982348e+00 
4.380600e+00 4.920670e+00 
4.414730e+00 4.860803e+00 
4.450350e+00 4.799140e+00 
4.485320e+00 4.739806e+00 
4.519810e+00 4.682142e+00 
4.555430e+00 4.623622e+00 
4.590870e+00 4.566409e+00 
4.625480e+00 4.511339e+00 
4.659910e+00 4.457587e+00 
4.695230e+00 4.403171e+00 
4.729960e+00 4.350624e+00 
4.764450e+00 4.299291e+00 
4.799530e+00 4.247853e+00 
4.834910e+00 4.196940e+00 
4.869700e+00 4.147496e+00 
4.904370e+00 4.099066e+00 
4.939450e+00 4.050871e+00 
4.973940e+00 4.004135e+00 
5.008430e+00 3.958223e+00 
5.043810e+00 3.911789e+00 
5.078840e+00 3.866530e+00 
5.113500e+00 3.822533e+00 
5.148890e+00 3.778132e+00 
5.184210e+00 3.734586e+00 
5.219060e+00 3.692311e+00 
5.253660e+00 3.650906e+00 
5.288570e+00 3.609840e+00 
5.323420e+00 3.569426e+00 
5.358440e+00 3.529375e+00 
5.393590e+00 3.489852e+00 
5.428310e+00 3.451345e+00 
5.462800e+00 3.413658e+00 
5.497640e+00 3.376212e+00 
5.532670e+00 3.339046e+00 
5.567280e+00 3.302879e+00 
5.602000e+00 3.267181e+00 
5.637270e+00 3.231370e+00 
5.672410e+00 3.196237e+00 
5.707020e+00 3.162186e+00 
5.742040e+00 3.128160e+00 
5.777430e+00 3.094298e+00 
5.812210e+00 3.061545e+00 
5.846820e+00 3.029364e+00 
5.881610e+00 2.997492e+00 
5.916510e+00 2.966013e+00 
5.951600e+00 2.934777e+00 
5.986560e+00 2.904100e+00 
6.021830e+00 2.873626e+00 
6.056490e+00 2.844077e+00 
6.091160e+00 2.814913e+00 
6.125830e+00 2.786184e+00 
6.161090e+00 2.757379e+00 
6.195760e+00 2.729425e+00 
6.230420e+00 2.701889e+00 
6.265690e+00 2.674279e+00 
6.300950e+00 2.647022e+00 
6.335620e+00 2.620612e+00 
6.370880e+00 2.594143e+00 
6.405550e+00 2.568451e+00 
6.440220e+00 2.543108e+00 
6.475480e+00 2.517703e+00 
6.510150e+00 2.493068e+00 
6.544810e+00 2.468762e+00 
6.580080e+00 2.444377e+00 
6.614750e+00 2.420743e+00 
6.649410e+00 2.397409e+00 
6.684080e+00 2.374384e+00 
6.719340e+00 2.351291e+00 
6.754010e+00 2.328891e+00 
6.788680e+00 2.306779e+00 
6.823940e+00 2.284598e+00 
6.859800e+00 2.262351e+00 
6.894470e+00 2.241132e+00 
6.929140e+00 2.220196e+00 
6.963800e+00 2.199543e+00 
6.999070e+00 2.178807e+00 
7.033730e+00 2.158693e+00 
7.068400e+00 2.138836e+00 
7.103660e+00 2.118907e+00 
7.138330e+00 2.099567e+00 
7.173600e+00 2.080146e+00 
7.208260e+00 2.061310e+00 
7.243530e+00 2.042390e+00 
7.277600e+00 2.024355e+00 
7.312860e+00 2.005936e+00 
7.348120e+00 1.987754e+00 
7.382790e+00 1.970103e+00 
7.417460e+00 1.952675e+00 
7.452720e+00 1.935174e+00 
7.487390e+00 1.918181e+00 
7.522650e+00 1.901115e+00 
7.557320e+00 1.884564e+00 
7.591990e+00 1.868224e+00 
7.627250e+00 1.851811e+00 
7.662510e+00 1.835601e+00 
7.697180e+00 1.819878e+00 
7.731850e+00 1.804353e+00 
7.766510e+00 1.789019e+00 
7.801180e+00 1.773864e+00 
7.836440e+00 1.758649e+00 
7.871110e+00 1.743877e+00 
7.906380e+00 1.729027e+00 
7.941040e+00 1.714607e+00 
7.976310e+00 1.700122e+00 
8.011570e+00 1.685829e+00 
8.046240e+00 1.671941e+00 
8.080900e+00 1.658216e+00 
8.115570e+00 1.644655e+00 
8.150830e+00 1.631057e+00 
8.185500e+00 1.617841e+00 
8.220770e+00 1.604550e+00 
8.255430e+00 1.591637e+00 
8.290100e+00 1.578899e+00 
8.324770e+00 1.566307e+00 
8.359430e+00 1.553860e+00 
8.394700e+00 1.541336e+00 
8.429960e+00 1.528976e+00 
8.464630e+00 1.516977e+00 
8.499890e+00 1.504909e+00 
8.534560e+00 1.493175e+00 
8.569200e+00 1.481578e+00 
