# Parameters:
# omega_b = 0.023390, omega_m = 0.147283, n_s = 0.919291, h = 61.141732, w = -1.000000, sigma_8 = 0.874803
# z = 1.900000
#
# k[1/Mpc] # P(k):
8.694000e-04 3.999111e+03 
2.077466e-03 8.245789e+03 
3.285532e-03 1.147988e+04 
4.493598e-03 1.394511e+04 
5.701664e-03 1.576178e+04 
6.909730e-03 1.704294e+04 
8.117797e-03 1.790961e+04 
9.325863e-03 1.842353e+04 
1.053393e-02 1.864418e+04 
1.174199e-02 1.862623e+04 
1.295006e-02 1.840416e+04 
1.415813e-02 1.802435e+04 
1.536619e-02 1.752679e+04 
1.657426e-02 1.693885e+04 
1.778233e-02 1.628475e+04 
1.899039e-02 1.560089e+04 
2.019846e-02 1.490683e+04 
2.140652e-02 1.422023e+04 
2.261459e-02 1.355045e+04 
2.382266e-02 1.290956e+04 
2.503072e-02 1.230635e+04 
2.623879e-02 1.174444e+04 
2.744685e-02 1.122506e+04 
2.865492e-02 1.075053e+04 
2.986299e-02 1.031929e+04 
3.100100e-02 9.952247e+03 
3.220400e-02 9.602838e+03 
3.288100e-02 9.423412e+03 
3.424300e-02 9.095407e+03 
3.555100e-02 8.816695e+03 
3.686000e-02 8.568944e+03 
3.795000e-02 8.382215e+03 
3.929100e-02 8.173548e+03 
4.039800e-02 8.013642e+03 
4.164000e-02 7.843923e+03 
4.294400e-02 7.670997e+03 
4.415000e-02 7.514370e+03 
4.542900e-02 7.345120e+03 
4.660900e-02 7.187761e+03 
4.782300e-02 7.016936e+03 
4.892900e-02 6.857762e+03 
5.031200e-02 6.650968e+03 
5.155900e-02 6.456544e+03 
5.238100e-02 6.325481e+03 
5.378200e-02 6.098547e+03 
5.513400e-02 5.876424e+03 
5.627600e-02 5.688906e+03 
5.735300e-02 5.514746e+03 
5.870100e-02 5.302963e+03 
5.988700e-02 5.124917e+03 
6.113500e-02 4.946867e+03 
6.225900e-02 4.795278e+03 
6.340100e-02 4.649756e+03 
6.480200e-02 4.481998e+03 
6.601100e-02 4.346616e+03 
6.725500e-02 4.215933e+03 
6.829100e-02 4.114161e+03 
6.958600e-02 3.994963e+03 
7.071100e-02 3.899469e+03 
7.192300e-02 3.804460e+03 
7.307400e-02 3.721593e+03 
7.412300e-02 3.651956e+03 
7.550400e-02 3.568769e+03 
7.663100e-02 3.506517e+03 
7.791200e-02 3.442319e+03 
7.912700e-02 3.386393e+03 
8.027600e-02 3.336684e+03 
8.138400e-02 3.290973e+03 
8.272200e-02 3.237923e+03 
8.406100e-02 3.186132e+03 
8.534100e-02 3.136546e+03 
8.653800e-02 3.089218e+03 
8.759800e-02 3.046616e+03 
8.900300e-02 2.988557e+03 
9.009000e-02 2.941906e+03 
9.113300e-02 2.895268e+03 
9.239600e-02 2.837736e+03 
9.358000e-02 2.782109e+03 
9.496100e-02 2.714885e+03 
9.608400e-02 2.659747e+03 
9.727500e-02 2.601330e+03 
9.852600e-02 2.538621e+03 
9.973800e-02 2.478903e+03 
1.009000e-01 2.422680e+03 
1.020900e-01 2.365925e+03 
1.034000e-01 2.305529e+03 
1.046000e-01 2.252091e+03 
1.057200e-01 2.204517e+03 
1.069100e-01 2.155880e+03 
1.082500e-01 2.104293e+03 
1.093900e-01 2.063005e+03 
1.105400e-01 2.023233e+03 
1.116900e-01 1.986539e+03 
1.129600e-01 1.947892e+03 
1.142000e-01 1.913263e+03 
1.153300e-01 1.883401e+03 
1.166400e-01 1.851039e+03 
1.177800e-01 1.824841e+03 
1.190000e-01 1.798069e+03 
1.201200e-01 1.775195e+03 
1.213400e-01 1.751067e+03 
1.227100e-01 1.725691e+03 
1.238900e-01 1.704474e+03 
1.250700e-01 1.683980e+03 
1.263200e-01 1.662704e+03 
1.275500e-01 1.642093e+03 
1.287500e-01 1.622162e+03 
1.299900e-01 1.601582e+03 
1.311300e-01 1.582614e+03 
1.323500e-01 1.562054e+03 
1.335900e-01 1.541014e+03 
1.347100e-01 1.521607e+03 
1.359800e-01 1.499534e+03 
1.372100e-01 1.477540e+03 
1.384300e-01 1.455800e+03 
1.395700e-01 1.434930e+03 
1.407700e-01 1.413327e+03 
1.420300e-01 1.390021e+03 
1.432800e-01 1.367439e+03 
1.444500e-01 1.346075e+03 
1.456300e-01 1.324997e+03 
1.468900e-01 1.302903e+03 
1.480500e-01 1.282986e+03 
1.491700e-01 1.264297e+03 
1.503800e-01 1.244712e+03 
1.516400e-01 1.224909e+03 
1.528200e-01 1.207385e+03 
1.540200e-01 1.189930e+03 
1.551900e-01 1.173992e+03 
1.564300e-01 1.157620e+03 
1.576600e-01 1.142131e+03 
1.588700e-01 1.127701e+03 
1.600900e-01 1.113473e+03 
1.612700e-01 1.100689e+03 
1.625400e-01 1.087192e+03 
1.637600e-01 1.074761e+03 
1.649500e-01 1.063026e+03 
1.662200e-01 1.050757e+03 
1.674000e-01 1.039691e+03 
1.685000e-01 1.029549e+03 
1.697500e-01 1.018155e+03 
1.710300e-01 1.006635e+03 
1.722200e-01 9.961162e+02 
1.734400e-01 9.851982e+02 
1.746400e-01 9.746331e+02 
1.758700e-01 9.638606e+02 
1.770900e-01 9.530945e+02 
1.782700e-01 9.428597e+02 
1.794600e-01 9.324813e+02 
1.807000e-01 9.216983e+02 
1.819100e-01 9.113584e+02 
1.830100e-01 9.018978e+02 
1.842200e-01 8.916236e+02 
1.855000e-01 8.809383e+02 
1.867000e-01 8.709520e+02 
1.879200e-01 8.609700e+02 
1.890900e-01 8.515524e+02 
1.902800e-01 8.421146e+02 
1.915200e-01 8.324436e+02 
1.926900e-01 8.234897e+02 
1.939000e-01 8.144494e+02 
1.951700e-01 8.051181e+02 
1.963100e-01 7.969172e+02 
1.975100e-01 7.885272e+02 
1.987800e-01 7.797911e+02 
2.000100e-01 7.715218e+02 
2.012500e-01 7.634443e+02 
2.023400e-01 7.564493e+02 
2.036100e-01 7.484541e+02 
2.048900e-01 7.406532e+02 
2.060400e-01 7.337507e+02 
2.072200e-01 7.267792e+02 
2.084200e-01 7.199028e+02 
2.096900e-01 7.127348e+02 
2.109200e-01 7.058976e+02 
2.121100e-01 6.994368e+02 
2.132700e-01 6.932302e+02 
2.145200e-01 6.866379e+02 
2.157200e-01 6.804041e+02 
2.168800e-01 6.744632e+02 
2.180700e-01 6.684524e+02 
2.193400e-01 6.621147e+02 
2.206000e-01 6.558920e+02 
2.217500e-01 6.502914e+02 
2.229500e-01 6.445260e+02 
2.241400e-01 6.388127e+02 
2.253500e-01 6.330809e+02 
2.264900e-01 6.277525e+02 
2.277100e-01 6.220828e+02 
2.289900e-01 6.161697e+02 
2.301500e-01 6.108843e+02 
2.313600e-01 6.054432e+02 
2.325600e-01 6.000280e+02 
2.337700e-01 5.946407e+02 
2.350000e-01 5.892382e+02 
2.362000e-01 5.840029e+02 
2.374100e-01 5.787526e+02 
2.386500e-01 5.734442e+02 
2.399100e-01 5.681237e+02 
2.410400e-01 5.633746e+02 
2.422500e-01 5.583488e+02 
2.435000e-01 5.532257e+02 
2.447300e-01 5.482480e+02 
2.458700e-01 5.436787e+02 
2.470600e-01 5.389682e+02 
2.483300e-01 5.340065e+02 
2.495600e-01 5.292720e+02 
2.507600e-01 5.247222e+02 
2.519600e-01 5.202294e+02 
2.532200e-01 5.155723e+02 
2.543700e-01 5.114016e+02 
2.555500e-01 5.071915e+02 
2.568000e-01 5.027870e+02 
2.580100e-01 4.985768e+02 
2.592400e-01 4.943893e+02 
2.604100e-01 4.904714e+02 
2.616100e-01 4.865006e+02 
2.628400e-01 4.824797e+02 
2.640600e-01 4.785903e+02 
2.652200e-01 4.749553e+02 
2.664300e-01 4.712074e+02 
2.676500e-01 4.674732e+02 
2.688400e-01 4.639107e+02 
2.700700e-01 4.602947e+02 
2.712400e-01 4.568944e+02 
2.724800e-01 4.533319e+02 
2.736700e-01 4.499774e+02 
2.748800e-01 4.466307e+02 
2.761000e-01 4.432946e+02 
2.773200e-01 4.399963e+02 
2.785400e-01 4.367470e+02 
2.797000e-01 4.337159e+02 
2.808900e-01 4.306398e+02 
2.821400e-01 4.274445e+02 
2.833900e-01 4.242863e+02 
2.845500e-01 4.214069e+02 
2.857800e-01 4.183866e+02 
2.870300e-01 4.153511e+02 
2.882100e-01 4.125166e+02 
2.893900e-01 4.097209e+02 
2.906300e-01 4.068193e+02 
2.918900e-01 4.039032e+02 
2.930500e-01 4.012470e+02 
2.942500e-01 3.985282e+02 
2.954200e-01 3.959072e+02 
2.966500e-01 3.931804e+02 
2.978900e-01 3.904606e+02 
2.990400e-01 3.879640e+02 
3.002700e-01 3.853211e+02 
3.015100e-01 3.826848e+02 
3.026800e-01 3.802227e+02 
3.038500e-01 3.777850e+02 
3.050300e-01 3.753506e+02 
3.062600e-01 3.728345e+02 
3.075000e-01 3.703242e+02 
3.087000e-01 3.679194e+02 
3.099100e-01 3.655189e+02 
3.111200e-01 3.631410e+02 
3.123100e-01 3.608233e+02 
3.135300e-01 3.584706e+02 
3.147300e-01 3.561794e+02 
3.159900e-01 3.537977e+02 
3.171800e-01 3.515699e+02 
3.183700e-01 3.493630e+02 
3.196300e-01 3.470494e+02 
3.208400e-01 3.448496e+02 
3.220300e-01 3.427068e+02 
3.232000e-01 3.406199e+02 
3.244300e-01 3.384467e+02 
3.256700e-01 3.362772e+02 
3.269200e-01 3.341117e+02 
3.280800e-01 3.321211e+02 
3.292500e-01 3.301339e+02 
3.304800e-01 3.280649e+02 
3.317100e-01 3.260157e+02 
3.328900e-01 3.240682e+02 
3.340700e-01 3.221383e+02 
3.353600e-01 3.200519e+02 
3.365300e-01 3.181786e+02 
3.377100e-01 3.163062e+02 
3.389200e-01 3.144037e+02 
3.401600e-01 3.124721e+02 
3.413700e-01 3.106098e+02 
3.425300e-01 3.088439e+02 
3.437700e-01 3.069732e+02 
3.449800e-01 3.051645e+02 
3.461800e-01 3.033867e+02 
3.473600e-01 3.016565e+02 
3.485800e-01 2.998893e+02 
3.498100e-01 2.981238e+02 
3.510200e-01 2.964024e+02 
3.522000e-01 2.947384e+02 
3.533900e-01 2.930747e+02 
3.546400e-01 2.913538e+02 
3.558400e-01 2.897169e+02 
3.570600e-01 2.880672e+02 
3.582700e-01 2.864453e+02 
3.595000e-01 2.848110e+02 
3.607100e-01 2.832240e+02 
3.618900e-01 2.816949e+02 
3.631200e-01 2.801146e+02 
3.643200e-01 2.785859e+02 
3.655500e-01 2.770324e+02 
3.667300e-01 2.755546e+02 
3.679500e-01 2.740521e+02 
3.691900e-01 2.725379e+02 
3.703600e-01 2.711211e+02 
3.715700e-01 2.696679e+02 
3.727700e-01 2.682385e+02 
3.739900e-01 2.668017e+02 
3.752000e-01 2.653961e+02 
3.763900e-01 2.640250e+02 
3.775800e-01 2.626649e+02 
3.788200e-01 2.612593e+02 
3.800300e-01 2.598989e+02 
3.812100e-01 2.585902e+02 
3.824200e-01 2.572639e+02 
3.836100e-01 2.559699e+02 
3.848600e-01 2.546215e+02 
3.860400e-01 2.533589e+02 
3.872400e-01 2.520849e+02 
3.884600e-01 2.508088e+02 
3.896500e-01 2.495771e+02 
3.908700e-01 2.483242e+02 
3.920600e-01 2.471116e+02 
3.933100e-01 2.458480e+02 
3.945300e-01 2.446245e+02 
3.957200e-01 2.434497e+02 
3.969300e-01 2.422669e+02 
3.981700e-01 2.410642e+02 
3.993500e-01 2.399286e+02 
4.094840e-01 2.305600e+02 
4.272360e-01 2.157513e+02 
4.454600e-01 2.022846e+02 
4.630560e-01 1.906814e+02 
4.804610e-01 1.803434e+02 
4.980690e-01 1.708707e+02 
5.159230e-01 1.621347e+02 
5.317440e-01 1.550315e+02 
5.489640e-01 1.479019e+02 
5.671990e-01 1.409673e+02 
5.838690e-01 1.351094e+02 
6.018840e-01 1.292560e+02 
6.202330e-01 1.237520e+02 
6.379250e-01 1.188278e+02 
6.545410e-01 1.145269e+02 
6.714560e-01 1.104353e+02 
6.892080e-01 1.064217e+02 
7.066010e-01 1.027529e+02 
7.240540e-01 9.930241e+01 
7.420450e-01 9.597490e+01 
7.593780e-01 9.296958e+01 
7.764720e-01 9.017894e+01 
7.942840e-01 8.744324e+01 
8.116170e-01 8.493518e+01 
8.288310e-01 8.258352e+01 
8.462240e-01 8.033499e+01 
8.631980e-01 7.825717e+01 
8.810700e-01 7.618377e+01 
8.989410e-01 7.421975e+01 
9.166330e-01 7.237205e+01 
9.345640e-01 7.059407e+01 
9.515980e-01 6.898598e+01 
9.688720e-01 6.742837e+01 
9.865640e-01 6.590743e+01 
1.031870e+00 6.230582e+01 
1.063490e+00 6.001902e+01 
1.097920e+00 5.771527e+01 
1.134370e+00 5.545689e+01 
1.167730e+00 5.353835e+01 
1.203830e+00 5.160348e+01 
1.240470e+00 4.977199e+01 
1.275790e+00 4.812100e+01 
1.309140e+00 4.665650e+01 
1.342970e+00 4.525016e+01 
1.378420e+00 4.386001e+01 
1.413200e+00 4.257092e+01 
1.448110e+00 4.134427e+01 
1.484090e+00 4.014428e+01 
1.518820e+00 3.904486e+01 
1.552880e+00 3.801602e+01 
1.588630e+00 3.698631e+01 
1.623230e+00 3.603387e+01 
1.657720e+00 3.512784e+01 
1.692450e+00 3.425273e+01 
1.726400e+00 3.343309e+01 
1.762200e+00 3.260278e+01 
1.797880e+00 3.180923e+01 
1.833270e+00 3.105325e+01 
1.869070e+00 3.031881e+01 
1.903200e+00 2.964364e+01 
1.937740e+00 2.898555e+01 
1.973190e+00 2.833435e+01 
2.007440e+00 2.772730e+01 
2.042160e+00 2.713238e+01 
2.077900e+00 2.654082e+01 
2.112390e+00 2.599033e+01 
2.146220e+00 2.546599e+01 
2.181600e+00 2.493580e+01 
2.216930e+00 2.442244e+01 
2.250760e+00 2.394632e+01 
2.286500e+00 2.345928e+01 
2.321770e+00 2.299340e+01 
2.355950e+00 2.255428e+01 
2.391280e+00 2.211383e+01 
2.426240e+00 2.169015e+01 
2.460670e+00 2.128501e+01 
2.495640e+00 2.088586e+01 
2.531080e+00 2.049169e+01 
2.566220e+00 2.011113e+01 
2.600830e+00 1.974651e+01 
2.635080e+00 1.939549e+01 
2.670340e+00 1.904351e+01 
2.705970e+00 1.869691e+01 
2.740040e+00 1.837404e+01 
2.774520e+00 1.805517e+01 
2.809730e+00 1.773739e+01 
2.844390e+00 1.743275e+01 
2.879960e+00 1.712784e+01 
2.914860e+00 1.683554e+01 
2.949410e+00 1.655337e+01 
2.984440e+00 1.627337e+01 
3.019760e+00 1.599801e+01 
3.054730e+00 1.573237e+01 
3.089030e+00 1.547654e+01 
3.124060e+00 1.522178e+01 
3.159560e+00 1.496975e+01 
3.194710e+00 1.472530e+01 
3.229010e+00 1.449248e+01 
3.263320e+00 1.426367e+01 
3.297930e+00 1.403833e+01 
3.332830e+00 1.381589e+01 
3.368040e+00 1.359625e+01 
3.403300e+00 1.338123e+01 
3.438450e+00 1.317104e+01 
3.473060e+00 1.296898e+01 
3.508440e+00 1.276578e+01 
3.543110e+00 1.257139e+01 
3.577470e+00 1.238220e+01 
3.613040e+00 1.219069e+01 
3.648120e+00 1.200520e+01 
3.682910e+00 1.182530e+01 
3.718050e+00 1.164723e+01 
3.753320e+00 1.147204e+01 
3.787980e+00 1.130287e+01 
3.822290e+00 1.113886e+01 
3.857020e+00 1.097601e+01 
3.891920e+00 1.081566e+01 
3.926650e+00 1.065892e+01 
3.961970e+00 1.050275e+01 
3.997360e+00 1.034893e+01 
4.031670e+00 1.020293e+01 
4.066330e+00 1.005789e+01 
4.101420e+00 9.914223e+00 
4.136200e+00 9.773826e+00 
4.170810e+00 9.637103e+00 
4.206250e+00 9.499396e+00 
4.241580e+00 9.364937e+00 
4.276300e+00 9.235029e+00 
4.310970e+00 9.107694e+00 
4.346120e+00 8.980977e+00 
4.380600e+00 8.858733e+00 
4.414730e+00 8.740147e+00 
4.450350e+00 8.618106e+00 
4.485320e+00 8.500744e+00 
4.519810e+00 8.386953e+00 
4.555430e+00 8.271630e+00 
4.590870e+00 8.158944e+00 
4.625480e+00 8.050533e+00 
4.659910e+00 7.944777e+00 
4.695230e+00 7.837947e+00 
4.729960e+00 7.734874e+00 
4.764450e+00 7.634331e+00 
4.799530e+00 7.533793e+00 
4.834910e+00 7.434338e+00 
4.869700e+00 7.337836e+00 
4.904370e+00 7.243372e+00 
4.939450e+00 7.149486e+00 
4.973940e+00 7.058659e+00 
5.008430e+00 6.969488e+00 
5.043810e+00 6.879429e+00 
5.078840e+00 6.791746e+00 
5.113500e+00 6.706561e+00 
5.148890e+00 6.620858e+00 
5.184210e+00 6.536866e+00 
5.219060e+00 6.455402e+00 
5.253660e+00 6.375736e+00 
5.288570e+00 6.296768e+00 
5.323420e+00 6.219152e+00 
5.358440e+00 6.142333e+00 
5.393590e+00 6.066575e+00 
5.428310e+00 5.992981e+00 
5.462800e+00 5.921089e+00 
5.497640e+00 5.849698e+00 
5.532670e+00 5.778942e+00 
5.567280e+00 5.710149e+00 
5.602000e+00 5.642288e+00 
5.637270e+00 5.574386e+00 
5.672410e+00 5.507840e+00 
5.707020e+00 5.443381e+00 
5.742040e+00 5.379139e+00 
5.777430e+00 5.315272e+00 
5.812210e+00 5.253532e+00 
5.846820e+00 5.192992e+00 
5.881610e+00 5.133088e+00 
5.916510e+00 5.073957e+00 
5.951600e+00 5.015421e+00 
5.986560e+00 4.958015e+00 
6.021830e+00 4.901020e+00 
6.056490e+00 4.845845e+00 
6.091160e+00 4.791472e+00 
6.125830e+00 4.737940e+00 
6.161090e+00 4.684331e+00 
6.195760e+00 4.632413e+00 
6.230420e+00 4.581300e+00 
6.265690e+00 4.530083e+00 
6.300950e+00 4.479697e+00 
6.335620e+00 4.430903e+00 
6.370880e+00 4.382026e+00 
6.405550e+00 4.334668e+00 
6.440220e+00 4.288004e+00 
6.475480e+00 4.241250e+00 
6.510150e+00 4.195969e+00 
6.544810e+00 4.151388e+00 
6.580080e+00 4.106686e+00 
6.614750e+00 4.063385e+00 
6.649410e+00 4.020721e+00 
6.684080e+00 3.978655e+00 
6.719340e+00 3.936488e+00 
6.754010e+00 3.895642e+00 
6.788680e+00 3.855425e+00 
6.823940e+00 3.815102e+00 
6.859800e+00 3.774681e+00 
6.894470e+00 3.736220e+00 
6.929140e+00 3.698316e+00 
6.963800e+00 3.660944e+00 
6.999070e+00 3.623444e+00 
7.033730e+00 3.587146e+00 
7.068400e+00 3.551331e+00 
7.103660e+00 3.515403e+00 
7.138330e+00 3.480572e+00 
7.173600e+00 3.445653e+00 
7.208260e+00 3.411800e+00 
7.243530e+00 3.377812e+00 
7.277600e+00 3.345475e+00 
7.312860e+00 3.312503e+00 
7.348120e+00 3.279970e+00 
7.382790e+00 3.248403e+00 
7.417460e+00 3.217288e+00 
7.452720e+00 3.186078e+00 
7.487390e+00 3.155789e+00 
7.522650e+00 3.125383e+00 
7.557320e+00 3.095937e+00 
7.591990e+00 3.066890e+00 
7.627250e+00 3.037726e+00 
7.662510e+00 3.008936e+00 
7.697180e+00 2.981074e+00 
7.731850e+00 2.953593e+00 
7.766510e+00 2.926462e+00 
7.801180e+00 2.899660e+00 
7.836440e+00 2.872804e+00 
7.871110e+00 2.846764e+00 
7.906380e+00 2.820600e+00 
7.941040e+00 2.795204e+00 
7.976310e+00 2.769720e+00 
8.011570e+00 2.744605e+00 
8.046240e+00 2.720209e+00 
8.080900e+00 2.696113e+00 
8.115570e+00 2.672319e+00 
8.150830e+00 2.648495e+00 
8.185500e+00 2.625350e+00 
8.220770e+00 2.602083e+00 
8.255430e+00 2.579488e+00 
8.290100e+00 2.557253e+00 
8.324770e+00 2.535288e+00 
8.359430e+00 2.513583e+00 
8.394700e+00 2.491753e+00 
8.429960e+00 2.470232e+00 
8.464630e+00 2.449366e+00 
8.499890e+00 2.428388e+00 
8.534560e+00 2.407997e+00 
8.569200e+00 2.387853e+00 
