# Parameters:
# omega_b = 0.022240, omega_m = 0.135709, n_s = 0.865748, h = 83.818898, w = -1.000000, sigma_8 = 0.807087
# z = 1.900000
#
# k[1/Mpc] # P(k):
8.694000e-04 4.893091e+03 
2.077466e-03 9.521572e+03 
3.285532e-03 1.282490e+04 
4.493598e-03 1.518344e+04 
5.701664e-03 1.679647e+04 
6.909730e-03 1.782555e+04 
8.117797e-03 1.842318e+04 
9.325863e-03 1.866711e+04 
1.053393e-02 1.862757e+04 
1.174199e-02 1.836527e+04 
1.295006e-02 1.791980e+04 
1.415813e-02 1.734132e+04 
1.536619e-02 1.666972e+04 
1.657426e-02 1.593171e+04 
1.778233e-02 1.515242e+04 
1.899039e-02 1.436761e+04 
2.019846e-02 1.359560e+04 
2.140652e-02 1.285146e+04 
2.261459e-02 1.214322e+04 
2.382266e-02 1.148033e+04 
2.503072e-02 1.086874e+04 
2.623879e-02 1.030948e+04 
2.744685e-02 9.802392e+03 
2.865492e-02 9.346464e+03 
2.986299e-02 8.938063e+03 
3.100100e-02 8.595226e+03 
3.220400e-02 8.272522e+03 
3.288100e-02 8.108287e+03 
3.424300e-02 7.809803e+03 
3.555100e-02 7.557327e+03 
3.686000e-02 7.333039e+03 
3.795000e-02 7.163501e+03 
3.929100e-02 6.972348e+03 
4.039800e-02 6.824065e+03 
4.164000e-02 6.664788e+03 
4.294400e-02 6.499314e+03 
4.415000e-02 6.347701e+03 
4.542900e-02 6.181754e+03 
4.660900e-02 6.026603e+03 
4.782300e-02 5.857771e+03 
4.892900e-02 5.700697e+03 
5.031200e-02 5.497676e+03 
5.155900e-02 5.308673e+03 
5.238100e-02 5.182205e+03 
5.378200e-02 4.964698e+03 
5.513400e-02 4.752831e+03 
5.627600e-02 4.573478e+03 
5.735300e-02 4.404966e+03 
5.870100e-02 4.195513e+03 
5.988700e-02 4.014452e+03 
6.113500e-02 3.828955e+03 
6.225900e-02 3.668979e+03 
6.340100e-02 3.516289e+03 
6.480200e-02 3.344659e+03 
6.601100e-02 3.213858e+03 
6.725500e-02 3.095986e+03 
6.829100e-02 3.011488e+03 
6.958600e-02 2.918983e+03 
7.071100e-02 2.850670e+03 
7.192300e-02 2.786968e+03 
7.307400e-02 2.734525e+03 
7.412300e-02 2.692328e+03 
7.550400e-02 2.643892e+03 
7.663100e-02 2.608341e+03 
7.791200e-02 2.571735e+03 
7.912700e-02 2.538860e+03 
8.027600e-02 2.508318e+03 
8.138400e-02 2.478778e+03 
8.272200e-02 2.442116e+03 
8.406100e-02 2.403564e+03 
8.534100e-02 2.363478e+03 
8.653800e-02 2.322847e+03 
8.759800e-02 2.285024e+03 
8.900300e-02 2.231825e+03 
9.009000e-02 2.188057e+03 
9.113300e-02 2.143810e+03 
9.239600e-02 2.089044e+03 
9.358000e-02 2.036103e+03 
9.496100e-02 1.972592e+03 
9.608400e-02 1.921027e+03 
9.727500e-02 1.866897e+03 
9.852600e-02 1.810141e+03 
9.973800e-02 1.756992e+03 
1.009000e-01 1.707704e+03 
1.020900e-01 1.659867e+03 
1.034000e-01 1.610073e+03 
1.046000e-01 1.567145e+03 
1.057200e-01 1.530941e+03 
1.069100e-01 1.494719e+03 
1.082500e-01 1.458543e+03 
1.093900e-01 1.431012e+03 
1.105400e-01 1.405326e+03 
1.116900e-01 1.383500e+03 
1.129600e-01 1.361105e+03 
1.142000e-01 1.342491e+03 
1.153300e-01 1.326806e+03 
1.166400e-01 1.310406e+03 
1.177800e-01 1.297200e+03 
1.190000e-01 1.283742e+03 
1.201200e-01 1.271537e+03 
1.213400e-01 1.258535e+03 
1.227100e-01 1.242972e+03 
1.238900e-01 1.229468e+03 
1.250700e-01 1.214791e+03 
1.263200e-01 1.198884e+03 
1.275500e-01 1.181998e+03 
1.287500e-01 1.165013e+03 
1.299900e-01 1.146460e+03 
1.311300e-01 1.129004e+03 
1.323500e-01 1.109564e+03 
1.335900e-01 1.089648e+03 
1.347100e-01 1.071242e+03 
1.359800e-01 1.050522e+03 
1.372100e-01 1.030259e+03 
1.384300e-01 1.010540e+03 
1.395700e-01 9.922581e+02 
1.407700e-01 9.734812e+02 
1.420300e-01 9.543088e+02 
1.432800e-01 9.357708e+02 
1.444500e-01 9.193370e+02 
1.456300e-01 9.031450e+02 
1.468900e-01 8.869480e+02 
1.480500e-01 8.725801e+02 
1.491700e-01 8.594480e+02 
1.503800e-01 8.461284e+02 
1.516400e-01 8.327749e+02 
1.528200e-01 8.214599e+02 
1.540200e-01 8.101851e+02 
1.551900e-01 8.002078e+02 
1.564300e-01 7.900342e+02 
1.576600e-01 7.804809e+02 
1.588700e-01 7.716708e+02 
1.600900e-01 7.629755e+02 
1.612700e-01 7.550859e+02 
1.625400e-01 7.467527e+02 
1.637600e-01 7.388825e+02 
1.649500e-01 7.313355e+02 
1.662200e-01 7.233716e+02 
1.674000e-01 7.157900e+02 
1.685000e-01 7.088415e+02 
1.697500e-01 7.007723e+02 
1.710300e-01 6.923551e+02 
1.722200e-01 6.846720e+02 
1.734400e-01 6.762562e+02 
1.746400e-01 6.680995e+02 
1.758700e-01 6.596962e+02 
1.770900e-01 6.511200e+02 
1.782700e-01 6.429747e+02 
1.794600e-01 6.346655e+02 
1.807000e-01 6.260042e+02 
1.819100e-01 6.177084e+02 
1.830100e-01 6.101885e+02 
1.842200e-01 6.020413e+02 
1.855000e-01 5.935866e+02 
1.867000e-01 5.858888e+02 
1.879200e-01 5.782017e+02 
1.890900e-01 5.709976e+02 
1.902800e-01 5.639987e+02 
1.915200e-01 5.568318e+02 
1.926900e-01 5.502602e+02 
1.939000e-01 5.438223e+02 
1.951700e-01 5.371800e+02 
1.963100e-01 5.313976e+02 
1.975100e-01 5.256257e+02 
1.987800e-01 5.196168e+02 
2.000100e-01 5.139641e+02 
2.012500e-01 5.085224e+02 
2.023400e-01 5.038103e+02 
2.036100e-01 4.984295e+02 
2.048900e-01 4.931984e+02 
2.060400e-01 4.885697e+02 
2.072200e-01 4.838910e+02 
2.084200e-01 4.792272e+02 
2.096900e-01 4.743661e+02 
2.109200e-01 4.697297e+02 
2.121100e-01 4.652610e+02 
2.132700e-01 4.609644e+02 
2.145200e-01 4.564016e+02 
2.157200e-01 4.520224e+02 
2.168800e-01 4.478200e+02 
2.180700e-01 4.435693e+02 
2.193400e-01 4.390641e+02 
2.206000e-01 4.345969e+02 
2.217500e-01 4.305777e+02 
2.229500e-01 4.264417e+02 
2.241400e-01 4.223197e+02 
2.253500e-01 4.181854e+02 
2.264900e-01 4.143438e+02 
2.277100e-01 4.102701e+02 
2.289900e-01 4.060370e+02 
2.301500e-01 4.022548e+02 
2.313600e-01 3.983633e+02 
2.325600e-01 3.945519e+02 
2.337700e-01 3.907614e+02 
2.350000e-01 3.869616e+02 
2.362000e-01 3.833177e+02 
2.374100e-01 3.797079e+02 
2.386500e-01 3.760589e+02 
2.399100e-01 3.724025e+02 
2.410400e-01 3.692080e+02 
2.422500e-01 3.658363e+02 
2.435000e-01 3.623998e+02 
2.447300e-01 3.590736e+02 
2.458700e-01 3.560703e+02 
2.470600e-01 3.529742e+02 
2.483300e-01 3.497130e+02 
2.495600e-01 3.466175e+02 
2.507600e-01 3.436651e+02 
2.519600e-01 3.407495e+02 
2.532200e-01 3.377271e+02 
2.543700e-01 3.350263e+02 
2.555500e-01 3.323038e+02 
2.568000e-01 3.294555e+02 
2.580100e-01 3.267326e+02 
2.592400e-01 3.240145e+02 
2.604100e-01 3.214669e+02 
2.616100e-01 3.188849e+02 
2.628400e-01 3.162701e+02 
2.640600e-01 3.137185e+02 
2.652200e-01 3.113248e+02 
2.664300e-01 3.088568e+02 
2.676500e-01 3.063978e+02 
2.688400e-01 3.040286e+02 
2.700700e-01 3.016091e+02 
2.712400e-01 2.993342e+02 
2.724800e-01 2.969510e+02 
2.736700e-01 2.946881e+02 
2.748800e-01 2.924112e+02 
2.761000e-01 2.901418e+02 
2.773200e-01 2.878985e+02 
2.785400e-01 2.856786e+02 
2.797000e-01 2.835867e+02 
2.808900e-01 2.814642e+02 
2.821400e-01 2.792598e+02 
2.833900e-01 2.770805e+02 
2.845500e-01 2.750708e+02 
2.857800e-01 2.729631e+02 
2.870300e-01 2.708454e+02 
2.882100e-01 2.688684e+02 
2.893900e-01 2.669083e+02 
2.906300e-01 2.648687e+02 
2.918900e-01 2.628195e+02 
2.930500e-01 2.609534e+02 
2.942500e-01 2.590420e+02 
2.954200e-01 2.571936e+02 
2.966500e-01 2.552712e+02 
2.978900e-01 2.533542e+02 
2.990400e-01 2.515951e+02 
3.002700e-01 2.497322e+02 
3.015100e-01 2.478739e+02 
3.026800e-01 2.461389e+02 
3.038500e-01 2.444215e+02 
3.050300e-01 2.427070e+02 
3.062600e-01 2.409378e+02 
3.075000e-01 2.391731e+02 
3.087000e-01 2.374831e+02 
3.099100e-01 2.357965e+02 
3.111200e-01 2.341285e+02 
3.123100e-01 2.325067e+02 
3.135300e-01 2.308609e+02 
3.147300e-01 2.292585e+02 
3.159900e-01 2.275934e+02 
3.171800e-01 2.260405e+02 
3.183700e-01 2.245054e+02 
3.196300e-01 2.228964e+02 
3.208400e-01 2.213670e+02 
3.220300e-01 2.198777e+02 
3.232000e-01 2.184324e+02 
3.244300e-01 2.169298e+02 
3.256700e-01 2.154301e+02 
3.269200e-01 2.139336e+02 
3.280800e-01 2.125582e+02 
3.292500e-01 2.111906e+02 
3.304800e-01 2.097686e+02 
3.317100e-01 2.083605e+02 
3.328900e-01 2.070226e+02 
3.340700e-01 2.056971e+02 
3.353600e-01 2.042685e+02 
3.365300e-01 2.029876e+02 
3.377100e-01 2.017076e+02 
3.389200e-01 2.004072e+02 
3.401600e-01 1.990873e+02 
3.413700e-01 1.978173e+02 
3.425300e-01 1.966151e+02 
3.437700e-01 1.953417e+02 
3.449800e-01 1.941107e+02 
3.461800e-01 1.929011e+02 
3.473600e-01 1.917246e+02 
3.485800e-01 1.905250e+02 
3.498100e-01 1.893266e+02 
3.510200e-01 1.881584e+02 
3.522000e-01 1.870294e+02 
3.533900e-01 1.859008e+02 
3.546400e-01 1.847343e+02 
3.558400e-01 1.836250e+02 
3.570600e-01 1.825073e+02 
3.582700e-01 1.814086e+02 
3.595000e-01 1.803017e+02 
3.607100e-01 1.792266e+02 
3.618900e-01 1.781904e+02 
3.631200e-01 1.771197e+02 
3.643200e-01 1.760842e+02 
3.655500e-01 1.750321e+02 
3.667300e-01 1.740314e+02 
3.679500e-01 1.730126e+02 
3.691900e-01 1.719861e+02 
3.703600e-01 1.710257e+02 
3.715700e-01 1.700409e+02 
3.727700e-01 1.690724e+02 
3.739900e-01 1.680980e+02 
3.752000e-01 1.671431e+02 
3.763900e-01 1.662117e+02 
3.775800e-01 1.652881e+02 
3.788200e-01 1.643337e+02 
3.800300e-01 1.634102e+02 
3.812100e-01 1.625201e+02 
3.824200e-01 1.616169e+02 
3.836100e-01 1.607358e+02 
3.848600e-01 1.598180e+02 
3.860400e-01 1.589587e+02 
3.872400e-01 1.580919e+02 
3.884600e-01 1.572211e+02 
3.896500e-01 1.563798e+02 
3.908700e-01 1.555243e+02 
3.920600e-01 1.546965e+02 
3.933100e-01 1.538339e+02 
3.945300e-01 1.529990e+02 
3.957200e-01 1.521942e+02 
3.969300e-01 1.513832e+02 
3.981700e-01 1.505587e+02 
3.993500e-01 1.497804e+02 
4.094840e-01 1.433543e+02 
4.272360e-01 1.331350e+02 
4.454600e-01 1.238241e+02 
4.630560e-01 1.158084e+02 
4.804610e-01 1.086963e+02 
4.980690e-01 1.022215e+02 
5.159230e-01 9.629978e+01 
5.317440e-01 9.152544e+01 
5.489640e-01 8.677859e+01 
5.671990e-01 8.220409e+01 
5.838690e-01 7.837314e+01 
6.018840e-01 7.457261e+01 
6.202330e-01 7.102550e+01 
6.379250e-01 6.787126e+01 
6.545410e-01 6.513210e+01 
6.714560e-01 6.253534e+01 
6.892080e-01 6.000101e+01 
7.066010e-01 5.769115e+01 
7.240540e-01 5.552625e+01 
7.420450e-01 5.344394e+01 
7.593780e-01 5.156747e+01 
7.764720e-01 4.982917e+01 
7.942840e-01 4.812757e+01 
8.116170e-01 4.657157e+01 
8.288310e-01 4.511526e+01 
8.462240e-01 4.372595e+01 
8.631980e-01 4.244465e+01 
8.810700e-01 4.116883e+01 
8.989410e-01 3.996219e+01 
9.166330e-01 3.883077e+01 
9.345640e-01 3.774424e+01 
9.515980e-01 3.676314e+01 
9.688720e-01 3.581638e+01 
9.865640e-01 3.489393e+01 
1.031870e+00 3.272185e+01 
1.063490e+00 3.135213e+01 
1.097920e+00 2.998020e+01 
1.134370e+00 2.864541e+01 
1.167730e+00 2.751895e+01 
1.203830e+00 2.639164e+01 
1.240470e+00 2.533266e+01 
1.275790e+00 2.438548e+01 
1.309140e+00 2.355023e+01 
1.342970e+00 2.275641e+01 
1.378420e+00 2.197637e+01 
1.413200e+00 2.125841e+01 
1.448110e+00 2.058033e+01 
1.484090e+00 1.992174e+01 
1.518820e+00 1.932242e+01 
1.552880e+00 1.876591e+01 
1.588630e+00 1.821249e+01 
1.623230e+00 1.770436e+01 
1.657720e+00 1.722326e+01 
1.692450e+00 1.676201e+01 
1.726400e+00 1.633242e+01 
1.762200e+00 1.590005e+01 
1.797880e+00 1.548911e+01 
1.833270e+00 1.509993e+01 
1.869070e+00 1.472359e+01 
1.903200e+00 1.437991e+01 
1.937740e+00 1.404640e+01 
1.973190e+00 1.371777e+01 
2.007440e+00 1.341289e+01 
2.042160e+00 1.311560e+01 
2.077900e+00 1.282134e+01 
2.112390e+00 1.254823e+01 
2.146220e+00 1.228974e+01 
2.181600e+00 1.202905e+01 
2.216930e+00 1.177790e+01 
2.250760e+00 1.154568e+01 
2.286500e+00 1.130878e+01 
2.321770e+00 1.108300e+01 
2.355950e+00 1.087114e+01 
2.391280e+00 1.065925e+01 
2.426240e+00 1.045615e+01 
2.460670e+00 1.026239e+01 
2.495640e+00 1.007180e+01 
2.531080e+00 9.884244e+00 
2.566220e+00 9.703841e+00 
2.600830e+00 9.531423e+00 
2.635080e+00 9.365745e+00 
2.670340e+00 9.199850e+00 
2.705970e+00 9.036948e+00 
2.740040e+00 8.885534e+00 
2.774520e+00 8.736333e+00 
2.809730e+00 8.587944e+00 
2.844390e+00 8.445863e+00 
2.879960e+00 8.303891e+00 
2.914860e+00 8.168046e+00 
2.949410e+00 8.037078e+00 
2.984440e+00 7.907486e+00 
3.019760e+00 7.780118e+00 
3.054730e+00 7.657289e+00 
3.089030e+00 7.539323e+00 
3.124060e+00 7.421852e+00 
3.159560e+00 7.305656e+00 
3.194710e+00 7.193210e+00 
3.229010e+00 7.086181e+00 
3.263320e+00 6.981142e+00 
3.297930e+00 6.877725e+00 
3.332830e+00 6.775727e+00 
3.368040e+00 6.675056e+00 
3.403300e+00 6.576519e+00 
3.438450e+00 6.480285e+00 
3.473060e+00 6.387769e+00 
3.508440e+00 6.294828e+00 
3.543110e+00 6.205886e+00 
3.577470e+00 6.119334e+00 
3.613040e+00 6.031726e+00 
3.648120e+00 5.946946e+00 
3.682910e+00 5.864662e+00 
3.718050e+00 5.783139e+00 
3.753320e+00 5.702979e+00 
3.787980e+00 5.625655e+00 
3.822290e+00 5.550632e+00 
3.857020e+00 5.476076e+00 
3.891920e+00 5.402651e+00 
3.926650e+00 5.330883e+00 
3.961970e+00 5.259345e+00 
3.997360e+00 5.188854e+00 
4.031670e+00 5.121911e+00 
4.066330e+00 5.055360e+00 
4.101420e+00 4.989401e+00 
4.136200e+00 4.924920e+00 
4.170810e+00 4.862093e+00 
4.206250e+00 4.798736e+00 
4.241580e+00 4.736832e+00 
4.276300e+00 4.676997e+00 
4.310970e+00 4.618317e+00 
4.346120e+00 4.559871e+00 
4.380600e+00 4.503426e+00 
4.414730e+00 4.448638e+00 
4.450350e+00 4.392217e+00 
4.485320e+00 4.337926e+00 
4.519810e+00 4.285175e+00 
4.555430e+00 4.231645e+00 
4.590870e+00 4.179314e+00 
4.625480e+00 4.128951e+00 
4.659910e+00 4.079791e+00 
4.695230e+00 4.030032e+00 
4.729960e+00 3.981983e+00 
4.764450e+00 3.935048e+00 
4.799530e+00 3.888023e+00 
4.834910e+00 3.841477e+00 
4.869700e+00 3.796281e+00 
4.904370e+00 3.752012e+00 
4.939450e+00 3.707959e+00 
4.973940e+00 3.665245e+00 
5.008430e+00 3.623283e+00 
5.043810e+00 3.580848e+00 
5.078840e+00 3.539489e+00 
5.113500e+00 3.499283e+00 
5.148890e+00 3.458714e+00 
5.184210e+00 3.418926e+00 
5.219060e+00 3.380300e+00 
5.253660e+00 3.342470e+00 
5.288570e+00 3.304949e+00 
5.323420e+00 3.268026e+00 
5.358440e+00 3.231438e+00 
5.393590e+00 3.195332e+00 
5.428310e+00 3.160155e+00 
5.462800e+00 3.125728e+00 
5.497640e+00 3.091520e+00 
5.532670e+00 3.057571e+00 
5.567280e+00 3.024536e+00 
5.602000e+00 2.991929e+00 
5.637270e+00 2.959219e+00 
5.672410e+00 2.927129e+00 
5.707020e+00 2.896026e+00 
5.742040e+00 2.864947e+00 
5.777430e+00 2.834019e+00 
5.812210e+00 2.804102e+00 
5.846820e+00 2.774712e+00 
5.881610e+00 2.745603e+00 
5.916510e+00 2.716853e+00 
5.951600e+00 2.688324e+00 
5.986560e+00 2.660307e+00 
6.021830e+00 2.632474e+00 
6.056490e+00 2.605487e+00 
6.091160e+00 2.578854e+00 
6.125830e+00 2.552617e+00 
6.161090e+00 2.526310e+00 
6.195760e+00 2.500780e+00 
6.230420e+00 2.475631e+00 
6.265690e+00 2.450414e+00 
6.300950e+00 2.425522e+00 
6.335620e+00 2.401404e+00 
6.370880e+00 2.377230e+00 
6.405550e+00 2.353768e+00 
6.440220e+00 2.330625e+00 
6.475480e+00 2.307424e+00 
6.510150e+00 2.284927e+00 
6.544810e+00 2.262730e+00 
6.580080e+00 2.240460e+00 
6.614750e+00 2.218876e+00 
6.649410e+00 2.197567e+00 
6.684080e+00 2.176540e+00 
6.719340e+00 2.155450e+00 
6.754010e+00 2.134992e+00 
6.788680e+00 2.114799e+00 
6.823940e+00 2.094541e+00 
6.859800e+00 2.074224e+00 
6.894470e+00 2.054847e+00 
6.929140e+00 2.035728e+00 
6.963800e+00 2.016868e+00 
6.999070e+00 1.997932e+00 
7.033730e+00 1.979563e+00 
7.068400e+00 1.961429e+00 
7.103660e+00 1.943229e+00 
7.138330e+00 1.925567e+00 
7.173600e+00 1.907832e+00 
7.208260e+00 1.890629e+00 
7.243530e+00 1.873350e+00 
7.277600e+00 1.856880e+00 
7.312860e+00 1.840060e+00 
7.348120e+00 1.823456e+00 
7.382790e+00 1.807337e+00 
7.417460e+00 1.791422e+00 
7.452720e+00 1.775440e+00 
7.487390e+00 1.759922e+00 
7.522650e+00 1.744337e+00 
7.557320e+00 1.729223e+00 
7.591990e+00 1.714302e+00 
7.627250e+00 1.699313e+00 
7.662510e+00 1.684509e+00 
7.697180e+00 1.670152e+00 
7.731850e+00 1.655974e+00 
7.766510e+00 1.641971e+00 
7.801180e+00 1.628131e+00 
7.836440e+00 1.614237e+00 
7.871110e+00 1.600747e+00 
7.906380e+00 1.587187e+00 
7.941040e+00 1.574019e+00 
7.976310e+00 1.560790e+00 
8.011570e+00 1.547739e+00 
8.046240e+00 1.535056e+00 
8.080900e+00 1.522523e+00 
8.115570e+00 1.510139e+00 
8.150830e+00 1.497722e+00 
8.185500e+00 1.485653e+00 
8.220770e+00 1.473516e+00 
8.255430e+00 1.461725e+00 
8.290100e+00 1.450093e+00 
8.324770e+00 1.438596e+00 
8.359430e+00 1.427230e+00 
8.394700e+00 1.415794e+00 
8.429960e+00 1.404508e+00 
8.464630e+00 1.393552e+00 
8.499890e+00 1.382532e+00 
8.534560e+00 1.371817e+00 
8.569200e+00 1.361227e+00 
