# Parameters:
# omega_b = 0.023106, omega_m = 0.137087, n_s = 0.925591, h = 81.692913, w = -1.000000, sigma_8 = 0.849606
# z = 1.900000
#
# k[1/Mpc] # P(k):
8.694000e-04 4.097817e+03 
2.077466e-03 8.411438e+03 
3.285532e-03 1.164641e+04 
4.493598e-03 1.406475e+04 
5.701664e-03 1.579390e+04 
6.909730e-03 1.696615e+04 
8.117797e-03 1.771781e+04 
9.325863e-03 1.811718e+04 
1.053393e-02 1.822650e+04 
1.174199e-02 1.810041e+04 
1.295006e-02 1.777607e+04 
1.415813e-02 1.730271e+04 
1.536619e-02 1.672010e+04 
1.657426e-02 1.605611e+04 
1.778233e-02 1.533726e+04 
1.899039e-02 1.460104e+04 
2.019846e-02 1.386706e+04 
2.140652e-02 1.315207e+04 
2.261459e-02 1.246528e+04 
2.382266e-02 1.181749e+04 
2.503072e-02 1.121565e+04 
2.623879e-02 1.066174e+04 
2.744685e-02 1.015620e+04 
2.865492e-02 9.699344e+03 
2.986299e-02 9.288385e+03 
3.100100e-02 8.942194e+03 
3.220400e-02 8.615710e+03 
3.288100e-02 8.449511e+03 
3.424300e-02 8.148001e+03 
3.555100e-02 7.894163e+03 
3.686000e-02 7.670432e+03 
3.795000e-02 7.502846e+03 
3.929100e-02 7.316408e+03 
4.039800e-02 7.173516e+03 
4.164000e-02 7.021412e+03 
4.294400e-02 6.864875e+03 
4.415000e-02 6.721727e+03 
4.542900e-02 6.564609e+03 
4.660900e-02 6.416951e+03 
4.782300e-02 6.254462e+03 
4.892900e-02 6.101875e+03 
5.031200e-02 5.902204e+03 
5.155900e-02 5.713760e+03 
5.238100e-02 5.586439e+03 
5.378200e-02 5.365372e+03 
5.513400e-02 5.147449e+03 
5.627600e-02 4.961181e+03 
5.735300e-02 4.785004e+03 
5.870100e-02 4.564823e+03 
5.988700e-02 4.373868e+03 
6.113500e-02 4.178062e+03 
6.225900e-02 4.009315e+03 
6.340100e-02 3.848536e+03 
6.480200e-02 3.668209e+03 
6.601100e-02 3.531015e+03 
6.725500e-02 3.407451e+03 
6.829100e-02 3.318802e+03 
6.958600e-02 3.221581e+03 
7.071100e-02 3.149600e+03 
7.192300e-02 3.082306e+03 
7.307400e-02 3.026774e+03 
7.412300e-02 2.982021e+03 
7.550400e-02 2.930593e+03 
7.663100e-02 2.892832e+03 
7.791200e-02 2.853969e+03 
7.912700e-02 2.819096e+03 
8.027600e-02 2.786714e+03 
8.138400e-02 2.755402e+03 
8.272200e-02 2.716529e+03 
8.406100e-02 2.675612e+03 
8.534100e-02 2.632990e+03 
8.653800e-02 2.589693e+03 
8.759800e-02 2.549316e+03 
8.900300e-02 2.492404e+03 
9.009000e-02 2.445470e+03 
9.113300e-02 2.397919e+03 
9.239600e-02 2.338965e+03 
9.358000e-02 2.281860e+03 
9.496100e-02 2.213213e+03 
9.608400e-02 2.157394e+03 
9.727500e-02 2.098726e+03 
9.852600e-02 2.037117e+03 
9.973800e-02 1.979364e+03 
1.009000e-01 1.925753e+03 
1.020900e-01 1.873669e+03 
1.034000e-01 1.819413e+03 
1.046000e-01 1.772603e+03 
1.057200e-01 1.733095e+03 
1.069100e-01 1.693542e+03 
1.082500e-01 1.654012e+03 
1.093900e-01 1.623905e+03 
1.105400e-01 1.595800e+03 
1.116900e-01 1.571884e+03 
1.129600e-01 1.547328e+03 
1.142000e-01 1.526874e+03 
1.153300e-01 1.509615e+03 
1.166400e-01 1.491533e+03 
1.177800e-01 1.476933e+03 
1.190000e-01 1.462038e+03 
1.201200e-01 1.448481e+03 
1.213400e-01 1.434031e+03 
1.227100e-01 1.416697e+03 
1.238900e-01 1.401655e+03 
1.250700e-01 1.385304e+03 
1.263200e-01 1.367591e+03 
1.275500e-01 1.348804e+03 
1.287500e-01 1.329925e+03 
1.299900e-01 1.309331e+03 
1.311300e-01 1.289979e+03 
1.323500e-01 1.268462e+03 
1.335900e-01 1.246445e+03 
1.347100e-01 1.226133e+03 
1.359800e-01 1.203288e+03 
1.372100e-01 1.180992e+03 
1.384300e-01 1.159304e+03 
1.395700e-01 1.139236e+03 
1.407700e-01 1.118618e+03 
1.420300e-01 1.097602e+03 
1.432800e-01 1.077269e+03 
1.444500e-01 1.059261e+03 
1.456300e-01 1.041509e+03 
1.468900e-01 1.023731e+03 
1.480500e-01 1.007950e+03 
1.491700e-01 9.935036e+02 
1.503800e-01 9.788231e+02 
1.516400e-01 9.640867e+02 
1.528200e-01 9.515403e+02 
1.540200e-01 9.390349e+02 
1.551900e-01 9.279021e+02 
1.564300e-01 9.165315e+02 
1.576600e-01 9.058176e+02 
1.588700e-01 8.958924e+02 
1.600900e-01 8.860925e+02 
1.612700e-01 8.771434e+02 
1.625400e-01 8.676905e+02 
1.637600e-01 8.587468e+02 
1.649500e-01 8.501608e+02 
1.662200e-01 8.411022e+02 
1.674000e-01 8.324896e+02 
1.685000e-01 8.245957e+02 
1.697500e-01 8.154473e+02 
1.710300e-01 8.059216e+02 
1.722200e-01 7.972256e+02 
1.734400e-01 7.877467e+02 
1.746400e-01 7.785597e+02 
1.758700e-01 7.691064e+02 
1.770900e-01 7.594830e+02 
1.782700e-01 7.503406e+02 
1.794600e-01 7.410282e+02 
1.807000e-01 7.313288e+02 
1.819100e-01 7.220357e+02 
1.830100e-01 7.136181e+02 
1.842200e-01 7.044968e+02 
1.855000e-01 6.950276e+02 
1.867000e-01 6.864003e+02 
1.879200e-01 6.777821e+02 
1.890900e-01 6.697005e+02 
1.902800e-01 6.618360e+02 
1.915200e-01 6.537801e+02 
1.926900e-01 6.463871e+02 
1.939000e-01 6.391291e+02 
1.951700e-01 6.316386e+02 
1.963100e-01 6.251114e+02 
1.975100e-01 6.185820e+02 
1.987800e-01 6.117829e+02 
2.000100e-01 6.053819e+02 
2.012500e-01 5.992102e+02 
2.023400e-01 5.938650e+02 
2.036100e-01 5.877588e+02 
2.048900e-01 5.818156e+02 
2.060400e-01 5.765562e+02 
2.072200e-01 5.712390e+02 
2.084200e-01 5.659387e+02 
2.096900e-01 5.604130e+02 
2.109200e-01 5.551419e+02 
2.121100e-01 5.500647e+02 
2.132700e-01 5.451822e+02 
2.145200e-01 5.399963e+02 
2.157200e-01 5.350230e+02 
2.168800e-01 5.302517e+02 
2.180700e-01 5.254245e+02 
2.193400e-01 5.203093e+02 
2.206000e-01 5.152394e+02 
2.217500e-01 5.106770e+02 
2.229500e-01 5.059810e+02 
2.241400e-01 5.013046e+02 
2.253500e-01 4.966133e+02 
2.264900e-01 4.922530e+02 
2.277100e-01 4.876289e+02 
2.289900e-01 4.828234e+02 
2.301500e-01 4.785288e+02 
2.313600e-01 4.741089e+02 
2.325600e-01 4.697791e+02 
2.337700e-01 4.654721e+02 
2.350000e-01 4.611534e+02 
2.362000e-01 4.570100e+02 
2.374100e-01 4.529032e+02 
2.386500e-01 4.487511e+02 
2.399100e-01 4.445894e+02 
2.410400e-01 4.409497e+02 
2.422500e-01 4.371068e+02 
2.435000e-01 4.331892e+02 
2.447300e-01 4.293957e+02 
2.458700e-01 4.259667e+02 
2.470600e-01 4.224311e+02 
2.483300e-01 4.187062e+02 
2.495600e-01 4.151681e+02 
2.507600e-01 4.117904e+02 
2.519600e-01 4.084542e+02 
2.532200e-01 4.049951e+02 
2.543700e-01 4.019008e+02 
2.555500e-01 3.987794e+02 
2.568000e-01 3.955131e+02 
2.580100e-01 3.923901e+02 
2.592400e-01 3.892691e+02 
2.604100e-01 3.863422e+02 
2.616100e-01 3.833751e+02 
2.628400e-01 3.803700e+02 
2.640600e-01 3.774346e+02 
2.652200e-01 3.746795e+02 
2.664300e-01 3.718385e+02 
2.676500e-01 3.690073e+02 
2.688400e-01 3.662776e+02 
2.700700e-01 3.634887e+02 
2.712400e-01 3.608659e+02 
2.724800e-01 3.581177e+02 
2.736700e-01 3.555074e+02 
2.748800e-01 3.528799e+02 
2.761000e-01 3.502607e+02 
2.773200e-01 3.476710e+02 
2.785400e-01 3.451079e+02 
2.797000e-01 3.426917e+02 
2.808900e-01 3.402398e+02 
2.821400e-01 3.376930e+02 
2.833900e-01 3.351746e+02 
2.845500e-01 3.328525e+02 
2.857800e-01 3.304170e+02 
2.870300e-01 3.279694e+02 
2.882100e-01 3.256840e+02 
2.893900e-01 3.234185e+02 
2.906300e-01 3.210611e+02 
2.918900e-01 3.186922e+02 
2.930500e-01 3.165346e+02 
2.942500e-01 3.143243e+02 
2.954200e-01 3.121872e+02 
2.966500e-01 3.099641e+02 
2.978900e-01 3.077469e+02 
2.990400e-01 3.057120e+02 
3.002700e-01 3.035569e+02 
3.015100e-01 3.014068e+02 
3.026800e-01 2.993991e+02 
3.038500e-01 2.974114e+02 
3.050300e-01 2.954268e+02 
3.062600e-01 2.933788e+02 
3.075000e-01 2.913356e+02 
3.087000e-01 2.893786e+02 
3.099100e-01 2.874253e+02 
3.111200e-01 2.854928e+02 
3.123100e-01 2.836134e+02 
3.135300e-01 2.817058e+02 
3.147300e-01 2.798482e+02 
3.159900e-01 2.779175e+02 
3.171800e-01 2.761161e+02 
3.183700e-01 2.743348e+02 
3.196300e-01 2.724674e+02 
3.208400e-01 2.706920e+02 
3.220300e-01 2.689628e+02 
3.232000e-01 2.672840e+02 
3.244300e-01 2.655379e+02 
3.256700e-01 2.637950e+02 
3.269200e-01 2.620554e+02 
3.280800e-01 2.604564e+02 
3.292500e-01 2.588651e+02 
3.304800e-01 2.572100e+02 
3.317100e-01 2.555708e+02 
3.328900e-01 2.540130e+02 
3.340700e-01 2.524695e+02 
3.353600e-01 2.508044e+02 
3.365300e-01 2.493110e+02 
3.377100e-01 2.478183e+02 
3.389200e-01 2.463017e+02 
3.401600e-01 2.447619e+02 
3.413700e-01 2.432794e+02 
3.425300e-01 2.418750e+02 
3.437700e-01 2.403873e+02 
3.449800e-01 2.389490e+02 
3.461800e-01 2.375353e+02 
3.473600e-01 2.361599e+02 
3.485800e-01 2.347560e+02 
3.498100e-01 2.333535e+02 
3.510200e-01 2.319861e+02 
3.522000e-01 2.306643e+02 
3.533900e-01 2.293428e+02 
3.546400e-01 2.279754e+02 
3.558400e-01 2.266749e+02 
3.570600e-01 2.253642e+02 
3.582700e-01 2.240756e+02 
3.595000e-01 2.227771e+02 
3.607100e-01 2.215152e+02 
3.618900e-01 2.202984e+02 
3.631200e-01 2.190409e+02 
3.643200e-01 2.178246e+02 
3.655500e-01 2.165885e+02 
3.667300e-01 2.154127e+02 
3.679500e-01 2.142141e+02 
3.691900e-01 2.130063e+02 
3.703600e-01 2.118762e+02 
3.715700e-01 2.107170e+02 
3.727700e-01 2.095770e+02 
3.739900e-01 2.084296e+02 
3.752000e-01 2.073045e+02 
3.763900e-01 2.062071e+02 
3.775800e-01 2.051185e+02 
3.788200e-01 2.039936e+02 
3.800300e-01 2.029050e+02 
3.812100e-01 2.018550e+02 
3.824200e-01 2.007891e+02 
3.836100e-01 1.997492e+02 
3.848600e-01 1.986657e+02 
3.860400e-01 1.976512e+02 
3.872400e-01 1.966277e+02 
3.884600e-01 1.955989e+02 
3.896500e-01 1.946047e+02 
3.908700e-01 1.935935e+02 
3.920600e-01 1.926149e+02 
3.933100e-01 1.915952e+02 
3.945300e-01 1.906080e+02 
3.957200e-01 1.896558e+02 
3.969300e-01 1.886961e+02 
3.981700e-01 1.877203e+02 
3.993500e-01 1.867989e+02 
4.094840e-01 1.791852e+02 
4.272360e-01 1.670511e+02 
4.454600e-01 1.559659e+02 
4.630560e-01 1.463993e+02 
4.804610e-01 1.378895e+02 
4.980690e-01 1.301229e+02 
5.159230e-01 1.230007e+02 
5.317440e-01 1.172438e+02 
5.489640e-01 1.115045e+02 
5.671990e-01 1.059596e+02 
5.838690e-01 1.013033e+02 
6.018840e-01 9.667398e+01 
6.202330e-01 9.234369e+01 
6.379250e-01 8.848434e+01 
6.545410e-01 8.512677e+01 
6.714560e-01 8.193913e+01 
6.892080e-01 7.882213e+01 
7.066010e-01 7.597777e+01 
7.240540e-01 7.330767e+01 
7.420450e-01 7.073654e+01 
7.593780e-01 6.841699e+01 
7.764720e-01 6.626560e+01 
7.942840e-01 6.415784e+01 
8.116170e-01 6.222802e+01 
8.288310e-01 6.042001e+01 
8.462240e-01 5.869312e+01 
8.631980e-01 5.709875e+01 
8.810700e-01 5.550934e+01 
8.989410e-01 5.400466e+01 
9.166330e-01 5.259148e+01 
9.345640e-01 5.123279e+01 
9.515980e-01 5.000473e+01 
9.688720e-01 4.881752e+01 
9.865640e-01 4.765941e+01 
1.031870e+00 4.492429e+01 
1.063490e+00 4.319323e+01 
1.097920e+00 4.145432e+01 
1.134370e+00 3.975567e+01 
1.167730e+00 3.831720e+01 
1.203830e+00 3.687173e+01 
1.240470e+00 3.550844e+01 
1.275790e+00 3.428394e+01 
1.309140e+00 3.320062e+01 
1.342970e+00 3.216553e+01 
1.378420e+00 3.114508e+01 
1.413200e+00 3.020195e+01 
1.448110e+00 2.930749e+01 
1.484090e+00 2.843539e+01 
1.518820e+00 2.763865e+01 
1.552880e+00 2.689563e+01 
1.588630e+00 2.615402e+01 
1.623230e+00 2.547033e+01 
1.657720e+00 2.482113e+01 
1.692450e+00 2.419616e+01 
1.726400e+00 2.361205e+01 
1.762200e+00 2.302196e+01 
1.797880e+00 2.245925e+01 
1.833270e+00 2.192453e+01 
1.869070e+00 2.140586e+01 
1.903200e+00 2.093044e+01 
1.937740e+00 2.046783e+01 
1.973190e+00 2.001069e+01 
2.007440e+00 1.958534e+01 
2.042160e+00 1.916931e+01 
2.077900e+00 1.875634e+01 
2.112390e+00 1.837228e+01 
2.146220e+00 1.800745e+01 
2.181600e+00 1.763878e+01 
2.216930e+00 1.728252e+01 
2.250760e+00 1.695241e+01 
2.286500e+00 1.661497e+01 
2.321770e+00 1.629263e+01 
2.355950e+00 1.598933e+01 
2.391280e+00 1.568529e+01 
2.426240e+00 1.539321e+01 
2.460670e+00 1.511408e+01 
2.495640e+00 1.483913e+01 
2.531080e+00 1.456788e+01 
2.566220e+00 1.430637e+01 
2.600830e+00 1.405600e+01 
2.635080e+00 1.381507e+01 
2.670340e+00 1.357343e+01 
2.705970e+00 1.333571e+01 
2.740040e+00 1.311442e+01 
2.774520e+00 1.289597e+01 
2.809730e+00 1.267836e+01 
2.844390e+00 1.246978e+01 
2.879960e+00 1.226105e+01 
2.914860e+00 1.206100e+01 
2.949410e+00 1.186795e+01 
2.984440e+00 1.167654e+01 
3.019760e+00 1.148825e+01 
3.054730e+00 1.130657e+01 
3.089030e+00 1.113170e+01 
3.124060e+00 1.095748e+01 
3.159560e+00 1.078505e+01 
3.194710e+00 1.061791e+01 
3.229010e+00 1.045872e+01 
3.263320e+00 1.030225e+01 
3.297930e+00 1.014813e+01 
3.332830e+00 9.995981e+00 
3.368040e+00 9.845698e+00 
3.403300e+00 9.698527e+00 
3.438450e+00 9.554639e+00 
3.473060e+00 9.416281e+00 
3.508440e+00 9.277102e+00 
3.543110e+00 9.143900e+00 
3.577470e+00 9.014179e+00 
3.613040e+00 8.882838e+00 
3.648120e+00 8.755612e+00 
3.682910e+00 8.632128e+00 
3.718050e+00 8.509770e+00 
3.753320e+00 8.389386e+00 
3.787980e+00 8.273155e+00 
3.822290e+00 8.160378e+00 
3.857020e+00 8.048292e+00 
3.891920e+00 7.937880e+00 
3.926650e+00 7.829902e+00 
3.961970e+00 7.722263e+00 
3.997360e+00 7.616166e+00 
4.031670e+00 7.515410e+00 
4.066330e+00 7.415222e+00 
4.101420e+00 7.315934e+00 
4.136200e+00 7.218829e+00 
4.170810e+00 7.124228e+00 
4.206250e+00 7.028828e+00 
4.241580e+00 6.935627e+00 
4.276300e+00 6.845522e+00 
4.310970e+00 6.757153e+00 
4.346120e+00 6.669146e+00 
4.380600e+00 6.584158e+00 
4.414730e+00 6.501678e+00 
4.450350e+00 6.416720e+00 
4.485320e+00 6.334985e+00 
4.519810e+00 6.255608e+00 
4.555430e+00 6.175085e+00 
4.590870e+00 6.096366e+00 
4.625480e+00 6.020591e+00 
4.659910e+00 5.946641e+00 
4.695230e+00 5.871823e+00 
4.729960e+00 5.799593e+00 
4.764450e+00 5.729064e+00 
4.799530e+00 5.658435e+00 
4.834910e+00 5.588539e+00 
4.869700e+00 5.520666e+00 
4.904370e+00 5.454195e+00 
4.939450e+00 5.388072e+00 
4.973940e+00 5.324001e+00 
5.008430e+00 5.261070e+00 
5.043810e+00 5.197448e+00 
5.078840e+00 5.135456e+00 
5.113500e+00 5.075202e+00 
5.148890e+00 5.014459e+00 
5.184210e+00 4.954898e+00 
5.219060e+00 4.897091e+00 
5.253660e+00 4.840500e+00 
5.288570e+00 4.784380e+00 
5.323420e+00 4.729170e+00 
5.358440e+00 4.674475e+00 
5.393590e+00 4.620512e+00 
5.428310e+00 4.567990e+00 
5.462800e+00 4.516621e+00 
5.497640e+00 4.465589e+00 
5.532670e+00 4.414964e+00 
5.567280e+00 4.365715e+00 
5.602000e+00 4.317113e+00 
5.637270e+00 4.268394e+00 
5.672410e+00 4.220611e+00 
5.707020e+00 4.174307e+00 
5.742040e+00 4.128079e+00 
5.777430e+00 4.082088e+00 
5.812210e+00 4.037611e+00 
5.846820e+00 3.993945e+00 
5.881610e+00 3.950711e+00 
5.916510e+00 3.908017e+00 
5.951600e+00 3.865681e+00 
5.986560e+00 3.824123e+00 
6.021830e+00 3.782844e+00 
6.056490e+00 3.742843e+00 
6.091160e+00 3.703386e+00 
6.125830e+00 3.664523e+00 
6.161090e+00 3.625570e+00 
6.195760e+00 3.587791e+00 
6.230420e+00 3.550582e+00 
6.265690e+00 3.513281e+00 
6.300950e+00 3.476507e+00 
6.335620e+00 3.440881e+00 
6.370880e+00 3.405180e+00 
6.405550e+00 3.370548e+00 
6.440220e+00 3.336398e+00 
6.475480e+00 3.302169e+00 
6.510150e+00 3.268989e+00 
6.544810e+00 3.236272e+00 
6.580080e+00 3.203454e+00 
6.614750e+00 3.171652e+00 
6.649410e+00 3.140275e+00 
6.684080e+00 3.109320e+00 
6.719340e+00 3.078278e+00 
6.754010e+00 3.048181e+00 
6.788680e+00 3.018499e+00 
6.823940e+00 2.988728e+00 
6.859800e+00 2.958873e+00 
6.894470e+00 2.930422e+00 
6.929140e+00 2.902360e+00 
6.963800e+00 2.874683e+00 
6.999070e+00 2.846898e+00 
7.033730e+00 2.819961e+00 
7.068400e+00 2.793373e+00 
7.103660e+00 2.766692e+00 
7.138330e+00 2.740808e+00 
7.173600e+00 2.714829e+00 
7.208260e+00 2.689635e+00 
7.243530e+00 2.664332e+00 
7.277600e+00 2.640228e+00 
7.312860e+00 2.615621e+00 
7.348120e+00 2.591334e+00 
7.382790e+00 2.567760e+00 
7.417460e+00 2.544495e+00 
7.452720e+00 2.521140e+00 
7.487390e+00 2.498466e+00 
7.522650e+00 2.475697e+00 
7.557320e+00 2.453624e+00 
7.591990e+00 2.431836e+00 
7.627250e+00 2.409953e+00 
7.662510e+00 2.388343e+00 
7.697180e+00 2.367398e+00 
7.731850e+00 2.346724e+00 
7.766510e+00 2.326306e+00 
7.801180e+00 2.306129e+00 
7.836440e+00 2.285883e+00 
7.871110e+00 2.266232e+00 
7.906380e+00 2.246482e+00 
7.941040e+00 2.227305e+00 
7.976310e+00 2.208046e+00 
8.011570e+00 2.189050e+00 
8.046240e+00 2.170593e+00 
8.080900e+00 2.152356e+00 
8.115570e+00 2.134340e+00 
8.150830e+00 2.116278e+00 
8.185500e+00 2.098726e+00 
8.220770e+00 2.081076e+00 
8.255430e+00 2.063932e+00 
8.290100e+00 2.047032e+00 
8.324770e+00 2.030329e+00 
8.359430e+00 2.013819e+00 
8.394700e+00 1.997210e+00 
8.429960e+00 1.980821e+00 
8.464630e+00 1.964914e+00 
8.499890e+00 1.948917e+00 
8.534560e+00 1.933364e+00 
8.569200e+00 1.917996e+00 
