# Parameters:
# omega_b = 0.023295, omega_m = 0.146181, n_s = 1.050000, h = 79.566929, w = -1.000000, sigma_8 = 0.844882
# z = 1.900000
#
# k[1/Mpc] # P(k):
8.694000e-04 1.767305e+03 
2.077466e-03 4.086683e+03 
3.285532e-03 6.038042e+03 
4.493598e-03 7.638000e+03 
5.701664e-03 8.899591e+03 
6.909730e-03 9.860170e+03 
8.117797e-03 1.057533e+04 
9.325863e-03 1.107249e+04 
1.053393e-02 1.138070e+04 
1.174199e-02 1.152821e+04 
1.295006e-02 1.153402e+04 
1.415813e-02 1.142607e+04 
1.536619e-02 1.122784e+04 
1.657426e-02 1.095590e+04 
1.778233e-02 1.062688e+04 
1.899039e-02 1.026557e+04 
2.019846e-02 9.885705e+03 
2.140652e-02 9.499903e+03 
2.261459e-02 9.115396e+03 
2.382266e-02 8.741445e+03 
2.503072e-02 8.385055e+03 
2.623879e-02 8.049674e+03 
2.744685e-02 7.736853e+03 
2.865492e-02 7.449233e+03 
2.986299e-02 7.186598e+03 
3.100100e-02 6.962334e+03 
3.220400e-02 6.748526e+03 
3.288100e-02 6.638777e+03 
3.424300e-02 6.438571e+03 
3.555100e-02 6.269046e+03 
3.686000e-02 6.119178e+03 
3.795000e-02 6.006865e+03 
3.929100e-02 5.882213e+03 
4.039800e-02 5.787039e+03 
4.164000e-02 5.686014e+03 
4.294400e-02 5.582495e+03 
4.415000e-02 5.487941e+03 
4.542900e-02 5.383981e+03 
4.660900e-02 5.285943e+03 
4.782300e-02 5.177175e+03 
4.892900e-02 5.074220e+03 
5.031200e-02 4.938010e+03 
5.155900e-02 4.807700e+03 
5.238100e-02 4.718666e+03 
5.378200e-02 4.562151e+03 
5.513400e-02 4.405017e+03 
5.627600e-02 4.268313e+03 
5.735300e-02 4.136835e+03 
5.870100e-02 3.969307e+03 
5.988700e-02 3.821087e+03 
6.113500e-02 3.666198e+03 
6.225900e-02 3.530296e+03 
6.340100e-02 3.398820e+03 
6.480200e-02 3.249382e+03 
6.601100e-02 3.134068e+03 
6.725500e-02 3.029155e+03 
6.829100e-02 2.953186e+03 
6.958600e-02 2.869414e+03 
7.071100e-02 2.807028e+03 
7.192300e-02 2.748521e+03 
7.307400e-02 2.700214e+03 
7.412300e-02 2.661379e+03 
7.550400e-02 2.617121e+03 
7.663100e-02 2.585013e+03 
7.791200e-02 2.552776e+03 
7.912700e-02 2.524742e+03 
8.027600e-02 2.499417e+03 
8.138400e-02 2.475492e+03 
8.272200e-02 2.446460e+03 
8.406100e-02 2.416397e+03 
8.534100e-02 2.385342e+03 
8.653800e-02 2.353700e+03 
8.759800e-02 2.324003e+03 
8.900300e-02 2.281709e+03 
9.009000e-02 2.246333e+03 
9.113300e-02 2.209911e+03 
9.239600e-02 2.164189e+03 
9.358000e-02 2.119162e+03 
9.496100e-02 2.063904e+03 
9.608400e-02 2.018290e+03 
9.727500e-02 1.969792e+03 
9.852600e-02 1.917637e+03 
9.973800e-02 1.868162e+03 
1.009000e-01 1.821753e+03 
1.020900e-01 1.775627e+03 
1.034000e-01 1.727081e+03 
1.046000e-01 1.684696e+03 
1.057200e-01 1.648176e+03 
1.069100e-01 1.611346e+03 
1.082500e-01 1.573821e+03 
1.093900e-01 1.544851e+03 
1.105400e-01 1.517566e+03 
1.116900e-01 1.493929e+03 
1.129600e-01 1.469549e+03 
1.142000e-01 1.449053e+03 
1.153300e-01 1.431812e+03 
1.166400e-01 1.413837e+03 
1.177800e-01 1.399665e+03 
1.190000e-01 1.385375e+03 
1.201200e-01 1.373047e+03 
1.213400e-01 1.360030e+03 
1.227100e-01 1.345468e+03 
1.238900e-01 1.333014e+03 
1.250700e-01 1.320015e+03 
1.263200e-01 1.306059e+03 
1.275500e-01 1.291508e+03 
1.287500e-01 1.276887e+03 
1.299900e-01 1.260933e+03 
1.311300e-01 1.245795e+03 
1.323500e-01 1.228749e+03 
1.335900e-01 1.211038e+03 
1.347100e-01 1.194359e+03 
1.359800e-01 1.175322e+03 
1.372100e-01 1.156218e+03 
1.384300e-01 1.137388e+03 
1.395700e-01 1.119418e+03 
1.407700e-01 1.100870e+03 
1.420300e-01 1.081261e+03 
1.432800e-01 1.062276e+03 
1.444500e-01 1.044894e+03 
1.456300e-01 1.027754e+03 
1.468900e-01 1.010312e+03 
1.480500e-01 9.947430e+02 
1.491700e-01 9.804322e+02 
1.503800e-01 9.658138e+02 
1.516400e-01 9.511531e+02 
1.528200e-01 9.387264e+02 
1.540200e-01 9.263406e+02 
1.551900e-01 9.154941e+02 
1.564300e-01 9.044622e+02 
1.576600e-01 8.942066e+02 
1.588700e-01 8.848792e+02 
1.600900e-01 8.756848e+02 
1.612700e-01 8.675932e+02 
1.625400e-01 8.590450e+02 
1.637600e-01 8.510961e+02 
1.649500e-01 8.435455e+02 
1.662200e-01 8.355936e+02 
1.674000e-01 8.281170e+02 
1.685000e-01 8.212627e+02 
1.697500e-01 8.132922e+02 
1.710300e-01 8.049657e+02 
1.722200e-01 7.973612e+02 
1.734400e-01 7.889328e+02 
1.746400e-01 7.807542e+02 
1.758700e-01 7.722732e+02 
1.770900e-01 7.635134e+02 
1.782700e-01 7.551865e+02 
1.794600e-01 7.465943e+02 
1.807000e-01 7.375710e+02 
1.819100e-01 7.289207e+02 
1.830100e-01 7.209596e+02 
1.842200e-01 7.123085e+02 
1.855000e-01 7.033183e+02 
1.867000e-01 6.950153e+02 
1.879200e-01 6.867180e+02 
1.890900e-01 6.789234e+02 
1.902800e-01 6.712779e+02 
1.915200e-01 6.634442e+02 
1.926900e-01 6.562458e+02 
1.939000e-01 6.491536e+02 
1.951700e-01 6.418326e+02 
1.963100e-01 6.354527e+02 
1.975100e-01 6.290724e+02 
1.987800e-01 6.224273e+02 
2.000100e-01 6.161791e+02 
2.012500e-01 6.101753e+02 
2.023400e-01 6.049747e+02 
2.036100e-01 5.990415e+02 
2.048900e-01 5.933015e+02 
2.060400e-01 5.882208e+02 
2.072200e-01 5.830865e+02 
2.084200e-01 5.780070e+02 
2.096900e-01 5.727104e+02 
2.109200e-01 5.676566e+02 
2.121100e-01 5.628173e+02 
2.132700e-01 5.581641e+02 
2.145200e-01 5.532203e+02 
2.157200e-01 5.484895e+02 
2.168800e-01 5.439547e+02 
2.180700e-01 5.393655e+02 
2.193400e-01 5.345008e+02 
2.206000e-01 5.296772e+02 
2.217500e-01 5.253351e+02 
2.229500e-01 5.208646e+02 
2.241400e-01 5.164009e+02 
2.253500e-01 5.119213e+02 
2.264900e-01 5.077565e+02 
2.277100e-01 5.033283e+02 
2.289900e-01 4.987138e+02 
2.301500e-01 4.945885e+02 
2.313600e-01 4.903414e+02 
2.325600e-01 4.861569e+02 
2.337700e-01 4.819932e+02 
2.350000e-01 4.778170e+02 
2.362000e-01 4.737992e+02 
2.374100e-01 4.698042e+02 
2.386500e-01 4.657639e+02 
2.399100e-01 4.617132e+02 
2.410400e-01 4.581531e+02 
2.422500e-01 4.543914e+02 
2.435000e-01 4.505555e+02 
2.447300e-01 4.468372e+02 
2.458700e-01 4.434633e+02 
2.470600e-01 4.399837e+02 
2.483300e-01 4.363170e+02 
2.495600e-01 4.328285e+02 
2.507600e-01 4.294909e+02 
2.519600e-01 4.261937e+02 
2.532200e-01 4.227743e+02 
2.543700e-01 4.197098e+02 
2.555500e-01 4.166144e+02 
2.568000e-01 4.133746e+02 
2.580100e-01 4.102764e+02 
2.592400e-01 4.071763e+02 
2.604100e-01 4.042668e+02 
2.616100e-01 4.013170e+02 
2.628400e-01 3.983289e+02 
2.640600e-01 3.954084e+02 
2.652200e-01 3.926665e+02 
2.664300e-01 3.898386e+02 
2.676500e-01 3.870200e+02 
2.688400e-01 3.843025e+02 
2.700700e-01 3.815259e+02 
2.712400e-01 3.789143e+02 
2.724800e-01 3.761774e+02 
2.736700e-01 3.735790e+02 
2.748800e-01 3.709646e+02 
2.761000e-01 3.683579e+02 
2.773200e-01 3.657803e+02 
2.785400e-01 3.632293e+02 
2.797000e-01 3.608258e+02 
2.808900e-01 3.583863e+02 
2.821400e-01 3.558519e+02 
2.833900e-01 3.533455e+02 
2.845500e-01 3.510377e+02 
2.857800e-01 3.486167e+02 
2.870300e-01 3.461832e+02 
2.882100e-01 3.439106e+02 
2.893900e-01 3.416591e+02 
2.906300e-01 3.393168e+02 
2.918900e-01 3.369625e+02 
2.930500e-01 3.348179e+02 
2.942500e-01 3.326207e+02 
2.954200e-01 3.304966e+02 
2.966500e-01 3.282866e+02 
2.978900e-01 3.260820e+02 
2.990400e-01 3.240583e+02 
3.002700e-01 3.219146e+02 
3.015100e-01 3.197755e+02 
3.026800e-01 3.177777e+02 
3.038500e-01 3.157993e+02 
3.050300e-01 3.138236e+02 
3.062600e-01 3.117839e+02 
3.075000e-01 3.097485e+02 
3.087000e-01 3.077986e+02 
3.099100e-01 3.058519e+02 
3.111200e-01 3.039252e+02 
3.123100e-01 3.020501e+02 
3.135300e-01 3.001465e+02 
3.147300e-01 2.982924e+02 
3.159900e-01 2.963649e+02 
3.171800e-01 2.945650e+02 
3.183700e-01 2.927840e+02 
3.196300e-01 2.909167e+02 
3.208400e-01 2.891410e+02 
3.220300e-01 2.874112e+02 
3.232000e-01 2.857303e+02 
3.244300e-01 2.839814e+02 
3.256700e-01 2.822353e+02 
3.269200e-01 2.804922e+02 
3.280800e-01 2.788896e+02 
3.292500e-01 2.772929e+02 
3.304800e-01 2.756313e+02 
3.317100e-01 2.739854e+02 
3.328900e-01 2.724209e+02 
3.340700e-01 2.708704e+02 
3.353600e-01 2.691962e+02 
3.365300e-01 2.676938e+02 
3.377100e-01 2.661919e+02 
3.389200e-01 2.646656e+02 
3.401600e-01 2.631157e+02 
3.413700e-01 2.616224e+02 
3.425300e-01 2.602070e+02 
3.437700e-01 2.587074e+02 
3.449800e-01 2.572572e+02 
3.461800e-01 2.558317e+02 
3.473600e-01 2.544441e+02 
3.485800e-01 2.530268e+02 
3.498100e-01 2.516105e+02 
3.510200e-01 2.502296e+02 
3.522000e-01 2.488944e+02 
3.533900e-01 2.475594e+02 
3.546400e-01 2.461766e+02 
3.558400e-01 2.448612e+02 
3.570600e-01 2.435353e+02 
3.582700e-01 2.422315e+02 
3.595000e-01 2.409176e+02 
3.607100e-01 2.396402e+02 
3.618900e-01 2.384081e+02 
3.631200e-01 2.371345e+02 
3.643200e-01 2.359025e+02 
3.655500e-01 2.346502e+02 
3.667300e-01 2.334589e+02 
3.679500e-01 2.322431e+02 
3.691900e-01 2.310178e+02 
3.703600e-01 2.298712e+02 
3.715700e-01 2.286949e+02 
3.727700e-01 2.275379e+02 
3.739900e-01 2.263732e+02 
3.752000e-01 2.252310e+02 
3.763900e-01 2.241167e+02 
3.775800e-01 2.230112e+02 
3.788200e-01 2.218686e+02 
3.800300e-01 2.207628e+02 
3.812100e-01 2.196955e+02 
3.824200e-01 2.186116e+02 
3.836100e-01 2.175540e+02 
3.848600e-01 2.164520e+02 
3.860400e-01 2.154199e+02 
3.872400e-01 2.143784e+02 
3.884600e-01 2.133313e+02 
3.896500e-01 2.123192e+02 
3.908700e-01 2.112896e+02 
3.920600e-01 2.102931e+02 
3.933100e-01 2.092545e+02 
3.945300e-01 2.082489e+02 
3.957200e-01 2.072784e+02 
3.969300e-01 2.062999e+02 
3.981700e-01 2.053050e+02 
3.993500e-01 2.043654e+02 
4.094840e-01 1.965930e+02 
4.272360e-01 1.841698e+02 
4.454600e-01 1.727700e+02 
4.630560e-01 1.628862e+02 
4.804610e-01 1.540489e+02 
4.980690e-01 1.459418e+02 
5.159230e-01 1.384684e+02 
5.317440e-01 1.324001e+02 
5.489640e-01 1.263228e+02 
5.671990e-01 1.204254e+02 
5.838690e-01 1.154546e+02 
6.018840e-01 1.104957e+02 
6.202330e-01 1.058425e+02 
6.379250e-01 1.016853e+02 
6.545410e-01 9.806037e+01 
6.714560e-01 9.461310e+01 
6.892080e-01 9.123708e+01 
7.066010e-01 8.815270e+01 
7.240540e-01 8.525380e+01 
7.420450e-01 8.246015e+01 
7.593780e-01 7.993836e+01 
7.764720e-01 7.759741e+01 
7.942840e-01 7.530287e+01 
8.116170e-01 7.320122e+01 
8.288310e-01 7.123152e+01 
8.462240e-01 6.934952e+01 
8.631980e-01 6.761114e+01 
8.810700e-01 6.587749e+01 
8.989410e-01 6.423539e+01 
9.166330e-01 6.269263e+01 
9.345640e-01 6.120845e+01 
9.515980e-01 5.986629e+01 
9.688720e-01 5.856815e+01 
9.865640e-01 5.730106e+01 
1.031870e+00 5.430374e+01 
1.063490e+00 5.240273e+01 
1.097920e+00 5.049062e+01 
1.134370e+00 4.861774e+01 
1.167730e+00 4.702835e+01 
1.203830e+00 4.542628e+01 
1.240470e+00 4.391131e+01 
1.275790e+00 4.254595e+01 
1.309140e+00 4.133482e+01 
1.342970e+00 4.017330e+01 
1.378420e+00 3.902515e+01 
1.413200e+00 3.796005e+01 
1.448110e+00 3.694613e+01 
1.484090e+00 3.595482e+01 
1.518820e+00 3.504558e+01 
1.552880e+00 3.419442e+01 
1.588630e+00 3.334188e+01 
1.623230e+00 3.255339e+01 
1.657720e+00 3.180221e+01 
1.692450e+00 3.107659e+01 
1.726400e+00 3.039569e+01 
1.762200e+00 2.970548e+01 
1.797880e+00 2.904507e+01 
1.833270e+00 2.841557e+01 
1.869070e+00 2.780256e+01 
1.903200e+00 2.723906e+01 
1.937740e+00 2.668909e+01 
1.973190e+00 2.614372e+01 
2.007440e+00 2.563464e+01 
2.042160e+00 2.513531e+01 
2.077900e+00 2.463804e+01 
2.112390e+00 2.417420e+01 
2.146220e+00 2.373220e+01 
2.181600e+00 2.328430e+01 
2.216930e+00 2.285022e+01 
2.250760e+00 2.244687e+01 
2.286500e+00 2.203348e+01 
2.321770e+00 2.163760e+01 
2.355950e+00 2.126414e+01 
2.391280e+00 2.088844e+01 
2.426240e+00 2.052670e+01 
2.460670e+00 2.018025e+01 
2.495640e+00 1.983820e+01 
2.531080e+00 1.949959e+01 
2.566220e+00 1.917250e+01 
2.600830e+00 1.885871e+01 
2.635080e+00 1.855611e+01 
2.670340e+00 1.825162e+01 
2.705970e+00 1.795151e+01 
2.740040e+00 1.767166e+01 
2.774520e+00 1.739469e+01 
2.809730e+00 1.711817e+01 
2.844390e+00 1.685268e+01 
2.879960e+00 1.658639e+01 
2.914860e+00 1.633054e+01 
2.949410e+00 1.608328e+01 
2.984440e+00 1.583762e+01 
3.019760e+00 1.559552e+01 
3.054730e+00 1.536161e+01 
3.089030e+00 1.513578e+01 
3.124060e+00 1.491052e+01 
3.159560e+00 1.468719e+01 
3.194710e+00 1.447030e+01 
3.229010e+00 1.426355e+01 
3.263320e+00 1.405976e+01 
3.297930e+00 1.385884e+01 
3.332830e+00 1.366015e+01 
3.368040e+00 1.346358e+01 
3.403300e+00 1.327083e+01 
3.438450e+00 1.308203e+01 
3.473060e+00 1.290037e+01 
3.508440e+00 1.271715e+01 
3.543110e+00 1.254170e+01 
3.577470e+00 1.237048e+01 
3.613040e+00 1.219700e+01 
3.648120e+00 1.202867e+01 
3.682910e+00 1.186514e+01 
3.718050e+00 1.170284e+01 
3.753320e+00 1.154301e+01 
3.787980e+00 1.138849e+01 
3.822290e+00 1.123843e+01 
3.857020e+00 1.108907e+01 
3.891920e+00 1.094183e+01 
3.926650e+00 1.079762e+01 
3.961970e+00 1.065377e+01 
3.997360e+00 1.051177e+01 
4.031670e+00 1.037686e+01 
4.066330e+00 1.024247e+01 
4.101420e+00 1.010926e+01 
4.136200e+00 9.978755e+00 
4.170810e+00 9.851601e+00 
4.206250e+00 9.723167e+00 
4.241580e+00 9.597641e+00 
4.276300e+00 9.476155e+00 
4.310970e+00 9.356931e+00 
4.346120e+00 9.238107e+00 
4.380600e+00 9.123224e+00 
4.414730e+00 9.011713e+00 
4.450350e+00 8.896710e+00 
4.485320e+00 8.786054e+00 
4.519810e+00 8.678439e+00 
4.555430e+00 8.569194e+00 
4.590870e+00 8.462346e+00 
4.625480e+00 8.359405e+00 
4.659910e+00 8.258930e+00 
4.695230e+00 8.157161e+00 
4.729960e+00 8.058883e+00 
4.764450e+00 7.962852e+00 
4.799530e+00 7.866583e+00 
4.834910e+00 7.771299e+00 
4.869700e+00 7.678695e+00 
4.904370e+00 7.587981e+00 
4.939450e+00 7.497703e+00 
4.973940e+00 7.410136e+00 
5.008430e+00 7.324121e+00 
5.043810e+00 7.237094e+00 
5.078840e+00 7.152255e+00 
5.113500e+00 7.069788e+00 
5.148890e+00 6.986535e+00 
5.184210e+00 6.904888e+00 
5.219060e+00 6.825628e+00 
5.253660e+00 6.747996e+00 
5.288570e+00 6.671002e+00 
5.323420e+00 6.595210e+00 
5.358440e+00 6.520073e+00 
5.393590e+00 6.445933e+00 
5.428310e+00 6.373720e+00 
5.462800e+00 6.303060e+00 
5.497640e+00 6.232857e+00 
5.532670e+00 6.163168e+00 
5.567280e+00 6.095355e+00 
5.602000e+00 6.028427e+00 
5.637270e+00 5.961281e+00 
5.672410e+00 5.895410e+00 
5.707020e+00 5.831572e+00 
5.742040e+00 5.767791e+00 
5.777430e+00 5.704324e+00 
5.812210e+00 5.642941e+00 
5.846820e+00 5.582633e+00 
5.881610e+00 5.522909e+00 
5.916510e+00 5.463925e+00 
5.951600e+00 5.405398e+00 
5.986560e+00 5.347926e+00 
6.021830e+00 5.290837e+00 
6.056490e+00 5.235485e+00 
6.091160e+00 5.180860e+00 
6.125830e+00 5.127055e+00 
6.161090e+00 5.073112e+00 
6.195760e+00 5.020769e+00 
6.230420e+00 4.969214e+00 
6.265690e+00 4.917526e+00 
6.300950e+00 4.866514e+00 
6.335620e+00 4.817092e+00 
6.370880e+00 4.767563e+00 
6.405550e+00 4.719486e+00 
6.440220e+00 4.672065e+00 
6.475480e+00 4.624532e+00 
6.510150e+00 4.578442e+00 
6.544810e+00 4.532968e+00 
6.580080e+00 4.487351e+00 
6.614750e+00 4.443145e+00 
6.649410e+00 4.399501e+00 
6.684080e+00 4.356438e+00 
6.719340e+00 4.313253e+00 
6.754010e+00 4.271370e+00 
6.788680e+00 4.230038e+00 
6.823940e+00 4.188582e+00 
6.859800e+00 4.147007e+00 
6.894470e+00 4.107350e+00 
6.929140e+00 4.068222e+00 
6.963800e+00 4.029628e+00 
6.999070e+00 3.990882e+00 
7.033730e+00 3.953292e+00 
7.068400e+00 3.916188e+00 
7.103660e+00 3.878953e+00 
7.138330e+00 3.842822e+00 
7.173600e+00 3.806542e+00 
7.208260e+00 3.771357e+00 
7.243530e+00 3.736020e+00 
7.277600e+00 3.702333e+00 
7.312860e+00 3.667923e+00 
7.348120e+00 3.633959e+00 
7.382790e+00 3.600992e+00 
7.417460e+00 3.568436e+00 
7.452720e+00 3.535743e+00 
7.487390e+00 3.504005e+00 
7.522650e+00 3.472132e+00 
7.557320e+00 3.441213e+00 
7.591990e+00 3.410687e+00 
7.627250e+00 3.380027e+00 
7.662510e+00 3.349750e+00 
7.697180e+00 3.320382e+00 
7.731850e+00 3.291385e+00 
7.766510e+00 3.262748e+00 
7.801180e+00 3.234448e+00 
7.836440e+00 3.206030e+00 
7.871110e+00 3.178433e+00 
7.906380e+00 3.150696e+00 
7.941040e+00 3.123766e+00 
7.976310e+00 3.096709e+00 
8.011570e+00 3.070009e+00 
8.046240e+00 3.044066e+00 
8.080900e+00 3.018434e+00 
8.115570e+00 2.993105e+00 
8.150830e+00 2.967692e+00 
8.185500e+00 2.942995e+00 
8.220770e+00 2.918162e+00 
8.255430e+00 2.894041e+00 
8.290100e+00 2.870233e+00 
8.324770e+00 2.846700e+00 
8.359430e+00 2.823441e+00 
8.394700e+00 2.800042e+00 
8.429960e+00 2.776941e+00 
8.464630e+00 2.754509e+00 
8.499890e+00 2.731951e+00 
8.534560e+00 2.710019e+00 
8.569200e+00 2.688349e+00 
