# Parameters:
# omega_b = 0.021878, omega_m = 0.132402, n_s = 0.883071, h = 85.000000, w = -1.000000, sigma_8 = 0.821260
# z = 1.900000
#
# k[1/Mpc] # P(k):
8.694000e-04 4.973845e+03 
2.077466e-03 9.796403e+03 
3.285532e-03 1.326626e+04 
4.493598e-03 1.574707e+04 
5.701664e-03 1.744679e+04 
6.909730e-03 1.853136e+04 
8.117797e-03 1.915913e+04 
9.325863e-03 1.941165e+04 
1.053393e-02 1.936369e+04 
1.174199e-02 1.908054e+04 
1.295006e-02 1.860439e+04 
1.415813e-02 1.798867e+04 
1.536619e-02 1.727610e+04 
1.657426e-02 1.649512e+04 
1.778233e-02 1.567241e+04 
1.899039e-02 1.484579e+04 
2.019846e-02 1.403481e+04 
2.140652e-02 1.325536e+04 
2.261459e-02 1.251593e+04 
2.382266e-02 1.182635e+04 
2.503072e-02 1.119263e+04 
2.623879e-02 1.061561e+04 
2.744685e-02 1.009516e+04 
2.865492e-02 9.629434e+03 
2.986299e-02 9.214225e+03 
3.100100e-02 8.867499e+03 
3.220400e-02 8.542610e+03 
3.288100e-02 8.377893e+03 
3.424300e-02 8.079259e+03 
3.555100e-02 7.827048e+03 
3.686000e-02 7.602859e+03 
3.795000e-02 7.432925e+03 
3.929100e-02 7.240084e+03 
4.039800e-02 7.089221e+03 
4.164000e-02 6.925794e+03 
4.294400e-02 6.753754e+03 
4.415000e-02 6.594848e+03 
4.542900e-02 6.419258e+03 
4.660900e-02 6.254300e+03 
4.782300e-02 6.073970e+03 
4.892900e-02 5.905995e+03 
5.031200e-02 5.688907e+03 
5.155900e-02 5.487147e+03 
5.238100e-02 5.352439e+03 
5.378200e-02 5.121412e+03 
5.513400e-02 4.897464e+03 
5.627600e-02 4.708880e+03 
5.735300e-02 4.532536e+03 
5.870100e-02 4.314495e+03 
5.988700e-02 4.126925e+03 
6.113500e-02 3.935507e+03 
6.225900e-02 3.770984e+03 
6.340100e-02 3.614336e+03 
6.480200e-02 3.438566e+03 
6.601100e-02 3.305008e+03 
6.725500e-02 3.185016e+03 
6.829100e-02 3.099383e+03 
6.958600e-02 3.006007e+03 
7.071100e-02 2.937473e+03 
7.192300e-02 2.873931e+03 
7.307400e-02 2.821922e+03 
7.412300e-02 2.780268e+03 
7.550400e-02 2.732653e+03 
7.663100e-02 2.697752e+03 
7.791200e-02 2.661723e+03 
7.912700e-02 2.629111e+03 
8.027600e-02 2.598534e+03 
8.138400e-02 2.568684e+03 
8.272200e-02 2.531224e+03 
8.406100e-02 2.491404e+03 
8.534100e-02 2.449562e+03 
8.653800e-02 2.406869e+03 
8.759800e-02 2.366998e+03 
8.900300e-02 2.310766e+03 
9.009000e-02 2.264430e+03 
9.113300e-02 2.217579e+03 
9.239600e-02 2.159616e+03 
9.358000e-02 2.103643e+03 
9.496100e-02 2.036641e+03 
9.608400e-02 1.982353e+03 
9.727500e-02 1.925463e+03 
9.852600e-02 1.866070e+03 
9.973800e-02 1.810593e+03 
1.009000e-01 1.759262e+03 
1.020900e-01 1.709743e+03 
1.034000e-01 1.658352e+03 
1.046000e-01 1.614209e+03 
1.057200e-01 1.577262e+03 
1.069100e-01 1.540400e+03 
1.082500e-01 1.503899e+03 
1.093900e-01 1.476316e+03 
1.105400e-01 1.450700e+03 
1.116900e-01 1.429191e+03 
1.129600e-01 1.407204e+03 
1.142000e-01 1.389122e+03 
1.153300e-01 1.373918e+03 
1.166400e-01 1.358078e+03 
1.177800e-01 1.345263e+03 
1.190000e-01 1.332178e+03 
1.201200e-01 1.320080e+03 
1.213400e-01 1.307151e+03 
1.227100e-01 1.291231e+03 
1.238900e-01 1.277328e+03 
1.250700e-01 1.261938e+03 
1.263200e-01 1.245174e+03 
1.275500e-01 1.227197e+03 
1.287500e-01 1.209065e+03 
1.299900e-01 1.189185e+03 
1.311300e-01 1.170489e+03 
1.323500e-01 1.149676e+03 
1.335900e-01 1.128408e+03 
1.347100e-01 1.108820e+03 
1.359800e-01 1.086841e+03 
1.372100e-01 1.065477e+03 
1.384300e-01 1.044755e+03 
1.395700e-01 1.025694e+03 
1.407700e-01 1.006139e+03 
1.420300e-01 9.863815e+02 
1.432800e-01 9.672768e+02 
1.444500e-01 9.505260e+02 
1.456300e-01 9.340190e+02 
1.468900e-01 9.176086e+02 
1.480500e-01 9.030803e+02 
1.491700e-01 8.898329e+02 
1.503800e-01 8.764382e+02 
1.516400e-01 8.630103e+02 
1.528200e-01 8.516487e+02 
1.540200e-01 8.403251e+02 
1.551900e-01 8.302822e+02 
1.564300e-01 8.200349e+02 
1.576600e-01 8.103833e+02 
1.588700e-01 8.014469e+02 
1.600900e-01 7.926220e+02 
1.612700e-01 7.845347e+02 
1.625400e-01 7.759923e+02 
1.637600e-01 7.678741e+02 
1.649500e-01 7.600597e+02 
1.662200e-01 7.518043e+02 
1.674000e-01 7.438942e+02 
1.685000e-01 7.366448e+02 
1.697500e-01 7.282113e+02 
1.710300e-01 7.193997e+02 
1.722200e-01 7.113570e+02 
1.734400e-01 7.025461e+02 
1.746400e-01 6.940068e+02 
1.758700e-01 6.852162e+02 
1.770900e-01 6.762581e+02 
1.782700e-01 6.677503e+02 
1.794600e-01 6.590895e+02 
1.807000e-01 6.500733e+02 
1.819100e-01 6.414379e+02 
1.830100e-01 6.336373e+02 
1.842200e-01 6.251905e+02 
1.855000e-01 6.164262e+02 
1.867000e-01 6.084779e+02 
1.879200e-01 6.005404e+02 
1.890900e-01 5.931057e+02 
1.902800e-01 5.859055e+02 
1.915200e-01 5.785319e+02 
1.926900e-01 5.717750e+02 
1.939000e-01 5.651708e+02 
1.951700e-01 5.583561e+02 
1.963100e-01 5.524260e+02 
1.975100e-01 5.465140e+02 
1.987800e-01 5.403585e+02 
2.000100e-01 5.345678e+02 
2.012500e-01 5.289935e+02 
2.023400e-01 5.241662e+02 
2.036100e-01 5.186517e+02 
2.048900e-01 5.132835e+02 
2.060400e-01 5.085333e+02 
2.072200e-01 5.037304e+02 
2.084200e-01 4.989306e+02 
2.096900e-01 4.939274e+02 
2.109200e-01 4.891553e+02 
2.121100e-01 4.845419e+02 
2.132700e-01 4.801053e+02 
2.145200e-01 4.753935e+02 
2.157200e-01 4.708633e+02 
2.168800e-01 4.665120e+02 
2.180700e-01 4.621106e+02 
2.193400e-01 4.574426e+02 
2.206000e-01 4.528082e+02 
2.217500e-01 4.486385e+02 
2.229500e-01 4.443477e+02 
2.241400e-01 4.400677e+02 
2.253500e-01 4.357747e+02 
2.264900e-01 4.317856e+02 
2.277100e-01 4.275554e+02 
2.289900e-01 4.231598e+02 
2.301500e-01 4.192323e+02 
2.313600e-01 4.151912e+02 
2.325600e-01 4.112361e+02 
2.337700e-01 4.073026e+02 
2.350000e-01 4.033593e+02 
2.362000e-01 3.995797e+02 
2.374100e-01 3.958374e+02 
2.386500e-01 3.920545e+02 
2.399100e-01 3.882637e+02 
2.410400e-01 3.849555e+02 
2.422500e-01 3.814642e+02 
2.435000e-01 3.779055e+02 
2.447300e-01 3.744618e+02 
2.458700e-01 3.713554e+02 
2.470600e-01 3.681528e+02 
2.483300e-01 3.647795e+02 
2.495600e-01 3.615786e+02 
2.507600e-01 3.585274e+02 
2.519600e-01 3.555140e+02 
2.532200e-01 3.523902e+02 
2.543700e-01 3.495996e+02 
2.555500e-01 3.467873e+02 
2.568000e-01 3.438448e+02 
2.580100e-01 3.410319e+02 
2.592400e-01 3.382241e+02 
2.604100e-01 3.355925e+02 
2.616100e-01 3.329251e+02 
2.628400e-01 3.302239e+02 
2.640600e-01 3.275874e+02 
2.652200e-01 3.251139e+02 
2.664300e-01 3.225635e+02 
2.676500e-01 3.200223e+02 
2.688400e-01 3.175731e+02 
2.700700e-01 3.150714e+02 
2.712400e-01 3.127191e+02 
2.724800e-01 3.102546e+02 
2.736700e-01 3.079138e+02 
2.748800e-01 3.055577e+02 
2.761000e-01 3.032093e+02 
2.773200e-01 3.008877e+02 
2.785400e-01 2.985899e+02 
2.797000e-01 2.964237e+02 
2.808900e-01 2.942257e+02 
2.821400e-01 2.919429e+02 
2.833900e-01 2.896858e+02 
2.845500e-01 2.876035e+02 
2.857800e-01 2.854196e+02 
2.870300e-01 2.832253e+02 
2.882100e-01 2.811766e+02 
2.893900e-01 2.791451e+02 
2.906300e-01 2.770310e+02 
2.918900e-01 2.749069e+02 
2.930500e-01 2.729726e+02 
2.942500e-01 2.709911e+02 
2.954200e-01 2.690749e+02 
2.966500e-01 2.670818e+02 
2.978900e-01 2.650944e+02 
2.990400e-01 2.632706e+02 
3.002700e-01 2.613393e+02 
3.015100e-01 2.594128e+02 
3.026800e-01 2.576140e+02 
3.038500e-01 2.558335e+02 
3.050300e-01 2.540559e+02 
3.062600e-01 2.522221e+02 
3.075000e-01 2.503929e+02 
3.087000e-01 2.486411e+02 
3.099100e-01 2.468928e+02 
3.111200e-01 2.451639e+02 
3.123100e-01 2.434832e+02 
3.135300e-01 2.417775e+02 
3.147300e-01 2.401168e+02 
3.159900e-01 2.383909e+02 
3.171800e-01 2.367818e+02 
3.183700e-01 2.351912e+02 
3.196300e-01 2.335240e+02 
3.208400e-01 2.319392e+02 
3.220300e-01 2.303959e+02 
3.232000e-01 2.288985e+02 
3.244300e-01 2.273418e+02 
3.256700e-01 2.257881e+02 
3.269200e-01 2.242376e+02 
3.280800e-01 2.228126e+02 
3.292500e-01 2.213957e+02 
3.304800e-01 2.199227e+02 
3.317100e-01 2.184639e+02 
3.328900e-01 2.170778e+02 
3.340700e-01 2.157045e+02 
3.353600e-01 2.142244e+02 
3.365300e-01 2.128973e+02 
3.377100e-01 2.115710e+02 
3.389200e-01 2.102237e+02 
3.401600e-01 2.088560e+02 
3.413700e-01 2.075400e+02 
3.425300e-01 2.062940e+02 
3.437700e-01 2.049743e+02 
3.449800e-01 2.036985e+02 
3.461800e-01 2.024447e+02 
3.473600e-01 2.012253e+02 
3.485800e-01 1.999815e+02 
3.498100e-01 1.987389e+02 
3.510200e-01 1.975277e+02 
3.522000e-01 1.963570e+02 
3.533900e-01 1.951868e+02 
3.546400e-01 1.939767e+02 
3.558400e-01 1.928260e+02 
3.570600e-01 1.916664e+02 
3.582700e-01 1.905265e+02 
3.595000e-01 1.893781e+02 
3.607100e-01 1.882623e+02 
3.618900e-01 1.871866e+02 
3.631200e-01 1.860751e+02 
3.643200e-01 1.850001e+02 
3.655500e-01 1.839078e+02 
3.667300e-01 1.828689e+02 
3.679500e-01 1.818104e+02 
3.691900e-01 1.807439e+02 
3.703600e-01 1.797461e+02 
3.715700e-01 1.787228e+02 
3.727700e-01 1.777165e+02 
3.739900e-01 1.767038e+02 
3.752000e-01 1.757109e+02 
3.763900e-01 1.747424e+02 
3.775800e-01 1.737820e+02 
3.788200e-01 1.727895e+02 
3.800300e-01 1.718292e+02 
3.812100e-01 1.709031e+02 
3.824200e-01 1.699631e+02 
3.836100e-01 1.690461e+02 
3.848600e-01 1.680908e+02 
3.860400e-01 1.671965e+02 
3.872400e-01 1.662942e+02 
3.884600e-01 1.653874e+02 
3.896500e-01 1.645111e+02 
3.908700e-01 1.636199e+02 
3.920600e-01 1.627575e+02 
3.933100e-01 1.618590e+02 
3.945300e-01 1.609892e+02 
3.957200e-01 1.601503e+02 
3.969300e-01 1.593047e+02 
3.981700e-01 1.584451e+02 
3.993500e-01 1.576335e+02 
4.094840e-01 1.509304e+02 
4.272360e-01 1.402560e+02 
4.454600e-01 1.305204e+02 
4.630560e-01 1.221339e+02 
4.804610e-01 1.146908e+02 
4.980690e-01 1.079146e+02 
5.159230e-01 1.017176e+02 
5.317440e-01 9.672171e+01 
5.489640e-01 9.175507e+01 
5.671990e-01 8.696946e+01 
5.838690e-01 8.296139e+01 
6.018840e-01 7.898524e+01 
6.202330e-01 7.527418e+01 
6.379250e-01 7.197336e+01 
6.545410e-01 6.910672e+01 
6.714560e-01 6.638863e+01 
6.892080e-01 6.373518e+01 
7.066010e-01 6.131635e+01 
7.240540e-01 5.904864e+01 
7.420450e-01 5.686703e+01 
7.593780e-01 5.490059e+01 
7.764720e-01 5.307847e+01 
7.942840e-01 5.129445e+01 
8.116170e-01 4.966260e+01 
8.288310e-01 4.813490e+01 
8.462240e-01 4.667704e+01 
8.631980e-01 4.533215e+01 
8.810700e-01 4.399262e+01 
8.989410e-01 4.272541e+01 
9.166330e-01 4.153671e+01 
9.345640e-01 4.039483e+01 
9.515980e-01 3.936351e+01 
9.688720e-01 3.836784e+01 
9.865640e-01 3.739746e+01 
1.031870e+00 3.511089e+01 
1.063490e+00 3.366774e+01 
1.097920e+00 3.222127e+01 
1.134370e+00 3.081264e+01 
1.167730e+00 2.962294e+01 
1.203830e+00 2.843124e+01 
1.240470e+00 2.731075e+01 
1.275790e+00 2.630762e+01 
1.309140e+00 2.542239e+01 
1.342970e+00 2.458005e+01 
1.378420e+00 2.375173e+01 
1.413200e+00 2.298864e+01 
1.448110e+00 2.226727e+01 
1.484090e+00 2.156602e+01 
1.518820e+00 2.092734e+01 
1.552880e+00 2.033370e+01 
1.588630e+00 1.974288e+01 
1.623230e+00 1.919991e+01 
1.657720e+00 1.868551e+01 
1.692450e+00 1.819187e+01 
1.726400e+00 1.773177e+01 
1.762200e+00 1.726829e+01 
1.797880e+00 1.682747e+01 
1.833270e+00 1.640967e+01 
1.869070e+00 1.600538e+01 
1.903200e+00 1.563587e+01 
1.937740e+00 1.527707e+01 
1.973190e+00 1.492330e+01 
2.007440e+00 1.459489e+01 
2.042160e+00 1.427443e+01 
2.077900e+00 1.395703e+01 
2.112390e+00 1.366232e+01 
2.146220e+00 1.338315e+01 
2.181600e+00 1.310148e+01 
2.216930e+00 1.282993e+01 
2.250760e+00 1.257873e+01 
2.286500e+00 1.232236e+01 
2.321770e+00 1.207789e+01 
2.355950e+00 1.184835e+01 
2.391280e+00 1.161866e+01 
2.426240e+00 1.139838e+01 
2.460670e+00 1.118816e+01 
2.495640e+00 1.098131e+01 
2.531080e+00 1.077765e+01 
2.566220e+00 1.058164e+01 
2.600830e+00 1.039423e+01 
2.635080e+00 1.021410e+01 
2.670340e+00 1.003366e+01 
2.705970e+00 9.856404e+00 
2.740040e+00 9.691589e+00 
2.774520e+00 9.529120e+00 
2.809730e+00 9.367475e+00 
2.844390e+00 9.212664e+00 
2.879960e+00 9.057923e+00 
2.914860e+00 8.909807e+00 
2.949410e+00 8.766975e+00 
2.984440e+00 8.625578e+00 
3.019760e+00 8.486582e+00 
3.054730e+00 8.352521e+00 
3.089030e+00 8.223705e+00 
3.124060e+00 8.095419e+00 
3.159560e+00 7.968508e+00 
3.194710e+00 7.845644e+00 
3.229010e+00 7.728683e+00 
3.263320e+00 7.613858e+00 
3.297930e+00 7.500795e+00 
3.332830e+00 7.389259e+00 
3.368040e+00 7.279156e+00 
3.403300e+00 7.171376e+00 
3.438450e+00 7.066088e+00 
3.473060e+00 6.964864e+00 
3.508440e+00 6.863146e+00 
3.543110e+00 6.765802e+00 
3.577470e+00 6.671059e+00 
3.613040e+00 6.575154e+00 
3.648120e+00 6.482324e+00 
3.682910e+00 6.392228e+00 
3.718050e+00 6.302964e+00 
3.753320e+00 6.215180e+00 
3.787980e+00 6.130483e+00 
3.822290e+00 6.048307e+00 
3.857020e+00 5.966642e+00 
3.891920e+00 5.886212e+00 
3.926650e+00 5.807588e+00 
3.961970e+00 5.729215e+00 
3.997360e+00 5.651985e+00 
4.031670e+00 5.578642e+00 
4.066330e+00 5.505727e+00 
4.101420e+00 5.433462e+00 
4.136200e+00 5.362810e+00 
4.170810e+00 5.293973e+00 
4.206250e+00 5.224556e+00 
4.241580e+00 5.156734e+00 
4.276300e+00 5.091175e+00 
4.310970e+00 5.026882e+00 
4.346120e+00 4.962848e+00 
4.380600e+00 4.901007e+00 
4.414730e+00 4.840985e+00 
4.450350e+00 4.779170e+00 
4.485320e+00 4.719691e+00 
4.519810e+00 4.661909e+00 
4.555430e+00 4.603279e+00 
4.590870e+00 4.545963e+00 
4.625480e+00 4.490798e+00 
4.659910e+00 4.436954e+00 
4.695230e+00 4.382461e+00 
4.729960e+00 4.329844e+00 
4.764450e+00 4.278451e+00 
4.799530e+00 4.226968e+00 
4.834910e+00 4.176012e+00 
4.869700e+00 4.126533e+00 
4.904370e+00 4.078070e+00 
4.939450e+00 4.029848e+00 
4.973940e+00 3.983100e+00 
5.008430e+00 3.937178e+00 
5.043810e+00 3.890741e+00 
5.078840e+00 3.845486e+00 
5.113500e+00 3.801493e+00 
5.148890e+00 3.757115e+00 
5.184210e+00 3.713593e+00 
5.219060e+00 3.671345e+00 
5.253660e+00 3.629972e+00 
5.288570e+00 3.588938e+00 
5.323420e+00 3.548561e+00 
5.358440e+00 3.508553e+00 
5.393590e+00 3.469074e+00 
5.428310e+00 3.430621e+00 
5.462800e+00 3.392994e+00 
5.497640e+00 3.355608e+00 
5.532670e+00 3.318510e+00 
5.567280e+00 3.282414e+00 
5.602000e+00 3.246786e+00 
5.637270e+00 3.211052e+00 
5.672410e+00 3.175997e+00 
5.707020e+00 3.142022e+00 
5.742040e+00 3.108081e+00 
5.777430e+00 3.074306e+00 
5.812210e+00 3.041638e+00 
5.846820e+00 3.009551e+00 
5.881610e+00 2.977774e+00 
5.916510e+00 2.946389e+00 
5.951600e+00 2.915252e+00 
5.986560e+00 2.884675e+00 
6.021830e+00 2.854300e+00 
6.056490e+00 2.824854e+00 
6.091160e+00 2.795798e+00 
6.125830e+00 2.767175e+00 
6.161090e+00 2.738478e+00 
6.195760e+00 2.710631e+00 
6.230420e+00 2.683201e+00 
6.265690e+00 2.655698e+00 
6.300950e+00 2.628561e+00 
6.335620e+00 2.602267e+00 
6.370880e+00 2.575913e+00 
6.405550e+00 2.550339e+00 
6.440220e+00 2.525115e+00 
6.475480e+00 2.499829e+00 
6.510150e+00 2.475311e+00 
6.544810e+00 2.451124e+00 
6.580080e+00 2.426858e+00 
6.614750e+00 2.403340e+00 
6.649410e+00 2.380126e+00 
6.684080e+00 2.357219e+00 
6.719340e+00 2.334245e+00 
6.754010e+00 2.311963e+00 
6.788680e+00 2.289973e+00 
6.823940e+00 2.267914e+00 
6.859800e+00 2.245791e+00 
6.894470e+00 2.224696e+00 
6.929140e+00 2.203884e+00 
6.963800e+00 2.183355e+00 
6.999070e+00 2.162743e+00 
7.033730e+00 2.142751e+00 
7.068400e+00 2.123015e+00 
7.103660e+00 2.103208e+00 
7.138330e+00 2.083988e+00 
7.173600e+00 2.064691e+00 
7.208260e+00 2.045973e+00 
7.243530e+00 2.027173e+00 
7.277600e+00 2.009256e+00 
7.312860e+00 1.990960e+00 
7.348120e+00 1.972899e+00 
7.382790e+00 1.955367e+00 
7.417460e+00 1.938057e+00 
7.452720e+00 1.920677e+00 
7.487390e+00 1.903801e+00 
7.522650e+00 1.886853e+00 
7.557320e+00 1.870418e+00 
7.591990e+00 1.854194e+00 
7.627250e+00 1.837896e+00 
7.662510e+00 1.821801e+00 
7.697180e+00 1.806192e+00 
7.731850e+00 1.790781e+00 
7.766510e+00 1.775560e+00 
7.801180e+00 1.760516e+00 
7.836440e+00 1.745415e+00 
7.871110e+00 1.730755e+00 
7.906380e+00 1.716018e+00 
7.941040e+00 1.701708e+00 
7.976310e+00 1.687333e+00 
8.011570e+00 1.673152e+00 
8.046240e+00 1.659371e+00 
8.080900e+00 1.645753e+00 
8.115570e+00 1.632297e+00 
8.150830e+00 1.618807e+00 
8.185500e+00 1.605694e+00 
8.220770e+00 1.592508e+00 
8.255430e+00 1.579698e+00 
8.290100e+00 1.567064e+00 
8.324770e+00 1.554576e+00 
8.359430e+00 1.542231e+00 
8.394700e+00 1.529811e+00 
8.429960e+00 1.517552e+00 
8.464630e+00 1.505653e+00 
8.499890e+00 1.493685e+00 
8.534560e+00 1.482047e+00 
8.569200e+00 1.470547e+00 
