# Parameters:
# omega_b = 0.023264, omega_m = 0.148937, n_s = 0.870472, h = 68.700787, w = -1.000000, sigma_8 = 0.796063
# z = 1.900000
#
# k[1/Mpc] # P(k):
8.694000e-04 3.799342e+03 
2.077466e-03 7.513251e+03 
3.285532e-03 1.023932e+04 
4.493598e-03 1.226158e+04 
5.701664e-03 1.371149e+04 
6.909730e-03 1.470191e+04 
8.117797e-03 1.534469e+04 
9.325863e-03 1.569672e+04 
1.053393e-02 1.581058e+04 
1.174199e-02 1.573280e+04 
1.295006e-02 1.549327e+04 
1.415813e-02 1.513072e+04 
1.536619e-02 1.467721e+04 
1.657426e-02 1.415431e+04 
1.778233e-02 1.358181e+04 
1.899039e-02 1.298917e+04 
2.019846e-02 1.239169e+04 
2.140652e-02 1.180306e+04 
2.261459e-02 1.123041e+04 
2.382266e-02 1.068317e+04 
2.503072e-02 1.016822e+04 
2.623879e-02 9.688207e+03 
2.744685e-02 9.243717e+03 
2.865492e-02 8.836797e+03 
2.986299e-02 8.466081e+03 
3.100100e-02 8.149460e+03 
3.220400e-02 7.847059e+03 
3.288100e-02 7.691272e+03 
3.424300e-02 7.405759e+03 
3.555100e-02 7.162489e+03 
3.686000e-02 6.945871e+03 
3.795000e-02 6.782600e+03 
3.929100e-02 6.600507e+03 
4.039800e-02 6.461591e+03 
4.164000e-02 6.314996e+03 
4.294400e-02 6.167269e+03 
4.415000e-02 6.034595e+03 
4.542900e-02 5.892999e+03 
4.660900e-02 5.762396e+03 
4.782300e-02 5.622141e+03 
4.892900e-02 5.492165e+03 
5.031200e-02 5.324168e+03 
5.155900e-02 5.166883e+03 
5.238100e-02 5.060954e+03 
5.378200e-02 4.877383e+03 
5.513400e-02 4.696680e+03 
5.627600e-02 4.542487e+03 
5.735300e-02 4.397154e+03 
5.870100e-02 4.216554e+03 
5.988700e-02 4.060834e+03 
6.113500e-02 3.901463e+03 
6.225900e-02 3.763373e+03 
6.340100e-02 3.629983e+03 
6.480200e-02 3.477007e+03 
6.601100e-02 3.355943e+03 
6.725500e-02 3.242131e+03 
6.829100e-02 3.156225e+03 
6.958600e-02 3.058128e+03 
7.071100e-02 2.981729e+03 
7.192300e-02 2.907326e+03 
7.307400e-02 2.843612e+03 
7.412300e-02 2.790798e+03 
7.550400e-02 2.728556e+03 
7.663100e-02 2.682369e+03 
7.791200e-02 2.635085e+03 
7.912700e-02 2.593956e+03 
8.027600e-02 2.557308e+03 
8.138400e-02 2.523443e+03 
8.272200e-02 2.483809e+03 
8.406100e-02 2.444666e+03 
8.534100e-02 2.406601e+03 
8.653800e-02 2.369765e+03 
8.759800e-02 2.336305e+03 
8.900300e-02 2.290260e+03 
9.009000e-02 2.252926e+03 
9.113300e-02 2.215348e+03 
9.239600e-02 2.168804e+03 
9.358000e-02 2.123607e+03 
9.496100e-02 2.068752e+03 
9.608400e-02 2.023675e+03 
9.727500e-02 1.975871e+03 
9.852600e-02 1.924455e+03 
9.973800e-02 1.875535e+03 
1.009000e-01 1.829521e+03 
1.020900e-01 1.783209e+03 
1.034000e-01 1.734080e+03 
1.046000e-01 1.690768e+03 
1.057200e-01 1.652549e+03 
1.069100e-01 1.613647e+03 
1.082500e-01 1.572856e+03 
1.093900e-01 1.540566e+03 
1.105400e-01 1.509676e+03 
1.116900e-01 1.481715e+03 
1.129600e-01 1.452467e+03 
1.142000e-01 1.426778e+03 
1.153300e-01 1.404825e+03 
1.166400e-01 1.381349e+03 
1.177800e-01 1.362579e+03 
1.190000e-01 1.343512e+03 
1.201200e-01 1.327352e+03 
1.213400e-01 1.310329e+03 
1.227100e-01 1.292378e+03 
1.238900e-01 1.277318e+03 
1.250700e-01 1.262587e+03 
1.263200e-01 1.247173e+03 
1.275500e-01 1.231974e+03 
1.287500e-01 1.217096e+03 
1.299900e-01 1.201453e+03 
1.311300e-01 1.186851e+03 
1.323500e-01 1.170753e+03 
1.335900e-01 1.154115e+03 
1.347100e-01 1.138560e+03 
1.359800e-01 1.120771e+03 
1.372100e-01 1.102857e+03 
1.384300e-01 1.085113e+03 
1.395700e-01 1.067981e+03 
1.407700e-01 1.050259e+03 
1.420300e-01 1.031130e+03 
1.432800e-01 1.012616e+03 
1.444500e-01 9.952070e+02 
1.456300e-01 9.780498e+02 
1.468900e-01 9.602489e+02 
1.480500e-01 9.442657e+02 
1.491700e-01 9.294037e+02 
1.503800e-01 9.139972e+02 
1.516400e-01 8.984935e+02 
1.528200e-01 8.850609e+02 
1.540200e-01 8.716864e+02 
1.551900e-01 8.597522e+02 
1.564300e-01 8.475633e+02 
1.576600e-01 8.361635e+02 
1.588700e-01 8.257034e+02 
1.600900e-01 8.153987e+02 
1.612700e-01 8.063176e+02 
1.625400e-01 7.967283e+02 
1.637600e-01 7.879194e+02 
1.649500e-01 7.796163e+02 
1.662200e-01 7.709181e+02 
1.674000e-01 7.629844e+02 
1.685000e-01 7.557128e+02 
1.697500e-01 7.474366e+02 
1.710300e-01 7.389633e+02 
1.722200e-01 7.312272e+02 
1.734400e-01 7.229540e+02 
1.746400e-01 7.149397e+02 
1.758700e-01 7.066990e+02 
1.770900e-01 6.983237e+02 
1.782700e-01 6.903643e+02 
1.794600e-01 6.822109e+02 
1.807000e-01 6.736875e+02 
1.819100e-01 6.655182e+02 
1.830100e-01 6.580023e+02 
1.842200e-01 6.498368e+02 
1.855000e-01 6.413503e+02 
1.867000e-01 6.334438e+02 
1.879200e-01 6.255451e+02 
1.890900e-01 6.181089e+02 
1.902800e-01 6.107214e+02 
1.915200e-01 6.031549e+02 
1.926900e-01 5.961754e+02 
1.939000e-01 5.892046e+02 
1.951700e-01 5.820123e+02 
1.963100e-01 5.757185e+02 
1.975100e-01 5.693481e+02 
1.987800e-01 5.627168e+02 
2.000100e-01 5.564624e+02 
2.012500e-01 5.504028e+02 
2.023400e-01 5.451565e+02 
2.036100e-01 5.391693e+02 
2.048900e-01 5.333606e+02 
2.060400e-01 5.282216e+02 
2.072200e-01 5.230325e+02 
2.084200e-01 5.179202e+02 
2.096900e-01 5.125919e+02 
2.109200e-01 5.075103e+02 
2.121100e-01 5.026953e+02 
2.132700e-01 4.980699e+02 
2.145200e-01 4.931576e+02 
2.157200e-01 4.884975e+02 
2.168800e-01 4.840498e+02 
2.180700e-01 4.795505e+02 
2.193400e-01 4.748014e+02 
2.206000e-01 4.701282e+02 
2.217500e-01 4.659230e+02 
2.229500e-01 4.615950e+02 
2.241400e-01 4.573024e+02 
2.253500e-01 4.529967e+02 
2.264900e-01 4.489950e+02 
2.277100e-01 4.447448e+02 
2.289900e-01 4.403211e+02 
2.301500e-01 4.363678e+02 
2.313600e-01 4.322990e+02 
2.325600e-01 4.282778e+02 
2.337700e-01 4.242781e+02 
2.350000e-01 4.202678e+02 
2.362000e-01 4.163992e+02 
2.374100e-01 4.125396e+02 
2.386500e-01 4.086380e+02 
2.399100e-01 4.047281e+02 
2.410400e-01 4.012686e+02 
2.422500e-01 3.976117e+02 
2.435000e-01 3.938844e+02 
2.447300e-01 3.902685e+02 
2.458700e-01 3.869704e+02 
2.470600e-01 3.835705e+02 
2.483300e-01 3.799896e+02 
2.495600e-01 3.765787e+02 
2.507600e-01 3.733091e+02 
2.519600e-01 3.700807e+02 
2.532200e-01 3.667342e+02 
2.543700e-01 3.637373e+02 
2.555500e-01 3.607122e+02 
2.568000e-01 3.575475e+02 
2.580100e-01 3.545226e+02 
2.592400e-01 3.515059e+02 
2.604100e-01 3.486799e+02 
2.616100e-01 3.458160e+02 
2.628400e-01 3.429161e+02 
2.640600e-01 3.400973e+02 
2.652200e-01 3.374574e+02 
2.664300e-01 3.347358e+02 
2.676500e-01 3.320244e+02 
2.688400e-01 3.294246e+02 
2.700700e-01 3.267776e+02 
2.712400e-01 3.242888e+02 
2.724800e-01 3.216817e+02 
2.736700e-01 3.192168e+02 
2.748800e-01 3.167475e+02 
2.761000e-01 3.142863e+02 
2.773200e-01 3.118534e+02 
2.785400e-01 3.094516e+02 
2.797000e-01 3.072002e+02 
2.808900e-01 3.049157e+02 
2.821400e-01 3.025431e+02 
2.833900e-01 3.001980e+02 
2.845500e-01 2.980480e+02 
2.857800e-01 2.957933e+02 
2.870300e-01 2.935276e+02 
2.882100e-01 2.914124e+02 
2.893900e-01 2.893207e+02 
2.906300e-01 2.871470e+02 
2.918900e-01 2.849629e+02 
2.930500e-01 2.829738e+02 
2.942500e-01 2.809371e+02 
2.954200e-01 2.789702e+02 
2.966500e-01 2.769243e+02 
2.978900e-01 2.748842e+02 
2.990400e-01 2.730119e+02 
3.002700e-01 2.710288e+02 
3.015100e-01 2.690504e+02 
3.026800e-01 2.672032e+02 
3.038500e-01 2.653746e+02 
3.050300e-01 2.635489e+02 
3.062600e-01 2.616619e+02 
3.075000e-01 2.597796e+02 
3.087000e-01 2.579769e+02 
3.099100e-01 2.561777e+02 
3.111200e-01 2.543965e+02 
3.123100e-01 2.526617e+02 
3.135300e-01 2.509012e+02 
3.147300e-01 2.491870e+02 
3.159900e-01 2.474055e+02 
3.171800e-01 2.457410e+02 
3.183700e-01 2.440934e+02 
3.196300e-01 2.423665e+02 
3.208400e-01 2.407249e+02 
3.220300e-01 2.391262e+02 
3.232000e-01 2.375713e+02 
3.244300e-01 2.359533e+02 
3.256700e-01 2.343385e+02 
3.269200e-01 2.327269e+02 
3.280800e-01 2.312458e+02 
3.292500e-01 2.297696e+02 
3.304800e-01 2.282339e+02 
3.317100e-01 2.267130e+02 
3.328900e-01 2.252680e+02 
3.340700e-01 2.238363e+02 
3.353600e-01 2.222909e+02 
3.365300e-01 2.209044e+02 
3.377100e-01 2.195188e+02 
3.389200e-01 2.181112e+02 
3.401600e-01 2.166824e+02 
3.413700e-01 2.153066e+02 
3.425300e-01 2.140034e+02 
3.437700e-01 2.126231e+02 
3.449800e-01 2.112888e+02 
3.461800e-01 2.099775e+02 
3.473600e-01 2.087021e+02 
3.485800e-01 2.074012e+02 
3.498100e-01 2.061017e+02 
3.510200e-01 2.048350e+02 
3.522000e-01 2.036106e+02 
3.533900e-01 2.023868e+02 
3.546400e-01 2.011226e+02 
3.558400e-01 1.999204e+02 
3.570600e-01 1.987091e+02 
3.582700e-01 1.975183e+02 
3.595000e-01 1.963186e+02 
3.607100e-01 1.951544e+02 
3.618900e-01 1.940332e+02 
3.631200e-01 1.928746e+02 
3.643200e-01 1.917540e+02 
3.655500e-01 1.906155e+02 
3.667300e-01 1.895326e+02 
3.679500e-01 1.884325e+02 
3.691900e-01 1.873241e+02 
3.703600e-01 1.862872e+02 
3.715700e-01 1.852237e+02 
3.727700e-01 1.841779e+02 
3.739900e-01 1.831268e+02 
3.752000e-01 1.820987e+02 
3.763900e-01 1.810960e+02 
3.775800e-01 1.801015e+02 
3.788200e-01 1.790739e+02 
3.800300e-01 1.780795e+02 
3.812100e-01 1.771230e+02 
3.824200e-01 1.761536e+02 
3.836100e-01 1.752080e+02 
3.848600e-01 1.742229e+02 
3.860400e-01 1.733006e+02 
3.872400e-01 1.723701e+02 
3.884600e-01 1.714378e+02 
3.896500e-01 1.705380e+02 
3.908700e-01 1.696229e+02 
3.920600e-01 1.687374e+02 
3.933100e-01 1.678147e+02 
3.945300e-01 1.669214e+02 
3.957200e-01 1.660632e+02 
3.969300e-01 1.651992e+02 
3.981700e-01 1.643207e+02 
3.993500e-01 1.634914e+02 
4.094840e-01 1.566531e+02 
4.272360e-01 1.458400e+02 
4.454600e-01 1.360154e+02 
4.630560e-01 1.275608e+02 
4.804610e-01 1.200445e+02 
4.980690e-01 1.131770e+02 
5.159230e-01 1.068666e+02 
5.317440e-01 1.017553e+02 
5.489640e-01 9.664774e+01 
5.671990e-01 9.170054e+01 
5.838690e-01 8.754039e+01 
6.018840e-01 8.339789e+01 
6.202330e-01 7.951733e+01 
6.379250e-01 7.605817e+01 
6.545410e-01 7.304611e+01 
6.714560e-01 7.018664e+01 
6.892080e-01 6.739101e+01 
7.066010e-01 6.484009e+01 
7.240540e-01 6.244693e+01 
7.420450e-01 6.014307e+01 
7.593780e-01 5.806581e+01 
7.764720e-01 5.614041e+01 
7.942840e-01 5.425505e+01 
8.116170e-01 5.253015e+01 
8.288310e-01 5.091525e+01 
8.462240e-01 4.937411e+01 
8.631980e-01 4.795229e+01 
8.810700e-01 4.653609e+01 
8.989410e-01 4.519634e+01 
9.166330e-01 4.393950e+01 
9.345640e-01 4.273211e+01 
9.515980e-01 4.164161e+01 
9.688720e-01 4.058868e+01 
9.865640e-01 3.956238e+01 
1.031870e+00 3.714356e+01 
1.063490e+00 3.561653e+01 
1.097920e+00 3.408556e+01 
1.134370e+00 3.259424e+01 
1.167730e+00 3.133428e+01 
1.203830e+00 3.007169e+01 
1.240470e+00 2.888423e+01 
1.275790e+00 2.782072e+01 
1.309140e+00 2.688195e+01 
1.342970e+00 2.598832e+01 
1.378420e+00 2.510935e+01 
1.413200e+00 2.429935e+01 
1.448110e+00 2.353340e+01 
1.484090e+00 2.278868e+01 
1.518820e+00 2.211024e+01 
1.552880e+00 2.147949e+01 
1.588630e+00 2.085162e+01 
1.623230e+00 2.027450e+01 
1.657720e+00 1.972766e+01 
1.692450e+00 1.920279e+01 
1.726400e+00 1.871354e+01 
1.762200e+00 1.822064e+01 
1.797880e+00 1.775179e+01 
1.833270e+00 1.730737e+01 
1.869070e+00 1.687730e+01 
1.903200e+00 1.648419e+01 
1.937740e+00 1.610247e+01 
1.973190e+00 1.572608e+01 
2.007440e+00 1.537666e+01 
2.042160e+00 1.503570e+01 
2.077900e+00 1.469797e+01 
2.112390e+00 1.438440e+01 
2.146220e+00 1.408735e+01 
2.181600e+00 1.378767e+01 
2.216930e+00 1.349875e+01 
2.250760e+00 1.323149e+01 
2.286500e+00 1.295874e+01 
2.321770e+00 1.269866e+01 
2.355950e+00 1.245447e+01 
2.391280e+00 1.221013e+01 
2.426240e+00 1.197582e+01 
2.460670e+00 1.175223e+01 
2.495640e+00 1.153224e+01 
2.531080e+00 1.131565e+01 
2.566220e+00 1.110723e+01 
2.600830e+00 1.090796e+01 
2.635080e+00 1.071642e+01 
2.670340e+00 1.052461e+01 
2.705970e+00 1.033620e+01 
2.740040e+00 1.016103e+01 
2.774520e+00 9.988356e+00 
2.809730e+00 9.816585e+00 
2.844390e+00 9.652095e+00 
2.879960e+00 9.487697e+00 
2.914860e+00 9.330357e+00 
2.949410e+00 9.178644e+00 
2.984440e+00 9.028470e+00 
3.019760e+00 8.880871e+00 
3.054730e+00 8.738530e+00 
3.089030e+00 8.601775e+00 
3.124060e+00 8.465601e+00 
3.159560e+00 8.330910e+00 
3.194710e+00 8.200534e+00 
3.229010e+00 8.076433e+00 
3.263320e+00 7.954621e+00 
3.297930e+00 7.834690e+00 
3.332830e+00 7.716397e+00 
3.368040e+00 7.599642e+00 
3.403300e+00 7.485365e+00 
3.438450e+00 7.373752e+00 
3.473060e+00 7.266457e+00 
3.508440e+00 7.158660e+00 
3.543110e+00 7.055509e+00 
3.577470e+00 6.955143e+00 
3.613040e+00 6.853553e+00 
3.648120e+00 6.755234e+00 
3.682910e+00 6.659826e+00 
3.718050e+00 6.565324e+00 
3.753320e+00 6.472397e+00 
3.787980e+00 6.382747e+00 
3.822290e+00 6.295781e+00 
3.857020e+00 6.209378e+00 
3.891920e+00 6.124291e+00 
3.926650e+00 6.041126e+00 
3.961970e+00 5.958239e+00 
3.997360e+00 5.876578e+00 
4.031670e+00 5.799036e+00 
4.066330e+00 5.721962e+00 
4.101420e+00 5.645581e+00 
4.136200e+00 5.570926e+00 
4.170810e+00 5.498196e+00 
4.206250e+00 5.424871e+00 
4.241580e+00 5.353238e+00 
4.276300e+00 5.284009e+00 
4.310970e+00 5.216126e+00 
4.346120e+00 5.148526e+00 
4.380600e+00 5.083256e+00 
4.414730e+00 5.019911e+00 
4.450350e+00 4.954694e+00 
4.485320e+00 4.891948e+00 
4.519810e+00 4.831003e+00 
4.555430e+00 4.769174e+00 
4.590870e+00 4.708737e+00 
4.625480e+00 4.650581e+00 
4.659910e+00 4.593822e+00 
4.695230e+00 4.536397e+00 
4.729960e+00 4.480955e+00 
4.764450e+00 4.426813e+00 
4.799530e+00 4.372587e+00 
4.834910e+00 4.318920e+00 
4.869700e+00 4.266820e+00 
4.904370e+00 4.215797e+00 
4.939450e+00 4.165036e+00 
4.973940e+00 4.115838e+00 
5.008430e+00 4.067516e+00 
5.043810e+00 4.018660e+00 
5.078840e+00 3.971055e+00 
5.113500e+00 3.924783e+00 
5.148890e+00 3.878118e+00 
5.184210e+00 3.832358e+00 
5.219060e+00 3.787944e+00 
5.253660e+00 3.744461e+00 
5.288570e+00 3.701339e+00 
5.323420e+00 3.658916e+00 
5.358440e+00 3.616889e+00 
5.393590e+00 3.575422e+00 
5.428310e+00 3.535045e+00 
5.462800e+00 3.495543e+00 
5.497640e+00 3.456298e+00 
5.532670e+00 3.417356e+00 
5.567280e+00 3.379467e+00 
5.602000e+00 3.342075e+00 
5.637270e+00 3.304590e+00 
5.672410e+00 3.267825e+00 
5.707020e+00 3.232195e+00 
5.742040e+00 3.196613e+00 
5.777430e+00 3.161211e+00 
5.812210e+00 3.126972e+00 
5.846820e+00 3.093343e+00 
5.881610e+00 3.060043e+00 
5.916510e+00 3.027157e+00 
5.951600e+00 2.994545e+00 
5.986560e+00 2.962529e+00 
6.021830e+00 2.930729e+00 
6.056490e+00 2.899902e+00 
6.091160e+00 2.869486e+00 
6.125830e+00 2.839527e+00 
6.161090e+00 2.809498e+00 
6.195760e+00 2.780373e+00 
6.230420e+00 2.751688e+00 
6.265690e+00 2.722929e+00 
6.300950e+00 2.694554e+00 
6.335620e+00 2.667065e+00 
6.370880e+00 2.639517e+00 
6.405550e+00 2.612789e+00 
6.440220e+00 2.586432e+00 
6.475480e+00 2.560012e+00 
6.510150e+00 2.534402e+00 
6.544810e+00 2.509148e+00 
6.580080e+00 2.483816e+00 
6.614750e+00 2.459266e+00 
6.649410e+00 2.435041e+00 
6.684080e+00 2.411140e+00 
6.719340e+00 2.387171e+00 
6.754010e+00 2.363929e+00 
6.788680e+00 2.340997e+00 
6.823940e+00 2.317997e+00 
6.859800e+00 2.294931e+00 
6.894470e+00 2.272943e+00 
6.929140e+00 2.251253e+00 
6.963800e+00 2.229859e+00 
6.999070e+00 2.208382e+00 
7.033730e+00 2.187562e+00 
7.068400e+00 2.167011e+00 
7.103660e+00 2.146387e+00 
7.138330e+00 2.126378e+00 
7.173600e+00 2.106294e+00 
7.208260e+00 2.086816e+00 
7.243530e+00 2.067253e+00 
7.277600e+00 2.048615e+00 
7.312860e+00 2.029586e+00 
7.348120e+00 2.010805e+00 
7.382790e+00 1.992575e+00 
7.417460e+00 1.974583e+00 
7.452720e+00 1.956521e+00 
7.487390e+00 1.938986e+00 
7.522650e+00 1.921378e+00 
7.557320e+00 1.904308e+00 
7.591990e+00 1.887460e+00 
7.627250e+00 1.870539e+00 
7.662510e+00 1.853828e+00 
7.697180e+00 1.837629e+00 
7.731850e+00 1.821638e+00 
7.766510e+00 1.805845e+00 
7.801180e+00 1.790238e+00 
7.836440e+00 1.774579e+00 
7.871110e+00 1.759381e+00 
7.906380e+00 1.744105e+00 
7.941040e+00 1.729273e+00 
7.976310e+00 1.714377e+00 
8.011570e+00 1.699686e+00 
8.046240e+00 1.685410e+00 
8.080900e+00 1.671306e+00 
8.115570e+00 1.657372e+00 
8.150830e+00 1.643407e+00 
8.185500e+00 1.629836e+00 
8.220770e+00 1.616189e+00 
8.255430e+00 1.602932e+00 
8.290100e+00 1.589862e+00 
8.324770e+00 1.576945e+00 
8.359430e+00 1.564177e+00 
8.394700e+00 1.551331e+00 
8.429960e+00 1.538659e+00 
8.464630e+00 1.526363e+00 
8.499890e+00 1.513998e+00 
8.534560e+00 1.501975e+00 
8.569200e+00 1.490095e+00 
