# Parameters:
# omega_b = 0.022067, omega_m = 0.124961, n_s = 0.854724, h = 77.677165, w = -1.000000, sigma_8 = 0.859055
# z = 1.900000
#
# k[1/Mpc] # P(k):
8.694000e-04 8.083880e+03 
2.077466e-03 1.542249e+04 
3.285532e-03 2.046830e+04 
4.493598e-03 2.391411e+04 
5.701664e-03 2.614184e+04 
6.909730e-03 2.743880e+04 
8.117797e-03 2.806398e+04 
9.325863e-03 2.814935e+04 
1.053393e-02 2.781281e+04 
1.174199e-02 2.715533e+04 
1.295006e-02 2.624094e+04 
1.415813e-02 2.514931e+04 
1.536619e-02 2.394462e+04 
1.657426e-02 2.266939e+04 
1.778233e-02 2.136111e+04 
1.899039e-02 2.007266e+04 
2.019846e-02 1.883038e+04 
2.140652e-02 1.765476e+04 
2.261459e-02 1.655604e+04 
2.382266e-02 1.554536e+04 
2.503072e-02 1.462808e+04 
2.623879e-02 1.380276e+04 
2.744685e-02 1.306778e+04 
2.865492e-02 1.241738e+04 
2.986299e-02 1.184374e+04 
3.100100e-02 1.137002e+04 
3.220400e-02 1.093059e+04 
3.288100e-02 1.070975e+04 
3.424300e-02 1.031219e+04 
3.555100e-02 9.979117e+03 
3.686000e-02 9.684787e+03 
3.795000e-02 9.462271e+03 
3.929100e-02 9.209607e+03 
4.039800e-02 9.011130e+03 
4.164000e-02 8.795035e+03 
4.294400e-02 8.565248e+03 
4.415000e-02 8.351582e+03 
4.542900e-02 8.113443e+03 
4.660900e-02 7.888753e+03 
4.782300e-02 7.641894e+03 
4.892900e-02 7.411795e+03 
5.031200e-02 7.114559e+03 
5.155900e-02 6.838906e+03 
5.238100e-02 6.655567e+03 
5.378200e-02 6.342958e+03 
5.513400e-02 6.043530e+03 
5.627600e-02 5.795328e+03 
5.735300e-02 5.567573e+03 
5.870100e-02 5.293090e+03 
5.988700e-02 5.063669e+03 
6.113500e-02 4.835729e+03 
6.225900e-02 4.644193e+03 
6.340100e-02 4.464317e+03 
6.480200e-02 4.263481e+03 
6.601100e-02 4.110340e+03 
6.725500e-02 3.971117e+03 
6.829100e-02 3.870050e+03 
6.958600e-02 3.757957e+03 
7.071100e-02 3.673944e+03 
7.192300e-02 3.594607e+03 
7.307400e-02 3.528463e+03 
7.412300e-02 3.474620e+03 
7.550400e-02 3.411840e+03 
7.663100e-02 3.365089e+03 
7.791200e-02 3.315881e+03 
7.912700e-02 3.270733e+03 
8.027600e-02 3.228130e+03 
8.138400e-02 3.186459e+03 
8.272200e-02 3.134263e+03 
8.406100e-02 3.079125e+03 
8.534100e-02 3.021822e+03 
8.653800e-02 2.964056e+03 
8.759800e-02 2.910597e+03 
8.900300e-02 2.836005e+03 
9.009000e-02 2.775241e+03 
9.113300e-02 2.714455e+03 
9.239600e-02 2.639827e+03 
9.358000e-02 2.568448e+03 
9.496100e-02 2.483967e+03 
9.608400e-02 2.416048e+03 
9.727500e-02 2.345279e+03 
9.852600e-02 2.272283e+03 
9.973800e-02 2.204451e+03 
1.009000e-01 2.141971e+03 
1.020900e-01 2.082292e+03 
1.034000e-01 2.020575e+03 
1.046000e-01 1.967786e+03 
1.057200e-01 1.923877e+03 
1.069100e-01 1.880133e+03 
1.082500e-01 1.836977e+03 
1.093900e-01 1.804374e+03 
1.105400e-01 1.774103e+03 
1.116900e-01 1.748558e+03 
1.129600e-01 1.722359e+03 
1.142000e-01 1.700505e+03 
1.153300e-01 1.681917e+03 
1.166400e-01 1.662206e+03 
1.177800e-01 1.645837e+03 
1.190000e-01 1.628912e+03 
1.201200e-01 1.612794e+03 
1.213400e-01 1.595483e+03 
1.227100e-01 1.573762e+03 
1.238900e-01 1.554776e+03 
1.250700e-01 1.533744e+03 
1.263200e-01 1.510922e+03 
1.275500e-01 1.486631e+03 
1.287500e-01 1.462328e+03 
1.299900e-01 1.435974e+03 
1.311300e-01 1.411455e+03 
1.323500e-01 1.384536e+03 
1.335900e-01 1.357343e+03 
1.347100e-01 1.332686e+03 
1.359800e-01 1.305281e+03 
1.372100e-01 1.279136e+03 
1.384300e-01 1.253969e+03 
1.395700e-01 1.231266e+03 
1.407700e-01 1.208022e+03 
1.420300e-01 1.185037e+03 
1.432800e-01 1.162803e+03 
1.444500e-01 1.143643e+03 
1.456300e-01 1.124750e+03 
1.468900e-01 1.106044e+03 
1.480500e-01 1.089500e+03 
1.491700e-01 1.074364e+03 
1.503800e-01 1.058996e+03 
1.516400e-01 1.043529e+03 
1.528200e-01 1.030195e+03 
1.540200e-01 1.016903e+03 
1.551900e-01 1.004782e+03 
1.564300e-01 9.923280e+02 
1.576600e-01 9.804033e+02 
1.588700e-01 9.691215e+02 
1.600900e-01 9.579642e+02 
1.612700e-01 9.474106e+02 
1.625400e-01 9.362659e+02 
1.637600e-01 9.255867e+02 
1.649500e-01 9.152577e+02 
1.662200e-01 9.043582e+02 
1.674000e-01 8.939666e+02 
1.685000e-01 8.844465e+02 
1.697500e-01 8.734921e+02 
1.710300e-01 8.621630e+02 
1.722200e-01 8.518266e+02 
1.734400e-01 8.407992e+02 
1.746400e-01 8.301262e+02 
1.758700e-01 8.192357e+02 
1.770900e-01 8.083259e+02 
1.782700e-01 7.979660e+02 
1.794600e-01 7.875511e+02 
1.807000e-01 7.767943e+02 
1.819100e-01 7.664916e+02 
1.830100e-01 7.572952e+02 
1.842200e-01 7.473545e+02 
1.855000e-01 7.370413e+02 
1.867000e-01 7.277435e+02 
1.879200e-01 7.184567e+02 
1.890900e-01 7.097556e+02 
1.902800e-01 7.013228e+02 
1.915200e-01 6.926855e+02 
1.926900e-01 6.847581e+02 
1.939000e-01 6.769716e+02 
1.951700e-01 6.689363e+02 
1.963100e-01 6.619245e+02 
1.975100e-01 6.548830e+02 
1.987800e-01 6.475514e+02 
2.000100e-01 6.406330e+02 
2.012500e-01 6.339238e+02 
2.023400e-01 6.281138e+02 
2.036100e-01 6.214656e+02 
2.048900e-01 6.149499e+02 
2.060400e-01 6.091847e+02 
2.072200e-01 6.033538e+02 
2.084200e-01 5.975028e+02 
2.096900e-01 5.914043e+02 
2.109200e-01 5.855880e+02 
2.121100e-01 5.799631e+02 
2.132700e-01 5.745541e+02 
2.145200e-01 5.688102e+02 
2.157200e-01 5.632968e+02 
2.168800e-01 5.580057e+02 
2.180700e-01 5.526540e+02 
2.193400e-01 5.469853e+02 
2.206000e-01 5.413702e+02 
2.217500e-01 5.363185e+02 
2.229500e-01 5.311202e+02 
2.241400e-01 5.259504e+02 
2.253500e-01 5.207657e+02 
2.264900e-01 5.159480e+02 
2.277100e-01 5.108432e+02 
2.289900e-01 5.055429e+02 
2.301500e-01 5.008073e+02 
2.313600e-01 4.959349e+02 
2.325600e-01 4.911652e+02 
2.337700e-01 4.864218e+02 
2.350000e-01 4.816668e+02 
2.362000e-01 4.771049e+02 
2.374100e-01 4.725831e+02 
2.386500e-01 4.680126e+02 
2.399100e-01 4.634328e+02 
2.410400e-01 4.594258e+02 
2.422500e-01 4.551958e+02 
2.435000e-01 4.508846e+02 
2.447300e-01 4.467110e+02 
2.458700e-01 4.429381e+02 
2.470600e-01 4.390488e+02 
2.483300e-01 4.349524e+02 
2.495600e-01 4.310635e+02 
2.507600e-01 4.273534e+02 
2.519600e-01 4.236898e+02 
2.532200e-01 4.198921e+02 
2.543700e-01 4.165010e+02 
2.555500e-01 4.130846e+02 
2.568000e-01 4.095104e+02 
2.580100e-01 4.060937e+02 
2.592400e-01 4.026889e+02 
2.604100e-01 3.995005e+02 
2.616100e-01 3.962689e+02 
2.628400e-01 3.929966e+02 
2.640600e-01 3.898110e+02 
2.652200e-01 3.868258e+02 
2.664300e-01 3.837479e+02 
2.676500e-01 3.806813e+02 
2.688400e-01 3.777333e+02 
2.700700e-01 3.747267e+02 
2.712400e-01 3.718998e+02 
2.724800e-01 3.689382e+02 
2.736700e-01 3.661306e+02 
2.748800e-01 3.633099e+02 
2.761000e-01 3.604985e+02 
2.773200e-01 3.577193e+02 
2.785400e-01 3.549714e+02 
2.797000e-01 3.523868e+02 
2.808900e-01 3.497642e+02 
2.821400e-01 3.470405e+02 
2.833900e-01 3.443477e+02 
2.845500e-01 3.418688e+02 
2.857800e-01 3.392691e+02 
2.870300e-01 3.366569e+02 
2.882100e-01 3.342182e+02 
2.893900e-01 3.318024e+02 
2.906300e-01 3.292898e+02 
2.918900e-01 3.267652e+02 
2.930500e-01 3.244662e+02 
2.942500e-01 3.221118e+02 
2.954200e-01 3.198367e+02 
2.966500e-01 3.174703e+02 
2.978900e-01 3.151107e+02 
2.990400e-01 3.129452e+02 
3.002700e-01 3.106528e+02 
3.015100e-01 3.083664e+02 
3.026800e-01 3.062316e+02 
3.038500e-01 3.041184e+02 
3.050300e-01 3.020087e+02 
3.062600e-01 2.998325e+02 
3.075000e-01 2.976618e+02 
3.087000e-01 2.955829e+02 
3.099100e-01 2.935081e+02 
3.111200e-01 2.914560e+02 
3.123100e-01 2.894608e+02 
3.135300e-01 2.874359e+02 
3.147300e-01 2.854644e+02 
3.159900e-01 2.834155e+02 
3.171800e-01 2.815045e+02 
3.183700e-01 2.796153e+02 
3.196300e-01 2.776351e+02 
3.208400e-01 2.757527e+02 
3.220300e-01 2.739196e+02 
3.232000e-01 2.721401e+02 
3.244300e-01 2.702898e+02 
3.256700e-01 2.684430e+02 
3.269200e-01 2.666000e+02 
3.280800e-01 2.649062e+02 
3.292500e-01 2.632213e+02 
3.304800e-01 2.614693e+02 
3.317100e-01 2.597344e+02 
3.328900e-01 2.580858e+02 
3.340700e-01 2.564525e+02 
3.353600e-01 2.546914e+02 
3.365300e-01 2.531121e+02 
3.377100e-01 2.515338e+02 
3.389200e-01 2.499304e+02 
3.401600e-01 2.483028e+02 
3.413700e-01 2.467361e+02 
3.425300e-01 2.452524e+02 
3.437700e-01 2.436809e+02 
3.449800e-01 2.421617e+02 
3.461800e-01 2.406688e+02 
3.473600e-01 2.392165e+02 
3.485800e-01 2.377348e+02 
3.498100e-01 2.362547e+02 
3.510200e-01 2.348119e+02 
3.522000e-01 2.334173e+02 
3.533900e-01 2.320233e+02 
3.546400e-01 2.305816e+02 
3.558400e-01 2.292106e+02 
3.570600e-01 2.278290e+02 
3.582700e-01 2.264710e+02 
3.595000e-01 2.251027e+02 
3.607100e-01 2.237733e+02 
3.618900e-01 2.224917e+02 
3.631200e-01 2.211674e+02 
3.643200e-01 2.198867e+02 
3.655500e-01 2.185853e+02 
3.667300e-01 2.173476e+02 
3.679500e-01 2.160869e+02 
3.691900e-01 2.148167e+02 
3.703600e-01 2.136284e+02 
3.715700e-01 2.124097e+02 
3.727700e-01 2.112112e+02 
3.739900e-01 2.100052e+02 
3.752000e-01 2.088230e+02 
3.763900e-01 2.076700e+02 
3.775800e-01 2.065265e+02 
3.788200e-01 2.053449e+02 
3.800300e-01 2.042016e+02 
3.812100e-01 2.030995e+02 
3.824200e-01 2.019813e+02 
3.836100e-01 2.008904e+02 
3.848600e-01 1.997541e+02 
3.860400e-01 1.986901e+02 
3.872400e-01 1.976168e+02 
3.884600e-01 1.965386e+02 
3.896500e-01 1.954970e+02 
3.908700e-01 1.944376e+02 
3.920600e-01 1.934126e+02 
3.933100e-01 1.923445e+02 
3.945300e-01 1.913106e+02 
3.957200e-01 1.903143e+02 
3.969300e-01 1.893104e+02 
3.981700e-01 1.882898e+02 
3.993500e-01 1.873262e+02 
4.094840e-01 1.793711e+02 
4.272360e-01 1.667325e+02 
4.454600e-01 1.552305e+02 
4.630560e-01 1.453407e+02 
4.804610e-01 1.365757e+02 
4.980690e-01 1.286033e+02 
5.159230e-01 1.213159e+02 
5.317440e-01 1.154409e+02 
5.489640e-01 1.095984e+02 
5.671990e-01 1.039676e+02 
5.838690e-01 9.924806e+01 
6.018840e-01 9.456472e+01 
6.202330e-01 9.019105e+01 
6.379250e-01 8.629768e+01 
6.545410e-01 8.291439e+01 
6.714560e-01 7.970546e+01 
6.892080e-01 7.656952e+01 
7.066010e-01 7.370980e+01 
7.240540e-01 7.102683e+01 
7.420450e-01 6.844434e+01 
7.593780e-01 6.611521e+01 
7.764720e-01 6.395592e+01 
7.942840e-01 6.184109e+01 
8.116170e-01 5.990496e+01 
8.288310e-01 5.809133e+01 
8.462240e-01 5.635925e+01 
8.631980e-01 5.476047e+01 
8.810700e-01 5.316688e+01 
8.989410e-01 5.165879e+01 
9.166330e-01 5.024232e+01 
9.345640e-01 4.888092e+01 
9.515980e-01 4.765082e+01 
9.688720e-01 4.646160e+01 
9.865640e-01 4.530190e+01 
1.031870e+00 4.256488e+01 
1.063490e+00 4.083426e+01 
1.097920e+00 3.909657e+01 
1.134370e+00 3.740115e+01 
1.167730e+00 3.596676e+01 
1.203830e+00 3.452749e+01 
1.240470e+00 3.317157e+01 
1.275790e+00 3.195568e+01 
1.309140e+00 3.088148e+01 
1.342970e+00 2.985652e+01 
1.378420e+00 2.884744e+01 
1.413200e+00 2.791658e+01 
1.448110e+00 2.703540e+01 
1.484090e+00 2.617727e+01 
1.518820e+00 2.539496e+01 
1.552880e+00 2.466673e+01 
1.588630e+00 2.394121e+01 
1.623230e+00 2.327333e+01 
1.657720e+00 2.264037e+01 
1.692450e+00 2.203198e+01 
1.726400e+00 2.146467e+01 
1.762200e+00 2.089252e+01 
1.797880e+00 2.034793e+01 
1.833270e+00 1.983121e+01 
1.869070e+00 1.933118e+01 
1.903200e+00 1.887344e+01 
1.937740e+00 1.842877e+01 
1.973190e+00 1.799030e+01 
2.007440e+00 1.758304e+01 
2.042160e+00 1.718530e+01 
2.077900e+00 1.679119e+01 
2.112390e+00 1.642542e+01 
2.146220e+00 1.607844e+01 
2.181600e+00 1.572846e+01 
2.216930e+00 1.539077e+01 
2.250760e+00 1.507840e+01 
2.286500e+00 1.475965e+01 
2.321770e+00 1.445558e+01 
2.355950e+00 1.416985e+01 
2.391280e+00 1.388410e+01 
2.426240e+00 1.360992e+01 
2.460670e+00 1.334826e+01 
2.495640e+00 1.309094e+01 
2.531080e+00 1.283762e+01 
2.566220e+00 1.259362e+01 
2.600830e+00 1.236032e+01 
2.635080e+00 1.213613e+01 
2.670340e+00 1.191180e+01 
2.705970e+00 1.169135e+01 
2.740040e+00 1.148634e+01 
2.774520e+00 1.128431e+01 
2.809730e+00 1.108335e+01 
2.844390e+00 1.089094e+01 
2.879960e+00 1.069871e+01 
2.914860e+00 1.051479e+01 
2.949410e+00 1.033745e+01 
2.984440e+00 1.016184e+01 
3.019760e+00 9.989344e+00 
3.054730e+00 9.823059e+00 
3.089030e+00 9.663322e+00 
3.124060e+00 9.504347e+00 
3.159560e+00 9.347218e+00 
3.194710e+00 9.195077e+00 
3.229010e+00 9.050270e+00 
3.263320e+00 8.908228e+00 
3.297930e+00 8.768415e+00 
3.332830e+00 8.630557e+00 
3.368040e+00 8.494565e+00 
3.403300e+00 8.361521e+00 
3.438450e+00 8.231628e+00 
3.473060e+00 8.106792e+00 
3.508440e+00 7.981464e+00 
3.543110e+00 7.861578e+00 
3.577470e+00 7.745019e+00 
3.613040e+00 7.627071e+00 
3.648120e+00 7.512962e+00 
3.682910e+00 7.402306e+00 
3.718050e+00 7.292820e+00 
3.753320e+00 7.185173e+00 
3.787980e+00 7.081331e+00 
3.822290e+00 6.980666e+00 
3.857020e+00 6.880745e+00 
3.891920e+00 6.782390e+00 
3.926650e+00 6.686314e+00 
3.961970e+00 6.590600e+00 
3.997360e+00 6.496373e+00 
4.031670e+00 6.406938e+00 
4.066330e+00 6.318146e+00 
4.101420e+00 6.230175e+00 
4.136200e+00 6.144261e+00 
4.170810e+00 6.060581e+00 
4.206250e+00 5.976323e+00 
4.241580e+00 5.894045e+00 
4.276300e+00 5.814577e+00 
4.310970e+00 5.736689e+00 
4.346120e+00 5.659180e+00 
4.380600e+00 5.584415e+00 
4.414730e+00 5.511874e+00 
4.450350e+00 5.437238e+00 
4.485320e+00 5.365449e+00 
4.519810e+00 5.295837e+00 
4.555430e+00 5.225278e+00 
4.590870e+00 5.156331e+00 
4.625480e+00 5.090014e+00 
4.659910e+00 5.025307e+00 
4.695230e+00 4.959926e+00 
4.729960e+00 4.896830e+00 
4.764450e+00 4.835269e+00 
4.799530e+00 4.773698e+00 
4.834910e+00 4.712778e+00 
4.869700e+00 4.653671e+00 
4.904370e+00 4.595801e+00 
4.939450e+00 4.538269e+00 
4.973940e+00 4.482589e+00 
5.008430e+00 4.427912e+00 
5.043810e+00 4.372680e+00 
5.078840e+00 4.318895e+00 
5.113500e+00 4.266628e+00 
5.148890e+00 4.214024e+00 
5.184210e+00 4.162456e+00 
5.219060e+00 4.112425e+00 
5.253660e+00 4.063479e+00 
5.288570e+00 4.014950e+00 
5.323420e+00 3.967242e+00 
5.358440e+00 3.920016e+00 
5.393590e+00 3.873429e+00 
5.428310e+00 3.828139e+00 
5.462800e+00 3.783874e+00 
5.497640e+00 3.739905e+00 
5.532670e+00 3.696323e+00 
5.567280e+00 3.653940e+00 
5.602000e+00 3.612122e+00 
5.637270e+00 3.570249e+00 
5.672410e+00 3.529197e+00 
5.707020e+00 3.489422e+00 
5.742040e+00 3.449755e+00 
5.777430e+00 3.410305e+00 
5.812210e+00 3.372160e+00 
5.846820e+00 3.334745e+00 
5.881610e+00 3.297714e+00 
5.916510e+00 3.261151e+00 
5.951600e+00 3.224930e+00 
5.986560e+00 3.189392e+00 
6.021830e+00 3.154098e+00 
6.056490e+00 3.119922e+00 
6.091160e+00 3.086232e+00 
6.125830e+00 3.053054e+00 
6.161090e+00 3.019813e+00 
6.195760e+00 2.987597e+00 
6.230420e+00 2.955872e+00 
6.265690e+00 2.924075e+00 
6.300950e+00 2.892773e+00 
6.335620e+00 2.862453e+00 
6.370880e+00 2.832074e+00 
6.405550e+00 2.802628e+00 
6.440220e+00 2.773603e+00 
6.475480e+00 2.744516e+00 
6.510150e+00 2.716333e+00 
6.544810e+00 2.688567e+00 
6.580080e+00 2.660719e+00 
6.614750e+00 2.633736e+00 
6.649410e+00 2.607137e+00 
6.684080e+00 2.580903e+00 
6.719340e+00 2.554599e+00 
6.754010e+00 2.529108e+00 
6.788680e+00 2.503991e+00 
6.823940e+00 2.478803e+00 
6.859800e+00 2.453546e+00 
6.894470e+00 2.429505e+00 
6.929140e+00 2.405805e+00 
6.963800e+00 2.382432e+00 
6.999070e+00 2.358972e+00 
7.033730e+00 2.336250e+00 
7.068400e+00 2.313824e+00 
7.103660e+00 2.291323e+00 
7.138330e+00 2.269501e+00 
7.173600e+00 2.247614e+00 
7.208260e+00 2.226390e+00 
7.243530e+00 2.205076e+00 
7.277600e+00 2.184790e+00 
7.312860e+00 2.164098e+00 
7.348120e+00 2.143676e+00 
7.382790e+00 2.123856e+00 
7.417460e+00 2.104311e+00 
7.452720e+00 2.084699e+00 
7.487390e+00 2.065662e+00 
7.522650e+00 2.046546e+00 
7.557320e+00 2.028029e+00 
7.591990e+00 2.009757e+00 
7.627250e+00 1.991407e+00 
7.662510e+00 1.973288e+00 
7.697180e+00 1.955744e+00 
7.731850e+00 1.938434e+00 
7.766510e+00 1.921340e+00 
7.801180e+00 1.904449e+00 
7.836440e+00 1.887517e+00 
7.871110e+00 1.871093e+00 
7.906380e+00 1.854587e+00 
7.941040e+00 1.838561e+00 
7.976310e+00 1.822475e+00 
8.011570e+00 1.806618e+00 
8.046240e+00 1.791212e+00 
8.080900e+00 1.775991e+00 
8.115570e+00 1.760958e+00 
8.150830e+00 1.745902e+00 
8.185500e+00 1.731271e+00 
8.220770e+00 1.716560e+00 
8.255430e+00 1.702271e+00 
8.290100e+00 1.688205e+00 
8.324770e+00 1.674307e+00 
8.359430e+00 1.660570e+00 
8.394700e+00 1.646751e+00 
8.429960e+00 1.633124e+00 
8.464630e+00 1.619905e+00 
8.499890e+00 1.606612e+00 
8.534560e+00 1.593689e+00 
8.569200e+00 1.580919e+00 
