# Parameters:
# omega_b = 0.023437, omega_m = 0.122480, n_s = 1.013780, h = 68.228346, w = -1.000000, sigma_8 = 0.745669
# z = 1.900000
#
# k[1/Mpc] # P(k):
8.694000e-04 3.340892e+03 
2.077466e-03 7.344144e+03 
3.285532e-03 1.047125e+04 
4.493598e-03 1.284127e+04 
5.701664e-03 1.455251e+04 
6.909730e-03 1.571434e+04 
8.117797e-03 1.645108e+04 
9.325863e-03 1.682687e+04 
1.053393e-02 1.690501e+04 
1.174199e-02 1.674390e+04 
1.295006e-02 1.638200e+04 
1.415813e-02 1.587032e+04 
1.536619e-02 1.525282e+04 
1.657426e-02 1.456043e+04 
1.778233e-02 1.382049e+04 
1.899039e-02 1.307117e+04 
2.019846e-02 1.233304e+04 
2.140652e-02 1.162317e+04 
2.261459e-02 1.095115e+04 
2.382266e-02 1.032717e+04 
2.503072e-02 9.757001e+03 
2.623879e-02 9.241630e+03 
2.744685e-02 8.781685e+03 
2.865492e-02 8.374793e+03 
2.986299e-02 8.016906e+03 
3.100100e-02 7.723224e+03 
3.220400e-02 7.453203e+03 
3.288100e-02 7.319001e+03 
3.424300e-02 7.080658e+03 
3.555100e-02 6.884768e+03 
3.686000e-02 6.715485e+03 
3.795000e-02 6.589905e+03 
3.929100e-02 6.449955e+03 
4.039800e-02 6.340903e+03 
4.164000e-02 6.222034e+03 
4.294400e-02 6.093715e+03 
4.415000e-02 5.972152e+03 
4.542900e-02 5.832247e+03 
4.660900e-02 5.696960e+03 
4.782300e-02 5.542844e+03 
4.892900e-02 5.395875e+03 
5.031200e-02 5.201020e+03 
5.155900e-02 5.015658e+03 
5.238100e-02 4.890444e+03 
5.378200e-02 4.674197e+03 
5.513400e-02 4.464768e+03 
5.627600e-02 4.290696e+03 
5.735300e-02 4.131894e+03 
5.870100e-02 3.943319e+03 
5.988700e-02 3.789148e+03 
6.113500e-02 3.639623e+03 
6.225900e-02 3.516695e+03 
6.340100e-02 3.402757e+03 
6.480200e-02 3.275798e+03 
6.601100e-02 3.177863e+03 
6.725500e-02 3.086821e+03 
6.829100e-02 3.018828e+03 
6.958600e-02 2.941466e+03 
7.071100e-02 2.881866e+03 
7.192300e-02 2.824441e+03 
7.307400e-02 2.775826e+03 
7.412300e-02 2.735900e+03 
7.550400e-02 2.689132e+03 
7.663100e-02 2.654319e+03 
7.791200e-02 2.617925e+03 
7.912700e-02 2.584868e+03 
8.027600e-02 2.553955e+03 
8.138400e-02 2.523940e+03 
8.272200e-02 2.486596e+03 
8.406100e-02 2.447318e+03 
8.534100e-02 2.406561e+03 
8.653800e-02 2.365379e+03 
8.759800e-02 2.327141e+03 
8.900300e-02 2.273521e+03 
9.009000e-02 2.229553e+03 
9.113300e-02 2.185246e+03 
9.239600e-02 2.130523e+03 
9.358000e-02 2.077769e+03 
9.496100e-02 2.014703e+03 
9.608400e-02 1.963616e+03 
9.727500e-02 1.910070e+03 
9.852600e-02 1.854184e+03 
9.973800e-02 1.801938e+03 
1.009000e-01 1.753552e+03 
1.020900e-01 1.706823e+03 
1.034000e-01 1.658256e+03 
1.046000e-01 1.616473e+03 
1.057200e-01 1.581397e+03 
1.069100e-01 1.546337e+03 
1.082500e-01 1.511468e+03 
1.093900e-01 1.484987e+03 
1.105400e-01 1.460312e+03 
1.116900e-01 1.439369e+03 
1.129600e-01 1.417864e+03 
1.142000e-01 1.399906e+03 
1.153300e-01 1.384678e+03 
1.166400e-01 1.368604e+03 
1.177800e-01 1.355415e+03 
1.190000e-01 1.341858e+03 
1.201200e-01 1.329199e+03 
1.213400e-01 1.315649e+03 
1.227100e-01 1.298981e+03 
1.238900e-01 1.284460e+03 
1.250700e-01 1.268512e+03 
1.263200e-01 1.251224e+03 
1.275500e-01 1.232861e+03 
1.287500e-01 1.214464e+03 
1.299900e-01 1.194476e+03 
1.311300e-01 1.175808e+03 
1.323500e-01 1.155215e+03 
1.335900e-01 1.134306e+03 
1.347100e-01 1.115218e+03 
1.359800e-01 1.093899e+03 
1.372100e-01 1.073375e+03 
1.384300e-01 1.053528e+03 
1.395700e-01 1.035435e+03 
1.407700e-01 1.016877e+03 
1.420300e-01 9.982860e+02 
1.432800e-01 9.802928e+02 
1.444500e-01 9.645893e+02 
1.456300e-01 9.491010e+02 
1.468900e-01 9.336644e+02 
1.480500e-01 9.199796e+02 
1.491700e-01 9.074369e+02 
1.503800e-01 8.946734e+02 
1.516400e-01 8.818302e+02 
1.528200e-01 8.707765e+02 
1.540200e-01 8.597563e+02 
1.551900e-01 8.497671e+02 
1.564300e-01 8.395178e+02 
1.576600e-01 8.297487e+02 
1.588700e-01 8.205611e+02 
1.600900e-01 8.114787e+02 
1.612700e-01 8.029798e+02 
1.625400e-01 7.940034e+02 
1.637600e-01 7.854366e+02 
1.649500e-01 7.771700e+02 
1.662200e-01 7.684477e+02 
1.674000e-01 7.601456e+02 
1.685000e-01 7.525378e+02 
1.697500e-01 7.437664e+02 
1.710300e-01 7.346776e+02 
1.722200e-01 7.263823e+02 
1.734400e-01 7.174766e+02 
1.746400e-01 7.088518e+02 
1.758700e-01 7.000255e+02 
1.770900e-01 6.911349e+02 
1.782700e-01 6.826896e+02 
1.794600e-01 6.741584e+02 
1.807000e-01 6.653189e+02 
1.819100e-01 6.568498e+02 
1.830100e-01 6.492431e+02 
1.842200e-01 6.410109e+02 
1.855000e-01 6.324660e+02 
1.867000e-01 6.247211e+02 
1.879200e-01 6.169836e+02 
1.890900e-01 6.097286e+02 
1.902800e-01 6.026756e+02 
1.915200e-01 5.954502e+02 
1.926900e-01 5.888151e+02 
1.939000e-01 5.822890e+02 
1.951700e-01 5.755533e+02 
1.963100e-01 5.696757e+02 
1.975100e-01 5.637751e+02 
1.987800e-01 5.576304e+02 
2.000100e-01 5.518350e+02 
2.012500e-01 5.462231e+02 
2.023400e-01 5.413627e+02 
2.036100e-01 5.358037e+02 
2.048900e-01 5.303685e+02 
2.060400e-01 5.255585e+02 
2.072200e-01 5.206941e+02 
2.084200e-01 5.158246e+02 
2.096900e-01 5.107483e+02 
2.109200e-01 5.059060e+02 
2.121100e-01 5.012286e+02 
2.132700e-01 4.967302e+02 
2.145200e-01 4.919524e+02 
2.157200e-01 4.873640e+02 
2.168800e-01 4.829589e+02 
2.180700e-01 4.785026e+02 
2.193400e-01 4.737771e+02 
2.206000e-01 4.690875e+02 
2.217500e-01 4.648676e+02 
2.229500e-01 4.605245e+02 
2.241400e-01 4.561868e+02 
2.253500e-01 4.518354e+02 
2.264900e-01 4.477913e+02 
2.277100e-01 4.434938e+02 
2.289900e-01 4.390180e+02 
2.301500e-01 4.350185e+02 
2.313600e-01 4.309027e+02 
2.325600e-01 4.268470e+02 
2.337700e-01 4.228133e+02 
2.350000e-01 4.187692e+02 
2.362000e-01 4.148777e+02 
2.374100e-01 4.110069e+02 
2.386500e-01 4.070941e+02 
2.399100e-01 4.031730e+02 
2.410400e-01 3.997239e+02 
2.422500e-01 3.960804e+02 
2.435000e-01 3.923668e+02 
2.447300e-01 3.887684e+02 
2.458700e-01 3.855029e+02 
2.470600e-01 3.821365e+02 
2.483300e-01 3.785907e+02 
2.495600e-01 3.752206e+02 
2.507600e-01 3.719999e+02 
2.519600e-01 3.688194e+02 
2.532200e-01 3.655227e+02 
2.543700e-01 3.625768e+02 
2.555500e-01 3.596075e+02 
2.568000e-01 3.565010e+02 
2.580100e-01 3.535315e+02 
2.592400e-01 3.505741e+02 
2.604100e-01 3.478053e+02 
2.616100e-01 3.449990e+02 
2.628400e-01 3.421573e+02 
2.640600e-01 3.393953e+02 
2.652200e-01 3.368088e+02 
2.664300e-01 3.341419e+02 
2.676500e-01 3.314848e+02 
2.688400e-01 3.289350e+02 
2.700700e-01 3.263375e+02 
2.712400e-01 3.238950e+02 
2.724800e-01 3.213362e+02 
2.736700e-01 3.189142e+02 
2.748800e-01 3.164848e+02 
2.761000e-01 3.140633e+02 
2.773200e-01 3.116694e+02 
2.785400e-01 3.093041e+02 
2.797000e-01 3.070828e+02 
2.808900e-01 3.048288e+02 
2.821400e-01 3.024877e+02 
2.833900e-01 3.001733e+02 
2.845500e-01 2.980468e+02 
2.857800e-01 2.958165e+02 
2.870300e-01 2.935754e+02 
2.882100e-01 2.914830e+02 
2.893900e-01 2.894116e+02 
2.906300e-01 2.872579e+02 
2.918900e-01 2.850938e+02 
2.930500e-01 2.831229e+02 
2.942500e-01 2.811045e+02 
2.954200e-01 2.791543e+02 
2.966500e-01 2.771258e+02 
2.978900e-01 2.751028e+02 
2.990400e-01 2.732463e+02 
3.002700e-01 2.712804e+02 
3.015100e-01 2.693193e+02 
3.026800e-01 2.674882e+02 
3.038500e-01 2.656755e+02 
3.050300e-01 2.638656e+02 
3.062600e-01 2.619973e+02 
3.075000e-01 2.601335e+02 
3.087000e-01 2.583485e+02 
3.099100e-01 2.565669e+02 
3.111200e-01 2.548041e+02 
3.123100e-01 2.530893e+02 
3.135300e-01 2.513488e+02 
3.147300e-01 2.496541e+02 
3.159900e-01 2.478927e+02 
3.171800e-01 2.462490e+02 
3.183700e-01 2.446232e+02 
3.196300e-01 2.429189e+02 
3.208400e-01 2.412988e+02 
3.220300e-01 2.397210e+02 
3.232000e-01 2.381886e+02 
3.244300e-01 2.365947e+02 
3.256700e-01 2.350038e+02 
3.269200e-01 2.334160e+02 
3.280800e-01 2.319567e+02 
3.292500e-01 2.305042e+02 
3.304800e-01 2.289934e+02 
3.317100e-01 2.274972e+02 
3.328900e-01 2.260754e+02 
3.340700e-01 2.246668e+02 
3.353600e-01 2.231473e+02 
3.365300e-01 2.217844e+02 
3.377100e-01 2.204224e+02 
3.389200e-01 2.190386e+02 
3.401600e-01 2.176339e+02 
3.413700e-01 2.162816e+02 
3.425300e-01 2.150009e+02 
3.437700e-01 2.136443e+02 
3.449800e-01 2.123328e+02 
3.461800e-01 2.110440e+02 
3.473600e-01 2.097902e+02 
3.485800e-01 2.085111e+02 
3.498100e-01 2.072332e+02 
3.510200e-01 2.059875e+02 
3.522000e-01 2.047835e+02 
3.533900e-01 2.035798e+02 
3.546400e-01 2.023353e+02 
3.558400e-01 2.011517e+02 
3.570600e-01 1.999591e+02 
3.582700e-01 1.987866e+02 
3.595000e-01 1.976053e+02 
3.607100e-01 1.964578e+02 
3.618900e-01 1.953520e+02 
3.631200e-01 1.942092e+02 
3.643200e-01 1.931039e+02 
3.655500e-01 1.919808e+02 
3.667300e-01 1.909125e+02 
3.679500e-01 1.898249e+02 
3.691900e-01 1.887290e+02 
3.703600e-01 1.877037e+02 
3.715700e-01 1.866522e+02 
3.727700e-01 1.856180e+02 
3.739900e-01 1.845776e+02 
3.752000e-01 1.835584e+02 
3.763900e-01 1.825643e+02 
3.775800e-01 1.815783e+02 
3.788200e-01 1.805594e+02 
3.800300e-01 1.795734e+02 
3.812100e-01 1.786233e+02 
3.824200e-01 1.776593e+02 
3.836100e-01 1.767189e+02 
3.848600e-01 1.757392e+02 
3.860400e-01 1.748219e+02 
3.872400e-01 1.738964e+02 
3.884600e-01 1.729671e+02 
3.896500e-01 1.720695e+02 
3.908700e-01 1.711566e+02 
3.920600e-01 1.702731e+02 
3.933100e-01 1.693526e+02 
3.945300e-01 1.684614e+02 
3.957200e-01 1.676029e+02 
3.969300e-01 1.667378e+02 
3.981700e-01 1.658583e+02 
3.993500e-01 1.650280e+02 
4.094840e-01 1.581716e+02 
4.272360e-01 1.472710e+02 
4.454600e-01 1.373305e+02 
4.630560e-01 1.287602e+02 
4.804610e-01 1.211396e+02 
4.980690e-01 1.141841e+02 
5.159230e-01 1.078045e+02 
5.317440e-01 1.026471e+02 
5.489640e-01 9.750479e+01 
5.671990e-01 9.253540e+01 
5.838690e-01 8.836351e+01 
6.018840e-01 8.421578e+01 
6.202330e-01 8.033637e+01 
6.379250e-01 7.688081e+01 
6.545410e-01 7.387513e+01 
6.714560e-01 7.102260e+01 
6.892080e-01 6.823511e+01 
7.066010e-01 6.569227e+01 
7.240540e-01 6.330679e+01 
7.420450e-01 6.101066e+01 
7.593780e-01 5.894025e+01 
7.764720e-01 5.702099e+01 
7.942840e-01 5.514137e+01 
8.116170e-01 5.342158e+01 
8.288310e-01 5.181119e+01 
8.462240e-01 5.027408e+01 
8.631980e-01 4.885572e+01 
8.810700e-01 4.744268e+01 
8.989410e-01 4.610561e+01 
9.166330e-01 4.485105e+01 
9.345640e-01 4.364557e+01 
9.515980e-01 4.255655e+01 
9.688720e-01 4.150484e+01 
9.865640e-01 4.047954e+01 
1.031870e+00 3.806194e+01 
1.063490e+00 3.653476e+01 
1.097920e+00 3.500308e+01 
1.134370e+00 3.351003e+01 
1.167730e+00 3.224795e+01 
1.203830e+00 3.098238e+01 
1.240470e+00 2.979131e+01 
1.275790e+00 2.872378e+01 
1.309140e+00 2.778087e+01 
1.342970e+00 2.688255e+01 
1.378420e+00 2.599840e+01 
1.413200e+00 2.518295e+01 
1.448110e+00 2.441120e+01 
1.484090e+00 2.366030e+01 
1.518820e+00 2.297562e+01 
1.552880e+00 2.233851e+01 
1.588630e+00 2.170378e+01 
1.623230e+00 2.111989e+01 
1.657720e+00 2.056621e+01 
1.692450e+00 2.003434e+01 
1.726400e+00 1.953808e+01 
1.762200e+00 1.903770e+01 
1.797880e+00 1.856133e+01 
1.833270e+00 1.810944e+01 
1.869070e+00 1.767173e+01 
1.903200e+00 1.727133e+01 
1.937740e+00 1.688224e+01 
1.973190e+00 1.649824e+01 
2.007440e+00 1.614147e+01 
2.042160e+00 1.579308e+01 
2.077900e+00 1.544771e+01 
2.112390e+00 1.512680e+01 
2.146220e+00 1.482254e+01 
2.181600e+00 1.451536e+01 
2.216930e+00 1.421898e+01 
2.250760e+00 1.394462e+01 
2.286500e+00 1.366443e+01 
2.321770e+00 1.339708e+01 
2.355950e+00 1.314588e+01 
2.391280e+00 1.289429e+01 
2.426240e+00 1.265289e+01 
2.460670e+00 1.242238e+01 
2.495640e+00 1.219545e+01 
2.531080e+00 1.197182e+01 
2.566220e+00 1.175648e+01 
2.600830e+00 1.155050e+01 
2.635080e+00 1.135240e+01 
2.670340e+00 1.115383e+01 
2.705970e+00 1.095867e+01 
2.740040e+00 1.077713e+01 
2.774520e+00 1.059806e+01 
2.809730e+00 1.041980e+01 
2.844390e+00 1.024902e+01 
2.879960e+00 1.007823e+01 
2.914860e+00 9.914649e+00 
2.949410e+00 9.756854e+00 
2.984440e+00 9.600564e+00 
3.019760e+00 9.446868e+00 
3.054730e+00 9.298588e+00 
3.089030e+00 9.156006e+00 
3.124060e+00 9.013975e+00 
3.159560e+00 8.873419e+00 
3.194710e+00 8.737284e+00 
3.229010e+00 8.607664e+00 
3.263320e+00 8.480332e+00 
3.297930e+00 8.354930e+00 
3.332830e+00 8.231174e+00 
3.368040e+00 8.108968e+00 
3.403300e+00 7.989309e+00 
3.438450e+00 7.872370e+00 
3.473060e+00 7.759931e+00 
3.508440e+00 7.646876e+00 
3.543110e+00 7.538675e+00 
3.577470e+00 7.433322e+00 
3.613040e+00 7.326662e+00 
3.648120e+00 7.223382e+00 
3.682910e+00 7.123130e+00 
3.718050e+00 7.023776e+00 
3.753320e+00 6.926050e+00 
3.787980e+00 6.831733e+00 
3.822290e+00 6.740209e+00 
3.857020e+00 6.649233e+00 
3.891920e+00 6.559620e+00 
3.926650e+00 6.471992e+00 
3.961970e+00 6.384635e+00 
3.997360e+00 6.298531e+00 
4.031670e+00 6.216753e+00 
4.066330e+00 6.135426e+00 
4.101420e+00 6.054823e+00 
4.136200e+00 5.975996e+00 
4.170810e+00 5.899194e+00 
4.206250e+00 5.821725e+00 
4.241580e+00 5.746031e+00 
4.276300e+00 5.672850e+00 
4.310970e+00 5.601075e+00 
4.346120e+00 5.529581e+00 
4.380600e+00 5.460524e+00 
4.414730e+00 5.393498e+00 
4.450350e+00 5.324456e+00 
4.485320e+00 5.258026e+00 
4.519810e+00 5.193476e+00 
4.555430e+00 5.127974e+00 
4.590870e+00 5.063935e+00 
4.625480e+00 5.002292e+00 
4.659910e+00 4.942126e+00 
4.695230e+00 4.881226e+00 
4.729960e+00 4.822423e+00 
4.764450e+00 4.764984e+00 
4.799530e+00 4.707436e+00 
4.834910e+00 4.650477e+00 
4.869700e+00 4.595164e+00 
4.904370e+00 4.540985e+00 
4.939450e+00 4.487076e+00 
4.973940e+00 4.434809e+00 
5.008430e+00 4.383467e+00 
5.043810e+00 4.331544e+00 
5.078840e+00 4.280940e+00 
5.113500e+00 4.231750e+00 
5.148890e+00 4.182120e+00 
5.184210e+00 4.133449e+00 
5.219060e+00 4.086203e+00 
5.253660e+00 4.039935e+00 
5.288570e+00 3.994047e+00 
5.323420e+00 3.948892e+00 
5.358440e+00 3.904147e+00 
5.393590e+00 3.859994e+00 
5.428310e+00 3.816988e+00 
5.462800e+00 3.774907e+00 
5.497640e+00 3.733096e+00 
5.532670e+00 3.691602e+00 
5.567280e+00 3.651228e+00 
5.602000e+00 3.611379e+00 
5.637270e+00 3.571412e+00 
5.672410e+00 3.532206e+00 
5.707020e+00 3.494209e+00 
5.742040e+00 3.456250e+00 
5.777430e+00 3.418477e+00 
5.812210e+00 3.381943e+00 
5.846820e+00 3.346055e+00 
5.881610e+00 3.310514e+00 
5.916510e+00 3.275412e+00 
5.951600e+00 3.240589e+00 
5.986560e+00 3.206395e+00 
6.021830e+00 3.172427e+00 
6.056490e+00 3.139495e+00 
6.091160e+00 3.106999e+00 
6.125830e+00 3.074988e+00 
6.161090e+00 3.042895e+00 
6.195760e+00 3.011757e+00 
6.230420e+00 2.981087e+00 
6.265690e+00 2.950335e+00 
6.300950e+00 2.919988e+00 
6.335620e+00 2.890585e+00 
6.370880e+00 2.861117e+00 
6.405550e+00 2.832519e+00 
6.440220e+00 2.804313e+00 
6.475480e+00 2.776039e+00 
6.510150e+00 2.748624e+00 
6.544810e+00 2.721581e+00 
6.580080e+00 2.694452e+00 
6.614750e+00 2.668159e+00 
6.649410e+00 2.642206e+00 
6.684080e+00 2.616597e+00 
6.719340e+00 2.590914e+00 
6.754010e+00 2.566005e+00 
6.788680e+00 2.541423e+00 
6.823940e+00 2.516766e+00 
6.859800e+00 2.492036e+00 
6.894470e+00 2.468455e+00 
6.929140e+00 2.445189e+00 
6.963800e+00 2.422241e+00 
6.999070e+00 2.399200e+00 
7.033730e+00 2.376854e+00 
7.068400e+00 2.354796e+00 
7.103660e+00 2.332658e+00 
7.138330e+00 2.311177e+00 
7.173600e+00 2.289610e+00 
7.208260e+00 2.268692e+00 
7.243530e+00 2.247682e+00 
7.277600e+00 2.227659e+00 
7.312860e+00 2.207211e+00 
7.348120e+00 2.187028e+00 
7.382790e+00 2.167435e+00 
7.417460e+00 2.148092e+00 
7.452720e+00 2.128670e+00 
7.487390e+00 2.109813e+00 
7.522650e+00 2.090875e+00 
7.557320e+00 2.072512e+00 
7.591990e+00 2.054383e+00 
7.627250e+00 2.036174e+00 
7.662510e+00 2.018191e+00 
7.697180e+00 2.000752e+00 
7.731850e+00 1.983534e+00 
7.766510e+00 1.966529e+00 
7.801180e+00 1.949723e+00 
7.836440e+00 1.932853e+00 
7.871110e+00 1.916475e+00 
7.906380e+00 1.900013e+00 
7.941040e+00 1.884028e+00 
7.976310e+00 1.867971e+00 
8.011570e+00 1.852130e+00 
8.046240e+00 1.836736e+00 
8.080900e+00 1.821526e+00 
8.115570e+00 1.806498e+00 
8.150830e+00 1.791429e+00 
8.185500e+00 1.776784e+00 
8.220770e+00 1.762057e+00 
8.255430e+00 1.747751e+00 
8.290100e+00 1.733639e+00 
8.324770e+00 1.719691e+00 
8.359430e+00 1.705904e+00 
8.394700e+00 1.692032e+00 
8.429960e+00 1.678342e+00 
8.464630e+00 1.665054e+00 
8.499890e+00 1.651690e+00 
8.534560e+00 1.638695e+00 
8.569200e+00 1.625854e+00 
