# Parameters:
# omega_b = 0.022996, omega_m = 0.138740, n_s = 1.037402, h = 79.803150, w = -1.000000, sigma_8 = 0.871654
# z = 1.900000
#
# k[1/Mpc] # P(k):
8.694000e-04 2.375141e+03 
2.077466e-03 5.389817e+03 
3.285532e-03 7.866969e+03 
4.493598e-03 9.851137e+03 
5.701664e-03 1.137585e+04 
6.909730e-03 1.250114e+04 
8.117797e-03 1.330676e+04 
9.325863e-03 1.383263e+04 
1.053393e-02 1.411948e+04 
1.174199e-02 1.420596e+04 
1.295006e-02 1.411819e+04 
1.415813e-02 1.389338e+04 
1.536619e-02 1.356277e+04 
1.657426e-02 1.314852e+04 
1.778233e-02 1.267229e+04 
1.899039e-02 1.216550e+04 
2.019846e-02 1.164550e+04 
2.140652e-02 1.112770e+04 
2.261459e-02 1.062102e+04 
2.382266e-02 1.013617e+04 
2.503072e-02 9.680722e+03 
2.623879e-02 9.257910e+03 
2.744685e-02 8.869289e+03 
2.865492e-02 8.516412e+03 
2.986299e-02 8.197976e+03 
3.100100e-02 7.929376e+03 
3.220400e-02 7.676045e+03 
3.288100e-02 7.547228e+03 
3.424300e-02 7.313955e+03 
3.555100e-02 7.118001e+03 
3.686000e-02 6.945725e+03 
3.795000e-02 6.816876e+03 
3.929100e-02 6.673556e+03 
4.039800e-02 6.563382e+03 
4.164000e-02 6.445450e+03 
4.294400e-02 6.322613e+03 
4.415000e-02 6.209116e+03 
4.542900e-02 6.082483e+03 
4.660900e-02 5.962094e+03 
4.782300e-02 5.827435e+03 
4.892900e-02 5.699675e+03 
5.031200e-02 5.530606e+03 
5.155900e-02 5.369286e+03 
5.238100e-02 5.259508e+03 
5.378200e-02 5.067610e+03 
5.513400e-02 4.876961e+03 
5.627600e-02 4.713087e+03 
5.735300e-02 4.557435e+03 
5.870100e-02 4.362115e+03 
5.988700e-02 4.192049e+03 
6.113500e-02 4.016924e+03 
6.225900e-02 3.865306e+03 
6.340100e-02 3.720122e+03 
6.480200e-02 3.556367e+03 
6.601100e-02 3.430981e+03 
6.725500e-02 3.317473e+03 
6.829100e-02 3.235705e+03 
6.958600e-02 3.145828e+03 
7.071100e-02 3.079232e+03 
7.192300e-02 3.017048e+03 
7.307400e-02 2.965906e+03 
7.412300e-02 2.924900e+03 
7.550400e-02 2.878199e+03 
7.663100e-02 2.844230e+03 
7.791200e-02 2.809778e+03 
7.912700e-02 2.779284e+03 
8.027600e-02 2.751226e+03 
8.138400e-02 2.724246e+03 
8.272200e-02 2.690843e+03 
8.406100e-02 2.655622e+03 
8.534100e-02 2.618679e+03 
8.653800e-02 2.580780e+03 
8.759800e-02 2.545151e+03 
8.900300e-02 2.494429e+03 
9.009000e-02 2.452132e+03 
9.113300e-02 2.408819e+03 
9.239600e-02 2.354701e+03 
9.358000e-02 2.301766e+03 
9.496100e-02 2.237417e+03 
9.608400e-02 2.184687e+03 
9.727500e-02 2.128941e+03 
9.852600e-02 2.069751e+03 
9.973800e-02 2.013976e+03 
1.009000e-01 1.961961e+03 
1.020900e-01 1.910982e+03 
1.034000e-01 1.857676e+03 
1.046000e-01 1.811492e+03 
1.057200e-01 1.772271e+03 
1.069100e-01 1.732923e+03 
1.082500e-01 1.693416e+03 
1.093900e-01 1.663254e+03 
1.105400e-01 1.635050e+03 
1.116900e-01 1.611025e+03 
1.129600e-01 1.586365e+03 
1.142000e-01 1.565893e+03 
1.153300e-01 1.548691e+03 
1.166400e-01 1.530790e+03 
1.177800e-01 1.516518e+03 
1.190000e-01 1.502051e+03 
1.201200e-01 1.489124e+03 
1.213400e-01 1.475393e+03 
1.227100e-01 1.459207e+03 
1.238900e-01 1.445200e+03 
1.250700e-01 1.430064e+03 
1.263200e-01 1.413666e+03 
1.275500e-01 1.396262e+03 
1.287500e-01 1.378719e+03 
1.299900e-01 1.359496e+03 
1.311300e-01 1.341332e+03 
1.323500e-01 1.320992e+03 
1.335900e-01 1.300043e+03 
1.347100e-01 1.280546e+03 
1.359800e-01 1.258495e+03 
1.372100e-01 1.236745e+03 
1.384300e-01 1.215486e+03 
1.395700e-01 1.195596e+03 
1.407700e-01 1.175122e+03 
1.420300e-01 1.153990e+03 
1.432800e-01 1.133532e+03 
1.444500e-01 1.115219e+03 
1.456300e-01 1.097157e+03 
1.468900e-01 1.078982e+03 
1.480500e-01 1.062819e+03 
1.491700e-01 1.048011e+03 
1.503800e-01 1.032950e+03 
1.516400e-01 1.017839e+03 
1.528200e-01 1.005019e+03 
1.540200e-01 9.922384e+02 
1.551900e-01 9.809493e+02 
1.564300e-01 9.694408e+02 
1.576600e-01 9.586562e+02 
1.588700e-01 9.487402e+02 
1.600900e-01 9.389543e+02 
1.612700e-01 9.301341e+02 
1.625400e-01 9.208164e+02 
1.637600e-01 9.120405e+02 
1.649500e-01 9.036383e+02 
1.662200e-01 8.947738e+02 
1.674000e-01 8.863513e+02 
1.685000e-01 8.786302e+02 
1.697500e-01 8.696503e+02 
1.710300e-01 8.602686e+02 
1.722200e-01 8.517016e+02 
1.734400e-01 8.422737e+02 
1.746400e-01 8.331294e+02 
1.758700e-01 8.236843e+02 
1.770900e-01 8.140013e+02 
1.782700e-01 8.047987e+02 
1.794600e-01 7.953718e+02 
1.807000e-01 7.855169e+02 
1.819100e-01 7.760710e+02 
1.830100e-01 7.674613e+02 
1.842200e-01 7.581199e+02 
1.855000e-01 7.484170e+02 
1.867000e-01 7.395359e+02 
1.879200e-01 7.306613e+02 
1.890900e-01 7.223338e+02 
1.902800e-01 7.142136e+02 
1.915200e-01 7.058933e+02 
1.926900e-01 6.982554e+02 
1.939000e-01 6.907551e+02 
1.951700e-01 6.830124e+02 
1.963100e-01 6.762669e+02 
1.975100e-01 6.695264e+02 
1.987800e-01 6.625058e+02 
2.000100e-01 6.559005e+02 
2.012500e-01 6.495442e+02 
2.023400e-01 6.440380e+02 
2.036100e-01 6.377503e+02 
2.048900e-01 6.316437e+02 
2.060400e-01 6.262385e+02 
2.072200e-01 6.207739e+02 
2.084200e-01 6.153366e+02 
2.096900e-01 6.096670e+02 
2.109200e-01 6.042574e+02 
2.121100e-01 5.990479e+02 
2.132700e-01 5.940373e+02 
2.145200e-01 5.887141e+02 
2.157200e-01 5.836045e+02 
2.168800e-01 5.786996e+02 
2.180700e-01 5.737363e+02 
2.193400e-01 5.684702e+02 
2.206000e-01 5.632397e+02 
2.217500e-01 5.585317e+02 
2.229500e-01 5.536848e+02 
2.241400e-01 5.488401e+02 
2.253500e-01 5.439783e+02 
2.264900e-01 5.394585e+02 
2.277100e-01 5.346536e+02 
2.289900e-01 5.296474e+02 
2.301500e-01 5.251723e+02 
2.313600e-01 5.205655e+02 
2.325600e-01 5.160309e+02 
2.337700e-01 5.115192e+02 
2.350000e-01 5.069943e+02 
2.362000e-01 5.026434e+02 
2.374100e-01 4.983197e+02 
2.386500e-01 4.939475e+02 
2.399100e-01 4.895643e+02 
2.410400e-01 4.857165e+02 
2.422500e-01 4.816516e+02 
2.435000e-01 4.775069e+02 
2.447300e-01 4.734906e+02 
2.458700e-01 4.698505e+02 
2.470600e-01 4.660966e+02 
2.483300e-01 4.621411e+02 
2.495600e-01 4.583807e+02 
2.507600e-01 4.547864e+02 
2.519600e-01 4.512359e+02 
2.532200e-01 4.475540e+02 
2.543700e-01 4.442584e+02 
2.555500e-01 4.409326e+02 
2.568000e-01 4.374518e+02 
2.580100e-01 4.341234e+02 
2.592400e-01 4.307979e+02 
2.604100e-01 4.276794e+02 
2.616100e-01 4.245178e+02 
2.628400e-01 4.213151e+02 
2.640600e-01 4.181900e+02 
2.652200e-01 4.152579e+02 
2.664300e-01 4.122339e+02 
2.676500e-01 4.092200e+02 
2.688400e-01 4.063177e+02 
2.700700e-01 4.033543e+02 
2.712400e-01 4.005671e+02 
2.724800e-01 3.976463e+02 
2.736700e-01 3.948751e+02 
2.748800e-01 3.920887e+02 
2.761000e-01 3.893107e+02 
2.773200e-01 3.865636e+02 
2.785400e-01 3.838459e+02 
2.797000e-01 3.812871e+02 
2.808900e-01 3.786900e+02 
2.821400e-01 3.759919e+02 
2.833900e-01 3.733237e+02 
2.845500e-01 3.708681e+02 
2.857800e-01 3.682920e+02 
2.870300e-01 3.657027e+02 
2.882100e-01 3.632846e+02 
2.893900e-01 3.608895e+02 
2.906300e-01 3.583981e+02 
2.918900e-01 3.558941e+02 
2.930500e-01 3.536131e+02 
2.942500e-01 3.512765e+02 
2.954200e-01 3.490183e+02 
2.966500e-01 3.466688e+02 
2.978900e-01 3.443252e+02 
2.990400e-01 3.421737e+02 
3.002700e-01 3.398956e+02 
3.015100e-01 3.376227e+02 
3.026800e-01 3.354999e+02 
3.038500e-01 3.333979e+02 
3.050300e-01 3.312988e+02 
3.062600e-01 3.291328e+02 
3.075000e-01 3.269716e+02 
3.087000e-01 3.249012e+02 
3.099100e-01 3.228341e+02 
3.111200e-01 3.207888e+02 
3.123100e-01 3.187991e+02 
3.135300e-01 3.167792e+02 
3.147300e-01 3.148119e+02 
3.159900e-01 3.127666e+02 
3.171800e-01 3.108577e+02 
3.183700e-01 3.089693e+02 
3.196300e-01 3.069893e+02 
3.208400e-01 3.051065e+02 
3.220300e-01 3.032725e+02 
3.232000e-01 3.014910e+02 
3.244300e-01 2.996378e+02 
3.256700e-01 2.977875e+02 
3.269200e-01 2.959404e+02 
3.280800e-01 2.942423e+02 
3.292500e-01 2.925511e+02 
3.304800e-01 2.907914e+02 
3.317100e-01 2.890484e+02 
3.328900e-01 2.873916e+02 
3.340700e-01 2.857497e+02 
3.353600e-01 2.839772e+02 
3.365300e-01 2.823867e+02 
3.377100e-01 2.807968e+02 
3.389200e-01 2.791810e+02 
3.401600e-01 2.775404e+02 
3.413700e-01 2.759597e+02 
3.425300e-01 2.744615e+02 
3.437700e-01 2.728742e+02 
3.449800e-01 2.713392e+02 
3.461800e-01 2.698304e+02 
3.473600e-01 2.683617e+02 
3.485800e-01 2.668614e+02 
3.498100e-01 2.653623e+02 
3.510200e-01 2.639005e+02 
3.522000e-01 2.624873e+02 
3.533900e-01 2.610741e+02 
3.546400e-01 2.596102e+02 
3.558400e-01 2.582175e+02 
3.570600e-01 2.568137e+02 
3.582700e-01 2.554334e+02 
3.595000e-01 2.540423e+02 
3.607100e-01 2.526896e+02 
3.618900e-01 2.513845e+02 
3.631200e-01 2.500355e+02 
3.643200e-01 2.487306e+02 
3.655500e-01 2.474043e+02 
3.667300e-01 2.461425e+02 
3.679500e-01 2.448542e+02 
3.691900e-01 2.435558e+02 
3.703600e-01 2.423408e+02 
3.715700e-01 2.410945e+02 
3.727700e-01 2.398685e+02 
3.739900e-01 2.386341e+02 
3.752000e-01 2.374229e+02 
3.763900e-01 2.362414e+02 
3.775800e-01 2.350693e+02 
3.788200e-01 2.338578e+02 
3.800300e-01 2.326853e+02 
3.812100e-01 2.315534e+02 
3.824200e-01 2.304035e+02 
3.836100e-01 2.292816e+02 
3.848600e-01 2.281125e+02 
3.860400e-01 2.270177e+02 
3.872400e-01 2.259129e+02 
3.884600e-01 2.248017e+02 
3.896500e-01 2.237273e+02 
3.908700e-01 2.226345e+02 
3.920600e-01 2.215768e+02 
3.933100e-01 2.204744e+02 
3.945300e-01 2.194070e+02 
3.957200e-01 2.183765e+02 
3.969300e-01 2.173374e+02 
3.981700e-01 2.162808e+02 
3.993500e-01 2.152830e+02 
4.094840e-01 2.070277e+02 
4.272360e-01 1.938270e+02 
4.454600e-01 1.817180e+02 
4.630560e-01 1.712282e+02 
4.804610e-01 1.618615e+02 
4.980690e-01 1.532821e+02 
5.159230e-01 1.453863e+02 
5.317440e-01 1.389839e+02 
5.489640e-01 1.325807e+02 
5.671990e-01 1.263758e+02 
5.838690e-01 1.211504e+02 
6.018840e-01 1.159426e+02 
6.202330e-01 1.110599e+02 
6.379250e-01 1.066992e+02 
6.545410e-01 1.028989e+02 
6.714560e-01 9.928589e+01 
6.892080e-01 9.574767e+01 
7.066010e-01 9.251570e+01 
7.240540e-01 8.947798e+01 
7.420450e-01 8.655061e+01 
7.593780e-01 8.390785e+01 
7.764720e-01 8.145448e+01 
7.942840e-01 7.904963e+01 
8.116170e-01 7.684636e+01 
8.288310e-01 7.478106e+01 
8.462240e-01 7.280717e+01 
8.631980e-01 7.098359e+01 
8.810700e-01 6.916452e+01 
8.989410e-01 6.744137e+01 
9.166330e-01 6.582166e+01 
9.345640e-01 6.426323e+01 
9.515980e-01 6.285375e+01 
9.688720e-01 6.148979e+01 
9.865640e-01 6.015822e+01 
1.031870e+00 5.700679e+01 
1.063490e+00 5.500690e+01 
1.097920e+00 5.299412e+01 
1.134370e+00 5.102153e+01 
1.167730e+00 4.934664e+01 
1.203830e+00 4.765764e+01 
1.240470e+00 4.605949e+01 
1.275790e+00 4.461859e+01 
1.309140e+00 4.334013e+01 
1.342970e+00 4.211298e+01 
1.378420e+00 4.089960e+01 
1.413200e+00 3.977368e+01 
1.448110e+00 3.870158e+01 
1.484090e+00 3.765278e+01 
1.518820e+00 3.669073e+01 
1.552880e+00 3.578982e+01 
1.588630e+00 3.488730e+01 
1.623230e+00 3.405217e+01 
1.657720e+00 3.325664e+01 
1.692450e+00 3.248786e+01 
1.726400e+00 3.176652e+01 
1.762200e+00 3.103514e+01 
1.797880e+00 3.033528e+01 
1.833270e+00 2.966801e+01 
1.869070e+00 2.901841e+01 
1.903200e+00 2.842098e+01 
1.937740e+00 2.783791e+01 
1.973190e+00 2.725985e+01 
2.007440e+00 2.672024e+01 
2.042160e+00 2.619088e+01 
2.077900e+00 2.566375e+01 
2.112390e+00 2.517224e+01 
2.146220e+00 2.470370e+01 
2.181600e+00 2.422905e+01 
2.216930e+00 2.376897e+01 
2.250760e+00 2.334156e+01 
2.286500e+00 2.290363e+01 
2.321770e+00 2.248422e+01 
2.355950e+00 2.208852e+01 
2.391280e+00 2.169065e+01 
2.426240e+00 2.130753e+01 
2.460670e+00 2.094066e+01 
2.495640e+00 2.057859e+01 
2.531080e+00 2.022026e+01 
2.566220e+00 1.987406e+01 
2.600830e+00 1.954197e+01 
2.635080e+00 1.922180e+01 
2.670340e+00 1.889985e+01 
2.705970e+00 1.858251e+01 
2.740040e+00 1.828661e+01 
2.774520e+00 1.799384e+01 
2.809730e+00 1.770162e+01 
2.844390e+00 1.742112e+01 
2.879960e+00 1.713987e+01 
2.914860e+00 1.686974e+01 
2.949410e+00 1.660872e+01 
2.984440e+00 1.634939e+01 
3.019760e+00 1.609393e+01 
3.054730e+00 1.584716e+01 
3.089030e+00 1.560901e+01 
3.124060e+00 1.537155e+01 
3.159560e+00 1.513621e+01 
3.194710e+00 1.490767e+01 
3.229010e+00 1.468985e+01 
3.263320e+00 1.447526e+01 
3.297930e+00 1.426374e+01 
3.332830e+00 1.405461e+01 
3.368040e+00 1.384781e+01 
3.403300e+00 1.364509e+01 
3.438450e+00 1.344658e+01 
3.473060e+00 1.325561e+01 
3.508440e+00 1.306311e+01 
3.543110e+00 1.287880e+01 
3.577470e+00 1.269905e+01 
3.613040e+00 1.251694e+01 
3.648120e+00 1.234030e+01 
3.682910e+00 1.216876e+01 
3.718050e+00 1.199861e+01 
3.753320e+00 1.183108e+01 
3.787980e+00 1.166914e+01 
3.822290e+00 1.151192e+01 
3.857020e+00 1.135553e+01 
3.891920e+00 1.120139e+01 
3.926650e+00 1.105049e+01 
3.961970e+00 1.090000e+01 
3.997360e+00 1.075152e+01 
4.031670e+00 1.061047e+01 
4.066330e+00 1.047006e+01 
4.101420e+00 1.033090e+01 
4.136200e+00 1.019464e+01 
4.170810e+00 1.006189e+01 
4.206250e+00 9.927899e+00 
4.241580e+00 9.796967e+00 
4.276300e+00 9.670294e+00 
4.310970e+00 9.546012e+00 
4.346120e+00 9.422190e+00 
4.380600e+00 9.302538e+00 
4.414730e+00 9.186412e+00 
4.450350e+00 9.066699e+00 
4.485320e+00 8.951525e+00 
4.519810e+00 8.839606e+00 
4.555430e+00 8.726042e+00 
4.590870e+00 8.614989e+00 
4.625480e+00 8.508028e+00 
4.659910e+00 8.403641e+00 
4.695230e+00 8.297979e+00 
4.729960e+00 8.195963e+00 
4.764450e+00 8.096323e+00 
4.799530e+00 7.996502e+00 
4.834910e+00 7.897715e+00 
4.869700e+00 7.801738e+00 
4.904370e+00 7.707734e+00 
4.939450e+00 7.614213e+00 
4.973940e+00 7.523563e+00 
5.008430e+00 7.434528e+00 
5.043810e+00 7.344486e+00 
5.078840e+00 7.256734e+00 
5.113500e+00 7.171446e+00 
5.148890e+00 7.085425e+00 
5.184210e+00 7.001076e+00 
5.219060e+00 6.919210e+00 
5.253660e+00 6.839054e+00 
5.288570e+00 6.759567e+00 
5.323420e+00 6.681348e+00 
5.358440e+00 6.603836e+00 
5.393590e+00 6.527361e+00 
5.428310e+00 6.452928e+00 
5.462800e+00 6.380128e+00 
5.497640e+00 6.307805e+00 
5.532670e+00 6.236047e+00 
5.567280e+00 6.166235e+00 
5.602000e+00 6.097341e+00 
5.637270e+00 6.028265e+00 
5.672410e+00 5.960515e+00 
5.707020e+00 5.894863e+00 
5.742040e+00 5.829313e+00 
5.777430e+00 5.764098e+00 
5.812210e+00 5.701032e+00 
5.846820e+00 5.639107e+00 
5.881610e+00 5.577794e+00 
5.916510e+00 5.517248e+00 
5.951600e+00 5.457203e+00 
5.986560e+00 5.398257e+00 
6.021830e+00 5.339709e+00 
6.056490e+00 5.282969e+00 
6.091160e+00 5.226998e+00 
6.125830e+00 5.171870e+00 
6.161090e+00 5.116615e+00 
6.195760e+00 5.063021e+00 
6.230420e+00 5.010238e+00 
6.265690e+00 4.957325e+00 
6.300950e+00 4.905155e+00 
6.335620e+00 4.854616e+00 
6.370880e+00 4.803971e+00 
6.405550e+00 4.754835e+00 
6.440220e+00 4.706380e+00 
6.475480e+00 4.657814e+00 
6.510150e+00 4.610736e+00 
6.544810e+00 4.564309e+00 
6.580080e+00 4.517739e+00 
6.614750e+00 4.472613e+00 
6.649410e+00 4.428084e+00 
6.684080e+00 4.384154e+00 
6.719340e+00 4.340104e+00 
6.754010e+00 4.297394e+00 
6.788680e+00 4.255273e+00 
6.823940e+00 4.213027e+00 
6.859800e+00 4.170664e+00 
6.894470e+00 4.130282e+00 
6.929140e+00 4.090451e+00 
6.963800e+00 4.051167e+00 
6.999070e+00 4.011731e+00 
7.033730e+00 3.973491e+00 
7.068400e+00 3.935747e+00 
7.103660e+00 3.897873e+00 
7.138330e+00 3.861130e+00 
7.173600e+00 3.824250e+00 
7.208260e+00 3.788485e+00 
7.243530e+00 3.752567e+00 
7.277600e+00 3.718343e+00 
7.312860e+00 3.683400e+00 
7.348120e+00 3.648912e+00 
7.382790e+00 3.615438e+00 
7.417460e+00 3.582396e+00 
7.452720e+00 3.549223e+00 
7.487390e+00 3.517020e+00 
7.522650e+00 3.484684e+00 
7.557320e+00 3.453326e+00 
7.591990e+00 3.422372e+00 
7.627250e+00 3.391284e+00 
7.662510e+00 3.360586e+00 
7.697180e+00 3.330827e+00 
7.731850e+00 3.301451e+00 
7.766510e+00 3.272441e+00 
7.801180e+00 3.243774e+00 
7.836440e+00 3.215001e+00 
7.871110e+00 3.187069e+00 
7.906380e+00 3.158997e+00 
7.941040e+00 3.131742e+00 
7.976310e+00 3.104367e+00 
8.011570e+00 3.077360e+00 
8.046240e+00 3.051120e+00 
8.080900e+00 3.025196e+00 
8.115570e+00 2.999583e+00 
8.150830e+00 2.973894e+00 
8.185500e+00 2.948931e+00 
8.220770e+00 2.923831e+00 
8.255430e+00 2.899452e+00 
8.290100e+00 2.875407e+00 
8.324770e+00 2.851644e+00 
8.359430e+00 2.828158e+00 
8.394700e+00 2.804531e+00 
8.429960e+00 2.781212e+00 
8.464630e+00 2.758572e+00 
8.499890e+00 2.735807e+00 
8.534560e+00 2.713674e+00 
8.569200e+00 2.691806e+00 
