# Parameters:
# omega_b = 0.022193, omega_m = 0.124409, n_s = 0.924016, h = 79.094488, w = -1.000000, sigma_8 = 0.794488
# z = 1.900000
#
# k[1/Mpc] # P(k):
8.694000e-04 4.957661e+03 
2.077466e-03 1.006959e+04 
3.285532e-03 1.380109e+04 
4.493598e-03 1.647752e+04 
5.701664e-03 1.830812e+04 
6.909730e-03 1.946694e+04 
8.117797e-03 2.012468e+04 
9.325863e-03 2.036973e+04 
1.053393e-02 2.028450e+04 
1.174199e-02 1.994180e+04 
1.295006e-02 1.938853e+04 
1.415813e-02 1.868438e+04 
1.536619e-02 1.787823e+04 
1.657426e-02 1.700308e+04 
1.778233e-02 1.608866e+04 
1.899039e-02 1.517656e+04 
2.019846e-02 1.428836e+04 
2.140652e-02 1.344129e+04 
2.261459e-02 1.264454e+04 
2.382266e-02 1.190810e+04 
2.503072e-02 1.123736e+04 
2.623879e-02 1.063235e+04 
2.744685e-02 1.009279e+04 
2.865492e-02 9.615058e+03 
2.986299e-02 9.193849e+03 
3.100100e-02 8.846578e+03 
3.220400e-02 8.525168e+03 
3.288100e-02 8.364110e+03 
3.424300e-02 8.075115e+03 
3.555100e-02 7.833938e+03 
3.686000e-02 7.621644e+03 
3.795000e-02 7.461533e+03 
3.929100e-02 7.279852e+03 
4.039800e-02 7.136786e+03 
4.164000e-02 6.980312e+03 
4.294400e-02 6.812321e+03 
4.415000e-02 6.654830e+03 
4.542900e-02 6.477180e+03 
4.660900e-02 6.308139e+03 
4.782300e-02 6.120302e+03 
4.892900e-02 5.943961e+03 
5.031200e-02 5.714412e+03 
5.155900e-02 5.500004e+03 
5.238100e-02 5.356734e+03 
5.378200e-02 5.111418e+03 
5.513400e-02 4.875297e+03 
5.627600e-02 4.678838e+03 
5.735300e-02 4.498037e+03 
5.870100e-02 4.279497e+03 
5.988700e-02 4.096338e+03 
6.113500e-02 3.913966e+03 
6.225900e-02 3.760506e+03 
6.340100e-02 3.616346e+03 
6.480200e-02 3.455490e+03 
6.601100e-02 3.333190e+03 
6.725500e-02 3.222466e+03 
6.829100e-02 3.142599e+03 
6.958600e-02 3.054535e+03 
7.071100e-02 2.989129e+03 
7.192300e-02 2.927910e+03 
7.307400e-02 2.877370e+03 
7.412300e-02 2.836607e+03 
7.550400e-02 2.789597e+03 
7.663100e-02 2.754854e+03 
7.791200e-02 2.718514e+03 
7.912700e-02 2.685145e+03 
8.027600e-02 2.653501e+03 
8.138400e-02 2.622331e+03 
8.272200e-02 2.582884e+03 
8.406100e-02 2.540702e+03 
8.534100e-02 2.496231e+03 
8.653800e-02 2.450865e+03 
8.759800e-02 2.408557e+03 
8.900300e-02 2.349036e+03 
9.009000e-02 2.300163e+03 
9.113300e-02 2.250953e+03 
9.239600e-02 2.190273e+03 
9.358000e-02 2.131938e+03 
9.496100e-02 2.062515e+03 
9.608400e-02 2.006511e+03 
9.727500e-02 1.948015e+03 
9.852600e-02 1.887410e+03 
9.973800e-02 1.831013e+03 
1.009000e-01 1.779001e+03 
1.020900e-01 1.729245e+03 
1.034000e-01 1.677798e+03 
1.046000e-01 1.633805e+03 
1.057200e-01 1.597313e+03 
1.069100e-01 1.561014e+03 
1.082500e-01 1.525403e+03 
1.093900e-01 1.498675e+03 
1.105400e-01 1.473967e+03 
1.116900e-01 1.453429e+03 
1.129600e-01 1.432488e+03 
1.142000e-01 1.415358e+03 
1.153300e-01 1.400919e+03 
1.166400e-01 1.385818e+03 
1.177800e-01 1.373400e+03 
1.190000e-01 1.360623e+03 
1.201200e-01 1.348413e+03 
1.213400e-01 1.335296e+03 
1.227100e-01 1.318556e+03 
1.238900e-01 1.303843e+03 
1.250700e-01 1.287277e+03 
1.263200e-01 1.269179e+03 
1.275500e-01 1.249660e+03 
1.287500e-01 1.229993e+03 
1.299900e-01 1.208459e+03 
1.311300e-01 1.188303e+03 
1.323500e-01 1.166002e+03 
1.335900e-01 1.143373e+03 
1.347100e-01 1.122725e+03 
1.359800e-01 1.099714e+03 
1.372100e-01 1.077639e+03 
1.384300e-01 1.056355e+03 
1.395700e-01 1.037073e+03 
1.407700e-01 1.017328e+03 
1.420300e-01 9.977493e+02 
1.432800e-01 9.788122e+02 
1.444500e-01 9.624996e+02 
1.456300e-01 9.464173e+02 
1.468900e-01 9.305515e+02 
1.480500e-01 9.165387e+02 
1.491700e-01 9.037728e+02 
1.503800e-01 8.908823e+02 
1.516400e-01 8.779386e+02 
1.528200e-01 8.669139e+02 
1.540200e-01 8.559229e+02 
1.551900e-01 8.460330e+02 
1.564300e-01 8.359037e+02 
1.576600e-01 8.262642e+02 
1.588700e-01 8.172168e+02 
1.600900e-01 8.082713e+02 
1.612700e-01 7.998748e+02 
1.625400e-01 7.910064e+02 
1.637600e-01 7.824947e+02 
1.649500e-01 7.742537e+02 
1.662200e-01 7.655421e+02 
1.674000e-01 7.571604e+02 
1.685000e-01 7.494800e+02 
1.697500e-01 7.405710e+02 
1.710300e-01 7.312881e+02 
1.722200e-01 7.228168e+02 
1.734400e-01 7.136363e+02 
1.746400e-01 7.047440e+02 
1.758700e-01 6.956292e+02 
1.770900e-01 6.864170e+02 
1.782700e-01 6.776689e+02 
1.794600e-01 6.688244e+02 
1.807000e-01 6.596569e+02 
1.819100e-01 6.508766e+02 
1.830100e-01 6.430061e+02 
1.842200e-01 6.344936e+02 
1.855000e-01 6.256624e+02 
1.867000e-01 6.176989e+02 
1.879200e-01 6.097453e+02 
1.890900e-01 6.022980e+02 
1.902800e-01 5.951024e+02 
1.915200e-01 5.877326e+02 
1.926900e-01 5.809785e+02 
1.939000e-01 5.743762e+02 
1.951700e-01 5.675628e+02 
1.963100e-01 5.616293e+02 
1.975100e-01 5.557027e+02 
1.987800e-01 5.495317e+02 
2.000100e-01 5.437191e+02 
2.012500e-01 5.381078e+02 
2.023400e-01 5.332483e+02 
2.036100e-01 5.276918e+02 
2.048900e-01 5.222634e+02 
2.060400e-01 5.174598e+02 
2.072200e-01 5.126014e+02 
2.084200e-01 5.077294e+02 
2.096900e-01 5.026508e+02 
2.109200e-01 4.978068e+02 
2.121100e-01 4.931135e+02 
2.132700e-01 4.885995e+02 
2.145200e-01 4.838056e+02 
2.157200e-01 4.791937e+02 
2.168800e-01 4.747629e+02 
2.180700e-01 4.702811e+02 
2.193400e-01 4.655283e+02 
2.206000e-01 4.608107e+02 
2.217500e-01 4.565662e+02 
2.229500e-01 4.521983e+02 
2.241400e-01 4.478458e+02 
2.253500e-01 4.434803e+02 
2.264900e-01 4.394236e+02 
2.277100e-01 4.351246e+02 
2.289900e-01 4.306603e+02 
2.301500e-01 4.266713e+02 
2.313600e-01 4.225670e+02 
2.325600e-01 4.185549e+02 
2.337700e-01 4.145647e+02 
2.350000e-01 4.105644e+02 
2.362000e-01 4.067317e+02 
2.374100e-01 4.029386e+02 
2.386500e-01 3.991043e+02 
2.399100e-01 3.952620e+02 
2.410400e-01 3.919102e+02 
2.422500e-01 3.883730e+02 
2.435000e-01 3.847674e+02 
2.447300e-01 3.812784e+02 
2.458700e-01 3.781315e+02 
2.470600e-01 3.748872e+02 
2.483300e-01 3.714697e+02 
2.495600e-01 3.682269e+02 
2.507600e-01 3.651354e+02 
2.519600e-01 3.620823e+02 
2.532200e-01 3.589171e+02 
2.543700e-01 3.560891e+02 
2.555500e-01 3.532388e+02 
2.568000e-01 3.502564e+02 
2.580100e-01 3.474053e+02 
2.592400e-01 3.445585e+02 
2.604100e-01 3.418899e+02 
2.616100e-01 3.391851e+02 
2.628400e-01 3.364459e+02 
2.640600e-01 3.337711e+02 
2.652200e-01 3.312611e+02 
2.664300e-01 3.286731e+02 
2.676500e-01 3.260945e+02 
2.688400e-01 3.236079e+02 
2.700700e-01 3.210674e+02 
2.712400e-01 3.186785e+02 
2.724800e-01 3.161757e+02 
2.736700e-01 3.137976e+02 
2.748800e-01 3.114029e+02 
2.761000e-01 3.090161e+02 
2.773200e-01 3.066565e+02 
2.785400e-01 3.043205e+02 
2.797000e-01 3.021172e+02 
2.808900e-01 2.998816e+02 
2.821400e-01 2.975598e+02 
2.833900e-01 2.952640e+02 
2.845500e-01 2.931449e+02 
2.857800e-01 2.909225e+02 
2.870300e-01 2.886894e+02 
2.882100e-01 2.866045e+02 
2.893900e-01 2.845366e+02 
2.906300e-01 2.823844e+02 
2.918900e-01 2.802220e+02 
2.930500e-01 2.782528e+02 
2.942500e-01 2.762354e+02 
2.954200e-01 2.742842e+02 
2.966500e-01 2.722548e+02 
2.978900e-01 2.702310e+02 
2.990400e-01 2.683739e+02 
3.002700e-01 2.664071e+02 
3.015100e-01 2.644450e+02 
3.026800e-01 2.626131e+02 
3.038500e-01 2.607997e+02 
3.050300e-01 2.589893e+02 
3.062600e-01 2.571215e+02 
3.075000e-01 2.552583e+02 
3.087000e-01 2.534740e+02 
3.099100e-01 2.516932e+02 
3.111200e-01 2.499320e+02 
3.123100e-01 2.482198e+02 
3.135300e-01 2.464822e+02 
3.147300e-01 2.447904e+02 
3.159900e-01 2.430322e+02 
3.171800e-01 2.413928e+02 
3.183700e-01 2.397721e+02 
3.196300e-01 2.380735e+02 
3.208400e-01 2.364587e+02 
3.220300e-01 2.348863e+02 
3.232000e-01 2.333604e+02 
3.244300e-01 2.317741e+02 
3.256700e-01 2.301908e+02 
3.269200e-01 2.286107e+02 
3.280800e-01 2.271585e+02 
3.292500e-01 2.257145e+02 
3.304800e-01 2.242131e+02 
3.317100e-01 2.227264e+02 
3.328900e-01 2.213136e+02 
3.340700e-01 2.199140e+02 
3.353600e-01 2.184053e+02 
3.365300e-01 2.170525e+02 
3.377100e-01 2.157007e+02 
3.389200e-01 2.143273e+02 
3.401600e-01 2.129331e+02 
3.413700e-01 2.115916e+02 
3.425300e-01 2.103214e+02 
3.437700e-01 2.089760e+02 
3.449800e-01 2.076754e+02 
3.461800e-01 2.063973e+02 
3.473600e-01 2.051541e+02 
3.485800e-01 2.038861e+02 
3.498100e-01 2.026194e+02 
3.510200e-01 2.013846e+02 
3.522000e-01 2.001911e+02 
3.533900e-01 1.989980e+02 
3.546400e-01 1.977644e+02 
3.558400e-01 1.965912e+02 
3.570600e-01 1.954090e+02 
3.582700e-01 1.942469e+02 
3.595000e-01 1.930761e+02 
3.607100e-01 1.919386e+02 
3.618900e-01 1.908420e+02 
3.631200e-01 1.897088e+02 
3.643200e-01 1.886130e+02 
3.655500e-01 1.874994e+02 
3.667300e-01 1.864403e+02 
3.679500e-01 1.853613e+02 
3.691900e-01 1.842741e+02 
3.703600e-01 1.832570e+02 
3.715700e-01 1.822139e+02 
3.727700e-01 1.811882e+02 
3.739900e-01 1.801558e+02 
3.752000e-01 1.791438e+02 
3.763900e-01 1.781567e+02 
3.775800e-01 1.771778e+02 
3.788200e-01 1.761662e+02 
3.800300e-01 1.751874e+02 
3.812100e-01 1.742435e+02 
3.824200e-01 1.732856e+02 
3.836100e-01 1.723511e+02 
3.848600e-01 1.713776e+02 
3.860400e-01 1.704662e+02 
3.872400e-01 1.695467e+02 
3.884600e-01 1.686226e+02 
3.896500e-01 1.677298e+02 
3.908700e-01 1.668217e+02 
3.920600e-01 1.659430e+02 
3.933100e-01 1.650275e+02 
3.945300e-01 1.641413e+02 
3.957200e-01 1.632866e+02 
3.969300e-01 1.624252e+02 
3.981700e-01 1.615495e+02 
3.993500e-01 1.607228e+02 
4.094840e-01 1.538947e+02 
4.272360e-01 1.430254e+02 
4.454600e-01 1.331147e+02 
4.630560e-01 1.245790e+02 
4.804610e-01 1.170039e+02 
4.980690e-01 1.101074e+02 
5.159230e-01 1.037999e+02 
5.317440e-01 9.871420e+01 
5.489640e-01 9.365743e+01 
5.671990e-01 8.878417e+01 
5.838690e-01 8.470191e+01 
6.018840e-01 8.065162e+01 
6.202330e-01 7.687075e+01 
6.379250e-01 7.350734e+01 
6.545410e-01 7.058595e+01 
6.714560e-01 6.781574e+01 
6.892080e-01 6.511100e+01 
7.066010e-01 6.264525e+01 
7.240540e-01 6.033332e+01 
7.420450e-01 5.810899e+01 
7.593780e-01 5.610390e+01 
7.764720e-01 5.424584e+01 
7.942840e-01 5.242656e+01 
8.116170e-01 5.076229e+01 
8.288310e-01 4.920413e+01 
8.462240e-01 4.771707e+01 
8.631980e-01 4.634517e+01 
8.810700e-01 4.497860e+01 
8.989410e-01 4.368577e+01 
9.166330e-01 4.247286e+01 
9.345640e-01 4.130766e+01 
9.515980e-01 4.025522e+01 
9.688720e-01 3.923901e+01 
9.865640e-01 3.824853e+01 
1.031870e+00 3.591420e+01 
1.063490e+00 3.444060e+01 
1.097920e+00 3.296329e+01 
1.134370e+00 3.152432e+01 
1.167730e+00 3.030875e+01 
1.203830e+00 2.909088e+01 
1.240470e+00 2.794552e+01 
1.275790e+00 2.691992e+01 
1.309140e+00 2.601473e+01 
1.342970e+00 2.515312e+01 
1.378420e+00 2.430572e+01 
1.413200e+00 2.352493e+01 
1.448110e+00 2.278669e+01 
1.484090e+00 2.206889e+01 
1.518820e+00 2.141505e+01 
1.552880e+00 2.080721e+01 
1.588630e+00 2.020218e+01 
1.623230e+00 1.964603e+01 
1.657720e+00 1.911911e+01 
1.692450e+00 1.861335e+01 
1.726400e+00 1.814193e+01 
1.762200e+00 1.766697e+01 
1.797880e+00 1.721518e+01 
1.833270e+00 1.678692e+01 
1.869070e+00 1.637251e+01 
1.903200e+00 1.599366e+01 
1.937740e+00 1.562578e+01 
1.973190e+00 1.526304e+01 
2.007440e+00 1.492627e+01 
2.042160e+00 1.459762e+01 
2.077900e+00 1.427208e+01 
2.112390e+00 1.396983e+01 
2.146220e+00 1.368346e+01 
2.181600e+00 1.339454e+01 
2.216930e+00 1.311595e+01 
2.250760e+00 1.285825e+01 
2.286500e+00 1.259523e+01 
2.321770e+00 1.234442e+01 
2.355950e+00 1.210890e+01 
2.391280e+00 1.187322e+01 
2.426240e+00 1.164720e+01 
2.460670e+00 1.143149e+01 
2.495640e+00 1.121924e+01 
2.531080e+00 1.101027e+01 
2.566220e+00 1.080912e+01 
2.600830e+00 1.061680e+01 
2.635080e+00 1.043195e+01 
2.670340e+00 1.024680e+01 
2.705970e+00 1.006491e+01 
2.740040e+00 9.895779e+00 
2.774520e+00 9.729057e+00 
2.809730e+00 9.563181e+00 
2.844390e+00 9.404323e+00 
2.879960e+00 9.245541e+00 
2.914860e+00 9.093562e+00 
2.949410e+00 8.947005e+00 
2.984440e+00 8.801912e+00 
3.019760e+00 8.659294e+00 
3.054730e+00 8.521745e+00 
3.089030e+00 8.389579e+00 
3.124060e+00 8.257965e+00 
3.159560e+00 8.127773e+00 
3.194710e+00 8.001729e+00 
3.229010e+00 7.881741e+00 
3.263320e+00 7.763954e+00 
3.297930e+00 7.647978e+00 
3.332830e+00 7.533572e+00 
3.368040e+00 7.420643e+00 
3.403300e+00 7.310103e+00 
3.438450e+00 7.202125e+00 
3.473060e+00 7.098318e+00 
3.508440e+00 6.994012e+00 
3.543110e+00 6.894196e+00 
3.577470e+00 6.797057e+00 
3.613040e+00 6.698729e+00 
3.648120e+00 6.603558e+00 
3.682910e+00 6.511198e+00 
3.718050e+00 6.419704e+00 
3.753320e+00 6.329727e+00 
3.787980e+00 6.242917e+00 
3.822290e+00 6.158696e+00 
3.857020e+00 6.075010e+00 
3.891920e+00 5.992594e+00 
3.926650e+00 5.912033e+00 
3.961970e+00 5.831735e+00 
3.997360e+00 5.752616e+00 
4.031670e+00 5.677482e+00 
4.066330e+00 5.602797e+00 
4.101420e+00 5.528781e+00 
4.136200e+00 5.456424e+00 
4.170810e+00 5.385928e+00 
4.206250e+00 5.314850e+00 
4.241580e+00 5.245408e+00 
4.276300e+00 5.178289e+00 
4.310970e+00 5.112470e+00 
4.346120e+00 5.046921e+00 
4.380600e+00 4.983626e+00 
4.414730e+00 4.922194e+00 
4.450350e+00 4.858933e+00 
4.485320e+00 4.798066e+00 
4.519810e+00 4.738945e+00 
4.555430e+00 4.678965e+00 
4.590870e+00 4.620330e+00 
4.625480e+00 4.563901e+00 
4.659910e+00 4.508825e+00 
4.695230e+00 4.453094e+00 
4.729960e+00 4.399284e+00 
4.764450e+00 4.346733e+00 
4.799530e+00 4.294098e+00 
4.834910e+00 4.242003e+00 
4.869700e+00 4.191423e+00 
4.904370e+00 4.141884e+00 
4.939450e+00 4.092596e+00 
4.973940e+00 4.044822e+00 
5.008430e+00 3.997895e+00 
5.043810e+00 3.950446e+00 
5.078840e+00 3.904208e+00 
5.113500e+00 3.859263e+00 
5.148890e+00 3.813934e+00 
5.184210e+00 3.769482e+00 
5.219060e+00 3.726333e+00 
5.253660e+00 3.684083e+00 
5.288570e+00 3.642180e+00 
5.323420e+00 3.600952e+00 
5.358440e+00 3.560106e+00 
5.393590e+00 3.519800e+00 
5.428310e+00 3.480550e+00 
5.462800e+00 3.442148e+00 
5.497640e+00 3.403994e+00 
5.532670e+00 3.366137e+00 
5.567280e+00 3.329305e+00 
5.602000e+00 3.292952e+00 
5.637270e+00 3.256497e+00 
5.672410e+00 3.220738e+00 
5.707020e+00 3.186081e+00 
5.742040e+00 3.151465e+00 
5.777430e+00 3.117021e+00 
5.812210e+00 3.083707e+00 
5.846820e+00 3.050989e+00 
5.881610e+00 3.018591e+00 
5.916510e+00 2.986593e+00 
5.951600e+00 2.954852e+00 
5.986560e+00 2.923686e+00 
6.021830e+00 2.892727e+00 
6.056490e+00 2.862717e+00 
6.091160e+00 2.833109e+00 
6.125830e+00 2.803943e+00 
6.161090e+00 2.774703e+00 
6.195760e+00 2.746333e+00 
6.230420e+00 2.718390e+00 
6.265690e+00 2.690373e+00 
6.300950e+00 2.662735e+00 
6.335620e+00 2.635957e+00 
6.370880e+00 2.609119e+00 
6.405550e+00 2.583078e+00 
6.440220e+00 2.557396e+00 
6.475480e+00 2.531651e+00 
6.510150e+00 2.506690e+00 
6.544810e+00 2.482069e+00 
6.580080e+00 2.457370e+00 
6.614750e+00 2.433432e+00 
6.649410e+00 2.409806e+00 
6.684080e+00 2.386495e+00 
6.719340e+00 2.363117e+00 
6.754010e+00 2.340444e+00 
6.788680e+00 2.318072e+00 
6.823940e+00 2.295631e+00 
6.859800e+00 2.273125e+00 
6.894470e+00 2.251669e+00 
6.929140e+00 2.230503e+00 
6.963800e+00 2.209624e+00 
6.999070e+00 2.188662e+00 
7.033730e+00 2.168334e+00 
7.068400e+00 2.148267e+00 
7.103660e+00 2.128128e+00 
7.138330e+00 2.108587e+00 
7.173600e+00 2.088970e+00 
7.208260e+00 2.069943e+00 
7.243530e+00 2.050832e+00 
7.277600e+00 2.032621e+00 
7.312860e+00 2.014027e+00 
7.348120e+00 1.995673e+00 
7.382790e+00 1.977856e+00 
7.417460e+00 1.960268e+00 
7.452720e+00 1.942609e+00 
7.487390e+00 1.925464e+00 
7.522650e+00 1.908245e+00 
7.557320e+00 1.891550e+00 
7.591990e+00 1.875069e+00 
7.627250e+00 1.858515e+00 
7.662510e+00 1.842166e+00 
7.697180e+00 1.826314e+00 
7.731850e+00 1.810664e+00 
7.766510e+00 1.795207e+00 
7.801180e+00 1.779931e+00 
7.836440e+00 1.764599e+00 
7.871110e+00 1.749715e+00 
7.906380e+00 1.734754e+00 
7.941040e+00 1.720227e+00 
7.976310e+00 1.705636e+00 
8.011570e+00 1.691242e+00 
8.046240e+00 1.677254e+00 
8.080900e+00 1.663433e+00 
8.115570e+00 1.649777e+00 
8.150830e+00 1.636087e+00 
8.185500e+00 1.622781e+00 
8.220770e+00 1.609400e+00 
8.255430e+00 1.596401e+00 
8.290100e+00 1.583584e+00 
8.324770e+00 1.570915e+00 
8.359430e+00 1.558392e+00 
8.394700e+00 1.545792e+00 
8.429960e+00 1.533357e+00 
8.464630e+00 1.521288e+00 
8.499890e+00 1.509150e+00 
8.534560e+00 1.497346e+00 
8.569200e+00 1.485682e+00 
