# Parameters:
# omega_b = 0.023059, omega_m = 0.122205, n_s = 0.963386, h = 66.338583, w = -1.000000, sigma_8 = 0.838583
# z = 1.900000
#
# k[1/Mpc] # P(k):
8.694000e-04 5.382354e+03 
2.077466e-03 1.132343e+04 
3.285532e-03 1.577599e+04 
4.493598e-03 1.904630e+04 
5.701664e-03 2.132914e+04 
6.909730e-03 2.281328e+04 
8.117797e-03 2.369462e+04 
9.325863e-03 2.407349e+04 
1.053393e-02 2.404452e+04 
1.174199e-02 2.369277e+04 
1.295006e-02 2.307362e+04 
1.415813e-02 2.225934e+04 
1.536619e-02 2.131144e+04 
1.657426e-02 2.027286e+04 
1.778233e-02 1.918067e+04 
1.899039e-02 1.808670e+04 
2.019846e-02 1.701818e+04 
2.140652e-02 1.599742e+04 
2.261459e-02 1.503639e+04 
2.382266e-02 1.414778e+04 
2.503072e-02 1.333827e+04 
2.623879e-02 1.260816e+04 
2.744685e-02 1.195742e+04 
2.865492e-02 1.138200e+04 
2.986299e-02 1.087572e+04 
3.100100e-02 1.045968e+04 
3.220400e-02 1.007635e+04 
3.288100e-02 9.885328e+03 
3.424300e-02 9.544954e+03 
3.555100e-02 9.264066e+03 
3.686000e-02 9.020220e+03 
3.795000e-02 8.838708e+03 
3.929100e-02 8.635977e+03 
4.039800e-02 8.478118e+03 
4.164000e-02 8.306570e+03 
4.294400e-02 8.122799e+03 
4.415000e-02 7.949900e+03 
4.542900e-02 7.752949e+03 
4.660900e-02 7.563869e+03 
4.782300e-02 7.350544e+03 
4.892900e-02 7.148311e+03 
5.031200e-02 6.881909e+03 
5.155900e-02 6.629988e+03 
5.238100e-02 6.460482e+03 
5.378200e-02 6.168799e+03 
5.513400e-02 5.887577e+03 
5.627600e-02 5.654747e+03 
5.735300e-02 5.443069e+03 
5.870100e-02 5.192725e+03 
5.988700e-02 4.988956e+03 
6.113500e-02 4.792162e+03 
6.225900e-02 4.630975e+03 
6.340100e-02 4.481876e+03 
6.480200e-02 4.315788e+03 
6.601100e-02 4.187321e+03 
6.725500e-02 4.067326e+03 
6.829100e-02 3.977062e+03 
6.958600e-02 3.873691e+03 
7.071100e-02 3.793324e+03 
7.192300e-02 3.715228e+03 
7.307400e-02 3.648511e+03 
7.412300e-02 3.593257e+03 
7.550400e-02 3.527871e+03 
7.663100e-02 3.478830e+03 
7.791200e-02 3.427163e+03 
7.912700e-02 3.380113e+03 
8.027600e-02 3.336173e+03 
8.138400e-02 3.293664e+03 
8.272200e-02 3.241120e+03 
8.406100e-02 3.186345e+03 
8.534100e-02 3.130165e+03 
8.653800e-02 3.073995e+03 
8.759800e-02 3.022215e+03 
8.900300e-02 2.950183e+03 
9.009000e-02 2.891592e+03 
9.113300e-02 2.832955e+03 
9.239600e-02 2.760873e+03 
9.358000e-02 2.691777e+03 
9.496100e-02 2.609706e+03 
9.608400e-02 2.543495e+03 
9.727500e-02 2.474299e+03 
9.852600e-02 2.402506e+03 
9.973800e-02 2.335525e+03 
1.009000e-01 2.273601e+03 
1.020900e-01 2.213990e+03 
1.034000e-01 2.152063e+03 
1.046000e-01 2.098818e+03 
1.057200e-01 2.054076e+03 
1.069100e-01 2.009309e+03 
1.082500e-01 1.964624e+03 
1.093900e-01 1.930517e+03 
1.105400e-01 1.898630e+03 
1.116900e-01 1.871229e+03 
1.129600e-01 1.842949e+03 
1.142000e-01 1.818926e+03 
1.153300e-01 1.798373e+03 
1.166400e-01 1.776381e+03 
1.177800e-01 1.758100e+03 
1.190000e-01 1.739189e+03 
1.201200e-01 1.721427e+03 
1.213400e-01 1.702390e+03 
1.227100e-01 1.679105e+03 
1.238900e-01 1.658885e+03 
1.250700e-01 1.636912e+03 
1.263200e-01 1.613226e+03 
1.275500e-01 1.588348e+03 
1.287500e-01 1.563603e+03 
1.299900e-01 1.536984e+03 
1.311300e-01 1.512307e+03 
1.323500e-01 1.485343e+03 
1.335900e-01 1.458143e+03 
1.347100e-01 1.433536e+03 
1.359800e-01 1.406180e+03 
1.372100e-01 1.380092e+03 
1.384300e-01 1.354948e+03 
1.395700e-01 1.332226e+03 
1.407700e-01 1.308931e+03 
1.420300e-01 1.285783e+03 
1.432800e-01 1.263371e+03 
1.444500e-01 1.243894e+03 
1.456300e-01 1.224676e+03 
1.468900e-01 1.205479e+03 
1.480500e-01 1.188444e+03 
1.491700e-01 1.172757e+03 
1.503800e-01 1.156699e+03 
1.516400e-01 1.140489e+03 
1.528200e-01 1.126325e+03 
1.540200e-01 1.112203e+03 
1.551900e-01 1.099166e+03 
1.564300e-01 1.085729e+03 
1.576600e-01 1.072803e+03 
1.588700e-01 1.060501e+03 
1.600900e-01 1.048332e+03 
1.612700e-01 1.036780e+03 
1.625400e-01 1.024581e+03 
1.637600e-01 1.012924e+03 
1.649500e-01 1.001668e+03 
1.662200e-01 9.898097e+02 
1.674000e-01 9.786103e+02 
1.685000e-01 9.683493e+02 
1.697500e-01 9.566219e+02 
1.710300e-01 9.445692e+02 
1.722200e-01 9.335706e+02 
1.734400e-01 9.219853e+02 
1.746400e-01 9.107749e+02 
1.758700e-01 8.993686e+02 
1.770900e-01 8.880103e+02 
1.782700e-01 8.772202e+02 
1.794600e-01 8.664039e+02 
1.807000e-01 8.552509e+02 
1.819100e-01 8.445636e+02 
1.830100e-01 8.350238e+02 
1.842200e-01 8.247081e+02 
1.855000e-01 8.139988e+02 
1.867000e-01 8.043029e+02 
1.879200e-01 7.946143e+02 
1.890900e-01 7.855226e+02 
1.902800e-01 7.766542e+02 
1.915200e-01 7.675675e+02 
1.926900e-01 7.592078e+02 
1.939000e-01 7.509384e+02 
1.951700e-01 7.424024e+02 
1.963100e-01 7.349351e+02 
1.975100e-01 7.273892e+02 
1.987800e-01 7.195308e+02 
2.000100e-01 7.121020e+02 
2.012500e-01 7.048690e+02 
2.023400e-01 6.986045e+02 
2.036100e-01 6.914326e+02 
2.048900e-01 6.843922e+02 
2.060400e-01 6.781619e+02 
2.072200e-01 6.718607e+02 
2.084200e-01 6.655479e+02 
2.096900e-01 6.589671e+02 
2.109200e-01 6.526898e+02 
2.121100e-01 6.466408e+02 
2.132700e-01 6.408240e+02 
2.145200e-01 6.346461e+02 
2.157200e-01 6.287319e+02 
2.168800e-01 6.230626e+02 
2.180700e-01 6.173273e+02 
2.193400e-01 6.112563e+02 
2.206000e-01 6.052509e+02 
2.217500e-01 5.998470e+02 
2.229500e-01 5.942850e+02 
2.241400e-01 5.887546e+02 
2.253500e-01 5.832070e+02 
2.264900e-01 5.780509e+02 
2.277100e-01 5.725794e+02 
2.289900e-01 5.668894e+02 
2.301500e-01 5.618045e+02 
2.313600e-01 5.565713e+02 
2.325600e-01 5.514226e+02 
2.337700e-01 5.463014e+02 
2.350000e-01 5.411665e+02 
2.362000e-01 5.362248e+02 
2.374100e-01 5.313085e+02 
2.386500e-01 5.263384e+02 
2.399100e-01 5.213574e+02 
2.410400e-01 5.169712e+02 
2.422500e-01 5.123369e+02 
2.435000e-01 5.076130e+02 
2.447300e-01 5.030339e+02 
2.458700e-01 4.988731e+02 
2.470600e-01 4.945836e+02 
2.483300e-01 4.900652e+02 
2.495600e-01 4.857677e+02 
2.507600e-01 4.816573e+02 
2.519600e-01 4.775980e+02 
2.532200e-01 4.733899e+02 
2.543700e-01 4.696278e+02 
2.555500e-01 4.658346e+02 
2.568000e-01 4.618658e+02 
2.580100e-01 4.580717e+02 
2.592400e-01 4.542926e+02 
2.604100e-01 4.507542e+02 
2.616100e-01 4.471677e+02 
2.628400e-01 4.435357e+02 
2.640600e-01 4.400069e+02 
2.652200e-01 4.367027e+02 
2.664300e-01 4.332957e+02 
2.676500e-01 4.299009e+02 
2.688400e-01 4.266452e+02 
2.700700e-01 4.233296e+02 
2.712400e-01 4.202118e+02 
2.724800e-01 4.169452e+02 
2.736700e-01 4.138550e+02 
2.748800e-01 4.107571e+02 
2.761000e-01 4.076690e+02 
2.773200e-01 4.046160e+02 
2.785400e-01 4.016007e+02 
2.797000e-01 3.987715e+02 
2.808900e-01 3.959005e+02 
2.821400e-01 3.929184e+02 
2.833900e-01 3.899703e+02 
2.845500e-01 3.872646e+02 
2.857800e-01 3.844266e+02 
2.870300e-01 3.815746e+02 
2.882100e-01 3.789116e+02 
2.893900e-01 3.762773e+02 
2.906300e-01 3.735391e+02 
2.918900e-01 3.707876e+02 
2.930500e-01 3.682814e+02 
2.942500e-01 3.657152e+02 
2.954200e-01 3.632372e+02 
2.966500e-01 3.606595e+02 
2.978900e-01 3.580886e+02 
2.990400e-01 3.557290e+02 
3.002700e-01 3.532310e+02 
3.015100e-01 3.507393e+02 
3.026800e-01 3.484125e+02 
3.038500e-01 3.461089e+02 
3.050300e-01 3.438087e+02 
3.062600e-01 3.414346e+02 
3.075000e-01 3.390662e+02 
3.087000e-01 3.367976e+02 
3.099100e-01 3.345331e+02 
3.111200e-01 3.322922e+02 
3.123100e-01 3.301115e+02 
3.135300e-01 3.278981e+02 
3.147300e-01 3.257427e+02 
3.159900e-01 3.235023e+02 
3.171800e-01 3.214106e+02 
3.183700e-01 3.193412e+02 
3.196300e-01 3.171719e+02 
3.208400e-01 3.151094e+02 
3.220300e-01 3.131005e+02 
3.232000e-01 3.111482e+02 
3.244300e-01 3.091171e+02 
3.256700e-01 3.070895e+02 
3.269200e-01 3.050658e+02 
3.280800e-01 3.032056e+02 
3.292500e-01 3.013527e+02 
3.304800e-01 2.994251e+02 
3.317100e-01 2.975160e+02 
3.328900e-01 2.957016e+02 
3.340700e-01 2.939038e+02 
3.353600e-01 2.919632e+02 
3.365300e-01 2.902221e+02 
3.377100e-01 2.884818e+02 
3.389200e-01 2.867137e+02 
3.401600e-01 2.849185e+02 
3.413700e-01 2.831893e+02 
3.425300e-01 2.815507e+02 
3.437700e-01 2.798149e+02 
3.449800e-01 2.781367e+02 
3.461800e-01 2.764873e+02 
3.473600e-01 2.748822e+02 
3.485800e-01 2.732437e+02 
3.498100e-01 2.716066e+02 
3.510200e-01 2.700106e+02 
3.522000e-01 2.684678e+02 
3.533900e-01 2.669255e+02 
3.546400e-01 2.653296e+02 
3.558400e-01 2.638117e+02 
3.570600e-01 2.622820e+02 
3.582700e-01 2.607781e+02 
3.595000e-01 2.592627e+02 
3.607100e-01 2.577903e+02 
3.618900e-01 2.563708e+02 
3.631200e-01 2.549039e+02 
3.643200e-01 2.534849e+02 
3.655500e-01 2.520430e+02 
3.667300e-01 2.506714e+02 
3.679500e-01 2.492744e+02 
3.691900e-01 2.478667e+02 
3.703600e-01 2.465496e+02 
3.715700e-01 2.451987e+02 
3.727700e-01 2.438700e+02 
3.739900e-01 2.425332e+02 
3.752000e-01 2.412234e+02 
3.763900e-01 2.399457e+02 
3.775800e-01 2.386784e+02 
3.788200e-01 2.373687e+02 
3.800300e-01 2.361013e+02 
3.812100e-01 2.348800e+02 
3.824200e-01 2.336409e+02 
3.836100e-01 2.324321e+02 
3.848600e-01 2.311727e+02 
3.860400e-01 2.299933e+02 
3.872400e-01 2.288035e+02 
3.884600e-01 2.276090e+02 
3.896500e-01 2.264551e+02 
3.908700e-01 2.252815e+02 
3.920600e-01 2.241458e+02 
3.933100e-01 2.229623e+02 
3.945300e-01 2.218164e+02 
3.957200e-01 2.207131e+02 
3.969300e-01 2.196015e+02 
3.981700e-01 2.184712e+02 
3.993500e-01 2.174041e+02 
4.094840e-01 2.085918e+02 
4.272360e-01 1.945969e+02 
4.454600e-01 1.818460e+02 
4.630560e-01 1.708619e+02 
4.804610e-01 1.610997e+02 
4.980690e-01 1.521905e+02 
5.159230e-01 1.440155e+02 
5.317440e-01 1.374009e+02 
5.489640e-01 1.307973e+02 
5.671990e-01 1.244089e+02 
5.838690e-01 1.190359e+02 
6.018840e-01 1.136884e+02 
6.202330e-01 1.086797e+02 
6.379250e-01 1.042105e+02 
6.545410e-01 1.003182e+02 
6.714560e-01 9.662092e+01 
6.892080e-01 9.300114e+01 
7.066010e-01 8.969629e+01 
7.240540e-01 8.659157e+01 
7.420450e-01 8.360020e+01 
7.593780e-01 8.090007e+01 
7.764720e-01 7.839448e+01 
7.942840e-01 7.593902e+01 
8.116170e-01 7.368910e+01 
8.288310e-01 7.158017e+01 
8.462240e-01 6.956449e+01 
8.631980e-01 6.770258e+01 
8.810700e-01 6.584530e+01 
8.989410e-01 6.408653e+01 
9.166330e-01 6.243284e+01 
9.345640e-01 6.084221e+01 
9.515980e-01 5.940401e+01 
9.688720e-01 5.801193e+01 
9.865640e-01 5.665326e+01 
1.031870e+00 5.343984e+01 
1.063490e+00 5.140267e+01 
1.097920e+00 4.935293e+01 
1.134370e+00 4.734713e+01 
1.167730e+00 4.564584e+01 
1.203830e+00 4.393346e+01 
1.240470e+00 4.231547e+01 
1.275790e+00 4.085992e+01 
1.309140e+00 3.957079e+01 
1.342970e+00 3.833589e+01 
1.378420e+00 3.711710e+01 
1.413200e+00 3.598919e+01 
1.448110e+00 3.491806e+01 
1.484090e+00 3.387199e+01 
1.518820e+00 3.291542e+01 
1.552880e+00 3.202207e+01 
1.588630e+00 3.112952e+01 
1.623230e+00 3.030542e+01 
1.657720e+00 2.952260e+01 
1.692450e+00 2.876788e+01 
1.726400e+00 2.806218e+01 
1.762200e+00 2.734847e+01 
1.797880e+00 2.666740e+01 
1.833270e+00 2.601955e+01 
1.869070e+00 2.539110e+01 
1.903200e+00 2.481424e+01 
1.937740e+00 2.425267e+01 
1.973190e+00 2.369772e+01 
2.007440e+00 2.318108e+01 
2.042160e+00 2.267538e+01 
2.077900e+00 2.217321e+01 
2.112390e+00 2.170636e+01 
2.146220e+00 2.126234e+01 
2.181600e+00 2.081376e+01 
2.216930e+00 2.037997e+01 
2.250760e+00 1.997803e+01 
2.286500e+00 1.956723e+01 
2.321770e+00 1.917467e+01 
2.355950e+00 1.880505e+01 
2.391280e+00 1.843472e+01 
2.426240e+00 1.807880e+01 
2.460670e+00 1.773869e+01 
2.495640e+00 1.740382e+01 
2.531080e+00 1.707350e+01 
2.566220e+00 1.675484e+01 
2.600830e+00 1.644975e+01 
2.635080e+00 1.615623e+01 
2.670340e+00 1.586212e+01 
2.705970e+00 1.557269e+01 
2.740040e+00 1.530325e+01 
2.774520e+00 1.503734e+01 
2.809730e+00 1.477252e+01 
2.844390e+00 1.451874e+01 
2.879960e+00 1.426491e+01 
2.914860e+00 1.402173e+01 
2.949410e+00 1.378707e+01 
2.984440e+00 1.355438e+01 
3.019760e+00 1.332564e+01 
3.054730e+00 1.310501e+01 
3.089030e+00 1.289272e+01 
3.124060e+00 1.268136e+01 
3.159560e+00 1.247232e+01 
3.194710e+00 1.226967e+01 
3.229010e+00 1.207671e+01 
3.263320e+00 1.188720e+01 
3.297930e+00 1.170058e+01 
3.332830e+00 1.151643e+01 
3.368040e+00 1.133466e+01 
3.403300e+00 1.115675e+01 
3.438450e+00 1.098290e+01 
3.473060e+00 1.081578e+01 
3.508440e+00 1.064781e+01 
3.543110e+00 1.048712e+01 
3.577470e+00 1.033078e+01 
3.613040e+00 1.017254e+01 
3.648120e+00 1.001933e+01 
3.682910e+00 9.870730e+00 
3.718050e+00 9.723658e+00 
3.753320e+00 9.578992e+00 
3.787980e+00 9.439345e+00 
3.822290e+00 9.303952e+00 
3.857020e+00 9.169526e+00 
3.891920e+00 9.037173e+00 
3.926650e+00 8.907822e+00 
3.961970e+00 8.778945e+00 
3.997360e+00 8.652023e+00 
4.031670e+00 8.531549e+00 
4.066330e+00 8.411893e+00 
4.101420e+00 8.293351e+00 
4.136200e+00 8.177526e+00 
4.170810e+00 8.064721e+00 
4.206250e+00 7.951110e+00 
4.241580e+00 7.840171e+00 
4.276300e+00 7.732994e+00 
4.310970e+00 7.627938e+00 
4.346120e+00 7.523387e+00 
4.380600e+00 7.422527e+00 
4.414730e+00 7.324675e+00 
4.450350e+00 7.223971e+00 
4.485320e+00 7.127118e+00 
4.519810e+00 7.033206e+00 
4.555430e+00 6.938021e+00 
4.590870e+00 6.845009e+00 
4.625480e+00 6.755527e+00 
4.659910e+00 6.668226e+00 
4.695230e+00 6.580025e+00 
4.729960e+00 6.494915e+00 
4.764450e+00 6.411885e+00 
4.799530e+00 6.328849e+00 
4.834910e+00 6.246699e+00 
4.869700e+00 6.166985e+00 
4.904370e+00 6.088947e+00 
4.939450e+00 6.011374e+00 
4.973940e+00 5.936315e+00 
5.008430e+00 5.862615e+00 
5.043810e+00 5.788173e+00 
5.078840e+00 5.715687e+00 
5.113500e+00 5.645256e+00 
5.148890e+00 5.574386e+00 
5.184210e+00 5.504921e+00 
5.219060e+00 5.437536e+00 
5.253660e+00 5.371626e+00 
5.288570e+00 5.306284e+00 
5.323420e+00 5.242052e+00 
5.358440e+00 5.178474e+00 
5.393590e+00 5.115765e+00 
5.428310e+00 5.054827e+00 
5.462800e+00 4.995285e+00 
5.497640e+00 4.936151e+00 
5.532670e+00 4.877540e+00 
5.567280e+00 4.820551e+00 
5.602000e+00 4.764327e+00 
5.637270e+00 4.708046e+00 
5.672410e+00 4.652880e+00 
5.707020e+00 4.599437e+00 
5.742040e+00 4.546157e+00 
5.777430e+00 4.493179e+00 
5.812210e+00 4.441959e+00 
5.846820e+00 4.391730e+00 
5.881610e+00 4.342024e+00 
5.916510e+00 4.292952e+00 
5.951600e+00 4.244356e+00 
5.986560e+00 4.196686e+00 
6.021830e+00 4.149350e+00 
6.056490e+00 4.103522e+00 
6.091160e+00 4.058355e+00 
6.125830e+00 4.013880e+00 
6.161090e+00 3.969330e+00 
6.195760e+00 3.926168e+00 
6.230420e+00 3.883670e+00 
6.265690e+00 3.841081e+00 
6.300950e+00 3.799173e+00 
6.335620e+00 3.758585e+00 
6.370880e+00 3.717922e+00 
6.405550e+00 3.678516e+00 
6.440220e+00 3.639681e+00 
6.475480e+00 3.600766e+00 
6.510150e+00 3.563068e+00 
6.544810e+00 3.525941e+00 
6.580080e+00 3.488707e+00 
6.614750e+00 3.452636e+00 
6.649410e+00 3.417086e+00 
6.684080e+00 3.382030e+00 
6.719340e+00 3.346884e+00 
6.754010e+00 3.312833e+00 
6.788680e+00 3.279295e+00 
6.823940e+00 3.245666e+00 
6.859800e+00 3.211949e+00 
6.894470e+00 3.179863e+00 
6.929140e+00 3.148236e+00 
6.963800e+00 3.117050e+00 
6.999070e+00 3.085752e+00 
7.033730e+00 3.055447e+00 
7.068400e+00 3.025540e+00 
7.103660e+00 2.995536e+00 
7.138330e+00 2.966443e+00 
7.173600e+00 2.937270e+00 
7.208260e+00 2.908984e+00 
7.243530e+00 2.880581e+00 
7.277600e+00 2.853553e+00 
7.312860e+00 2.825989e+00 
7.348120e+00 2.798789e+00 
7.382790e+00 2.772392e+00 
7.417460e+00 2.746367e+00 
7.452720e+00 2.720258e+00 
7.487390e+00 2.694916e+00 
7.522650e+00 2.669473e+00 
7.557320e+00 2.644829e+00 
7.591990e+00 2.620514e+00 
7.627250e+00 2.596099e+00 
7.662510e+00 2.571993e+00 
7.697180e+00 2.548658e+00 
7.731850e+00 2.525639e+00 
7.766510e+00 2.502910e+00 
7.801180e+00 2.480453e+00 
7.836440e+00 2.457945e+00 
7.871110e+00 2.436117e+00 
7.906380e+00 2.414181e+00 
7.941040e+00 2.392887e+00 
7.976310e+00 2.371516e+00 
8.011570e+00 2.350450e+00 
8.046240e+00 2.329986e+00 
8.080900e+00 2.309770e+00 
8.115570e+00 2.289805e+00 
8.150830e+00 2.269811e+00 
8.185500e+00 2.250383e+00 
8.220770e+00 2.230852e+00 
8.255430e+00 2.211882e+00 
8.290100e+00 2.193212e+00 
8.324770e+00 2.174766e+00 
8.359430e+00 2.156537e+00 
8.394700e+00 2.138200e+00 
8.429960e+00 2.120119e+00 
8.464630e+00 2.102582e+00 
8.499890e+00 2.084949e+00 
8.534560e+00 2.067808e+00 
8.569200e+00 2.050873e+00 
