# Parameters:
# omega_b = 0.022728, omega_m = 0.120827, n_s = 1.012205, h = 59.251969, w = -1.000000, sigma_8 = 0.742520
# z = 1.900000
#
# k[1/Mpc] # P(k):
8.694000e-04 3.771583e+03 
2.077466e-03 8.250246e+03 
3.285532e-03 1.173834e+04 
4.493598e-03 1.436987e+04 
5.701664e-03 1.626781e+04 
6.909730e-03 1.755258e+04 
8.117797e-03 1.836051e+04 
9.325863e-03 1.876318e+04 
1.053393e-02 1.883295e+04 
1.174199e-02 1.863783e+04 
1.295006e-02 1.822073e+04 
1.415813e-02 1.763850e+04 
1.536619e-02 1.694142e+04 
1.657426e-02 1.616433e+04 
1.778233e-02 1.533667e+04 
1.899039e-02 1.450027e+04 
2.019846e-02 1.367789e+04 
2.140652e-02 1.288845e+04 
2.261459e-02 1.214232e+04 
2.382266e-02 1.145067e+04 
2.503072e-02 1.081984e+04 
2.623879e-02 1.025089e+04 
2.744685e-02 9.744604e+03 
2.865492e-02 9.297854e+03 
2.986299e-02 8.905958e+03 
3.100100e-02 8.585385e+03 
3.220400e-02 8.291391e+03 
3.288100e-02 8.145539e+03 
3.424300e-02 7.886625e+03 
3.555100e-02 7.673601e+03 
3.686000e-02 7.488815e+03 
3.795000e-02 7.350917e+03 
3.929100e-02 7.195645e+03 
4.039800e-02 7.073350e+03 
4.164000e-02 6.938836e+03 
4.294400e-02 6.792040e+03 
4.415000e-02 6.652367e+03 
4.542900e-02 6.491241e+03 
4.660900e-02 6.335529e+03 
4.782300e-02 6.158648e+03 
4.892900e-02 5.990538e+03 
5.031200e-02 5.768743e+03 
5.155900e-02 5.558866e+03 
5.238100e-02 5.417762e+03 
5.378200e-02 5.175467e+03 
5.513400e-02 4.943314e+03 
5.627600e-02 4.753048e+03 
5.735300e-02 4.582426e+03 
5.870100e-02 4.384823e+03 
5.988700e-02 4.228139e+03 
6.113500e-02 4.080698e+03 
6.225900e-02 3.962509e+03 
6.340100e-02 3.854137e+03 
6.480200e-02 3.732620e+03 
6.601100e-02 3.636203e+03 
6.725500e-02 3.542949e+03 
6.829100e-02 3.469983e+03 
6.958600e-02 3.383827e+03 
7.071100e-02 3.314609e+03 
7.192300e-02 3.245740e+03 
7.307400e-02 3.185758e+03 
7.412300e-02 3.135413e+03 
7.550400e-02 3.075165e+03 
7.663100e-02 3.029762e+03 
7.791200e-02 2.981978e+03 
7.912700e-02 2.938875e+03 
8.027600e-02 2.899119e+03 
8.138400e-02 2.861165e+03 
8.272200e-02 2.815030e+03 
8.406100e-02 2.767770e+03 
8.534100e-02 2.720185e+03 
8.653800e-02 2.673214e+03 
8.759800e-02 2.630208e+03 
8.900300e-02 2.570751e+03 
9.009000e-02 2.522600e+03 
9.113300e-02 2.474496e+03 
9.239600e-02 2.415371e+03 
9.358000e-02 2.358658e+03 
9.496100e-02 2.291130e+03 
9.608400e-02 2.236494e+03 
9.727500e-02 2.179248e+03 
9.852600e-02 2.119484e+03 
9.973800e-02 2.063489e+03 
1.009000e-01 2.011522e+03 
1.020900e-01 1.960998e+03 
1.034000e-01 1.908222e+03 
1.046000e-01 1.862542e+03 
1.057200e-01 1.823627e+03 
1.069100e-01 1.784473e+03 
1.082500e-01 1.744767e+03 
1.093900e-01 1.714049e+03 
1.105400e-01 1.685076e+03 
1.116900e-01 1.659614e+03 
1.129600e-01 1.633146e+03 
1.142000e-01 1.610209e+03 
1.153300e-01 1.590486e+03 
1.166400e-01 1.569218e+03 
1.177800e-01 1.551599e+03 
1.190000e-01 1.533398e+03 
1.201200e-01 1.516689e+03 
1.213400e-01 1.498846e+03 
1.227100e-01 1.477811e+03 
1.238900e-01 1.459713e+03 
1.250700e-01 1.440572e+03 
1.263200e-01 1.420119e+03 
1.275500e-01 1.399017e+03 
1.287500e-01 1.378170e+03 
1.299900e-01 1.355957e+03 
1.311300e-01 1.335418e+03 
1.323500e-01 1.313056e+03 
1.335900e-01 1.290473e+03 
1.347100e-01 1.270017e+03 
1.359800e-01 1.247207e+03 
1.372100e-01 1.225332e+03 
1.384300e-01 1.204164e+03 
1.395700e-01 1.184852e+03 
1.407700e-01 1.165017e+03 
1.420300e-01 1.145016e+03 
1.432800e-01 1.125643e+03 
1.444500e-01 1.108506e+03 
1.456300e-01 1.091596e+03 
1.468900e-01 1.074500e+03 
1.480500e-01 1.059267e+03 
1.491700e-01 1.045156e+03 
1.503800e-01 1.030602e+03 
1.516400e-01 1.015892e+03 
1.528200e-01 1.002941e+03 
1.540200e-01 9.900310e+02 
1.551900e-01 9.780840e+02 
1.564300e-01 9.657649e+02 
1.576600e-01 9.539315e+02 
1.588700e-01 9.426893e+02 
1.600900e-01 9.315752e+02 
1.612700e-01 9.211150e+02 
1.625400e-01 9.100698e+02 
1.637600e-01 8.995931e+02 
1.649500e-01 8.895216e+02 
1.662200e-01 8.789308e+02 
1.674000e-01 8.690373e+02 
1.685000e-01 8.599726e+02 
1.697500e-01 8.496667e+02 
1.710300e-01 8.391276e+02 
1.722200e-01 8.295093e+02 
1.734400e-01 8.194507e+02 
1.746400e-01 8.097191e+02 
1.758700e-01 7.998260e+02 
1.770900e-01 7.899927e+02 
1.782700e-01 7.806498e+02 
1.794600e-01 7.712790e+02 
1.807000e-01 7.616125e+02 
1.819100e-01 7.523478e+02 
1.830100e-01 7.440460e+02 
1.842200e-01 7.350622e+02 
1.855000e-01 7.257318e+02 
1.867000e-01 7.172275e+02 
1.879200e-01 7.087286e+02 
1.890900e-01 7.007423e+02 
1.902800e-01 6.928982e+02 
1.915200e-01 6.848607e+02 
1.926900e-01 6.774522e+02 
1.939000e-01 6.700783e+02 
1.951700e-01 6.624667e+02 
1.963100e-01 6.557970e+02 
1.975100e-01 6.490271e+02 
1.987800e-01 6.419771e+02 
2.000100e-01 6.353064e+02 
2.012500e-01 6.287972e+02 
2.023400e-01 6.231597e+02 
2.036100e-01 6.167063e+02 
2.048900e-01 6.103732e+02 
2.060400e-01 6.047689e+02 
2.072200e-01 5.991024e+02 
2.084200e-01 5.934406e+02 
2.096900e-01 5.875386e+02 
2.109200e-01 5.819090e+02 
2.121100e-01 5.765049e+02 
2.132700e-01 5.713094e+02 
2.145200e-01 5.657913e+02 
2.157200e-01 5.605198e+02 
2.168800e-01 5.554716e+02 
2.180700e-01 5.503646e+02 
2.193400e-01 5.449606e+02 
2.206000e-01 5.396182e+02 
2.217500e-01 5.348108e+02 
2.229500e-01 5.298629e+02 
2.241400e-01 5.249337e+02 
2.253500e-01 5.199889e+02 
2.264900e-01 5.153932e+02 
2.277100e-01 5.105049e+02 
2.289900e-01 5.054086e+02 
2.301500e-01 5.008544e+02 
2.313600e-01 4.961673e+02 
2.325600e-01 4.915228e+02 
2.337700e-01 4.869033e+02 
2.350000e-01 4.822719e+02 
2.362000e-01 4.777985e+02 
2.374100e-01 4.733293e+02 
2.386500e-01 4.688115e+02 
2.399100e-01 4.642844e+02 
2.410400e-01 4.602710e+02 
2.422500e-01 4.560278e+02 
2.435000e-01 4.517032e+02 
2.447300e-01 4.475073e+02 
2.458700e-01 4.436773e+02 
2.470600e-01 4.397293e+02 
2.483300e-01 4.355715e+02 
2.495600e-01 4.316129e+02 
2.507600e-01 4.278209e+02 
2.519600e-01 4.240767e+02 
2.532200e-01 4.201960e+02 
2.543700e-01 4.167278e+02 
2.555500e-01 4.132318e+02 
2.568000e-01 4.095747e+02 
2.580100e-01 4.060792e+02 
2.592400e-01 4.026056e+02 
2.604100e-01 3.993571e+02 
2.616100e-01 3.960649e+02 
2.628400e-01 3.927315e+02 
2.640600e-01 3.895050e+02 
2.652200e-01 3.864888e+02 
2.664300e-01 3.833792e+02 
2.676500e-01 3.802812e+02 
2.688400e-01 3.773212e+02 
2.700700e-01 3.743139e+02 
2.712400e-01 3.714863e+02 
2.724800e-01 3.685240e+02 
2.736700e-01 3.657298e+02 
2.748800e-01 3.629371e+02 
2.761000e-01 3.601535e+02 
2.773200e-01 3.574017e+02 
2.785400e-01 3.546878e+02 
2.797000e-01 3.521497e+02 
2.808900e-01 3.495741e+02 
2.821400e-01 3.468991e+02 
2.833900e-01 3.442550e+02 
2.845500e-01 3.418362e+02 
2.857800e-01 3.392993e+02 
2.870300e-01 3.367500e+02 
2.882100e-01 3.343698e+02 
2.893900e-01 3.320182e+02 
2.906300e-01 3.295756e+02 
2.918900e-01 3.271211e+02 
2.930500e-01 3.248856e+02 
2.942500e-01 3.225970e+02 
2.954200e-01 3.203885e+02 
2.966500e-01 3.180910e+02 
2.978900e-01 3.157999e+02 
2.990400e-01 3.136970e+02 
3.002700e-01 3.114708e+02 
3.015100e-01 3.092502e+02 
3.026800e-01 3.071767e+02 
3.038500e-01 3.051239e+02 
3.050300e-01 3.030743e+02 
3.062600e-01 3.009573e+02 
3.075000e-01 2.988454e+02 
3.087000e-01 2.968226e+02 
3.099100e-01 2.948037e+02 
3.111200e-01 2.928051e+02 
3.123100e-01 2.908592e+02 
3.135300e-01 2.888843e+02 
3.147300e-01 2.869611e+02 
3.159900e-01 2.849622e+02 
3.171800e-01 2.830950e+02 
3.183700e-01 2.812470e+02 
3.196300e-01 2.793098e+02 
3.208400e-01 2.774681e+02 
3.220300e-01 2.756745e+02 
3.232000e-01 2.739303e+02 
3.244300e-01 2.721153e+02 
3.256700e-01 2.703036e+02 
3.269200e-01 2.684954e+02 
3.280800e-01 2.668335e+02 
3.292500e-01 2.651772e+02 
3.304800e-01 2.634539e+02 
3.317100e-01 2.617472e+02 
3.328900e-01 2.601253e+02 
3.340700e-01 2.585184e+02 
3.353600e-01 2.567835e+02 
3.365300e-01 2.552268e+02 
3.377100e-01 2.536710e+02 
3.389200e-01 2.520903e+02 
3.401600e-01 2.504856e+02 
3.413700e-01 2.489400e+02 
3.425300e-01 2.474755e+02 
3.437700e-01 2.459243e+02 
3.449800e-01 2.444246e+02 
3.461800e-01 2.429507e+02 
3.473600e-01 2.415167e+02 
3.485800e-01 2.400533e+02 
3.498100e-01 2.385913e+02 
3.510200e-01 2.371661e+02 
3.522000e-01 2.357884e+02 
3.533900e-01 2.344112e+02 
3.546400e-01 2.329873e+02 
3.558400e-01 2.316331e+02 
3.570600e-01 2.302685e+02 
3.582700e-01 2.289270e+02 
3.595000e-01 2.275752e+02 
3.607100e-01 2.262627e+02 
3.618900e-01 2.249980e+02 
3.631200e-01 2.236910e+02 
3.643200e-01 2.224269e+02 
3.655500e-01 2.211423e+02 
3.667300e-01 2.199205e+02 
3.679500e-01 2.186777e+02 
3.691900e-01 2.174254e+02 
3.703600e-01 2.162538e+02 
3.715700e-01 2.150521e+02 
3.727700e-01 2.138703e+02 
3.739900e-01 2.126819e+02 
3.752000e-01 2.115186e+02 
3.763900e-01 2.103839e+02 
3.775800e-01 2.092585e+02 
3.788200e-01 2.080955e+02 
3.800300e-01 2.069701e+02 
3.812100e-01 2.058866e+02 
3.824200e-01 2.047880e+02 
3.836100e-01 2.037163e+02 
3.848600e-01 2.025997e+02 
3.860400e-01 2.015542e+02 
3.872400e-01 2.004993e+02 
3.884600e-01 1.994416e+02 
3.896500e-01 1.984202e+02 
3.908700e-01 1.973814e+02 
3.920600e-01 1.963762e+02 
3.933100e-01 1.953287e+02 
3.945300e-01 1.943146e+02 
3.957200e-01 1.933393e+02 
3.969300e-01 1.923570e+02 
3.981700e-01 1.913584e+02 
3.993500e-01 1.904154e+02 
4.094840e-01 1.826346e+02 
4.272360e-01 1.703048e+02 
4.454600e-01 1.590833e+02 
4.630560e-01 1.494174e+02 
4.804610e-01 1.408200e+02 
4.980690e-01 1.329635e+02 
5.159230e-01 1.257437e+02 
5.317440e-01 1.198949e+02 
5.489640e-01 1.140486e+02 
5.671990e-01 1.083852e+02 
5.838690e-01 1.036196e+02 
6.018840e-01 9.887273e+01 
6.202330e-01 9.442396e+01 
6.379250e-01 9.045482e+01 
6.545410e-01 8.699698e+01 
6.714560e-01 8.371251e+01 
6.892080e-01 8.049832e+01 
7.066010e-01 7.756401e+01 
7.240540e-01 7.480878e+01 
7.420450e-01 7.215485e+01 
7.593780e-01 6.976035e+01 
7.764720e-01 6.753934e+01 
7.942840e-01 6.536343e+01 
8.116170e-01 6.337102e+01 
8.288310e-01 6.150442e+01 
8.462240e-01 5.972160e+01 
8.631980e-01 5.807565e+01 
8.810700e-01 5.643489e+01 
8.989410e-01 5.488177e+01 
9.166330e-01 5.342303e+01 
9.345640e-01 5.202066e+01 
9.515980e-01 5.075326e+01 
9.688720e-01 4.952793e+01 
9.865640e-01 4.833268e+01 
1.031870e+00 4.551019e+01 
1.063490e+00 4.372413e+01 
1.097920e+00 4.192995e+01 
1.134370e+00 4.017774e+01 
1.167730e+00 3.869410e+01 
1.203830e+00 3.720360e+01 
1.240470e+00 3.579815e+01 
1.275790e+00 3.453617e+01 
1.309140e+00 3.342003e+01 
1.342970e+00 3.235387e+01 
1.378420e+00 3.130311e+01 
1.413200e+00 3.033239e+01 
1.448110e+00 2.941219e+01 
1.484090e+00 2.851526e+01 
1.518820e+00 2.769631e+01 
1.552880e+00 2.693293e+01 
1.588630e+00 2.617138e+01 
1.623230e+00 2.546960e+01 
1.657720e+00 2.480359e+01 
1.692450e+00 2.416272e+01 
1.726400e+00 2.356417e+01 
1.762200e+00 2.295980e+01 
1.797880e+00 2.238381e+01 
1.833270e+00 2.183671e+01 
1.869070e+00 2.130643e+01 
1.903200e+00 2.082058e+01 
1.937740e+00 2.034806e+01 
1.973190e+00 1.988146e+01 
2.007440e+00 1.944756e+01 
2.042160e+00 1.902339e+01 
2.077900e+00 1.860257e+01 
2.112390e+00 1.821148e+01 
2.146220e+00 1.784015e+01 
2.181600e+00 1.746517e+01 
2.216930e+00 1.710299e+01 
2.250760e+00 1.676760e+01 
2.286500e+00 1.642497e+01 
2.321770e+00 1.609783e+01 
2.355950e+00 1.579016e+01 
2.391280e+00 1.548198e+01 
2.426240e+00 1.518607e+01 
2.460670e+00 1.490343e+01 
2.495640e+00 1.462518e+01 
2.531080e+00 1.435087e+01 
2.566220e+00 1.408653e+01 
2.600830e+00 1.383356e+01 
2.635080e+00 1.359025e+01 
2.670340e+00 1.334644e+01 
2.705970e+00 1.310668e+01 
2.740040e+00 1.288358e+01 
2.774520e+00 1.266348e+01 
2.809730e+00 1.244435e+01 
2.844390e+00 1.223441e+01 
2.879960e+00 1.202444e+01 
2.914860e+00 1.182334e+01 
2.949410e+00 1.162933e+01 
2.984440e+00 1.143707e+01 
3.019760e+00 1.124805e+01 
3.054730e+00 1.106573e+01 
3.089030e+00 1.089038e+01 
3.124060e+00 1.071576e+01 
3.159560e+00 1.054302e+01 
3.194710e+00 1.037565e+01 
3.229010e+00 1.021630e+01 
3.263320e+00 1.005979e+01 
3.297930e+00 9.905670e+00 
3.332830e+00 9.753596e+00 
3.368040e+00 9.603465e+00 
3.403300e+00 9.456501e+00 
3.438450e+00 9.312898e+00 
3.473060e+00 9.174846e+00 
3.508440e+00 9.036081e+00 
3.543110e+00 8.903304e+00 
3.577470e+00 8.774088e+00 
3.613040e+00 8.643289e+00 
3.648120e+00 8.516649e+00 
3.682910e+00 8.393781e+00 
3.718050e+00 8.272106e+00 
3.753320e+00 8.152429e+00 
3.787980e+00 8.036921e+00 
3.822290e+00 7.924890e+00 
3.857020e+00 7.813606e+00 
3.891920e+00 7.704017e+00 
3.926650e+00 7.596893e+00 
3.961970e+00 7.490136e+00 
3.997360e+00 7.384963e+00 
4.031670e+00 7.285108e+00 
4.066330e+00 7.185875e+00 
4.101420e+00 7.087547e+00 
4.136200e+00 6.991441e+00 
4.170810e+00 6.897825e+00 
4.206250e+00 6.803476e+00 
4.241580e+00 6.711322e+00 
4.276300e+00 6.622265e+00 
4.310970e+00 6.534950e+00 
4.346120e+00 6.448020e+00 
4.380600e+00 6.364112e+00 
4.414730e+00 6.282691e+00 
4.450350e+00 6.198870e+00 
4.485320e+00 6.118238e+00 
4.519810e+00 6.039977e+00 
4.555430e+00 5.960612e+00 
4.590870e+00 5.883043e+00 
4.625480e+00 5.808402e+00 
4.659910e+00 5.735566e+00 
4.695230e+00 5.661919e+00 
4.729960e+00 5.590833e+00 
4.764450e+00 5.521443e+00 
4.799530e+00 5.451990e+00 
4.834910e+00 5.383265e+00 
4.869700e+00 5.316557e+00 
4.904370e+00 5.251236e+00 
4.939450e+00 5.186276e+00 
4.973940e+00 5.123362e+00 
5.008430e+00 5.061577e+00 
5.043810e+00 4.999136e+00 
5.078840e+00 4.938311e+00 
5.113500e+00 4.879199e+00 
5.148890e+00 4.819644e+00 
5.184210e+00 4.761256e+00 
5.219060e+00 4.704600e+00 
5.253660e+00 4.649155e+00 
5.288570e+00 4.594178e+00 
5.323420e+00 4.540111e+00 
5.358440e+00 4.486567e+00 
5.393590e+00 4.433746e+00 
5.428310e+00 4.382361e+00 
5.462800e+00 4.332120e+00 
5.497640e+00 4.282214e+00 
5.532670e+00 4.232719e+00 
5.567280e+00 4.184575e+00 
5.602000e+00 4.137071e+00 
5.637270e+00 4.089480e+00 
5.672410e+00 4.042816e+00 
5.707020e+00 3.997601e+00 
5.742040e+00 3.952482e+00 
5.777430e+00 3.907605e+00 
5.812210e+00 3.864209e+00 
5.846820e+00 3.821616e+00 
5.881610e+00 3.779453e+00 
5.916510e+00 3.737820e+00 
5.951600e+00 3.696560e+00 
5.986560e+00 3.656070e+00 
6.021830e+00 3.615857e+00 
6.056490e+00 3.576899e+00 
6.091160e+00 3.538479e+00 
6.125830e+00 3.500642e+00 
6.161090e+00 3.462728e+00 
6.195760e+00 3.425974e+00 
6.230420e+00 3.389781e+00 
6.265690e+00 3.353501e+00 
6.300950e+00 3.317751e+00 
6.335620e+00 3.283121e+00 
6.370880e+00 3.248422e+00 
6.405550e+00 3.214775e+00 
6.440220e+00 3.181602e+00 
6.475480e+00 3.148357e+00 
6.510150e+00 3.116141e+00 
6.544810e+00 3.084390e+00 
6.580080e+00 3.052545e+00 
6.614750e+00 3.021688e+00 
6.649410e+00 2.991257e+00 
6.684080e+00 2.961240e+00 
6.719340e+00 2.931143e+00 
6.754010e+00 2.901969e+00 
6.788680e+00 2.873209e+00 
6.823940e+00 2.844367e+00 
6.859800e+00 2.815446e+00 
6.894470e+00 2.787897e+00 
6.929140e+00 2.760732e+00 
6.963800e+00 2.733941e+00 
6.999070e+00 2.707050e+00 
7.033730e+00 2.680995e+00 
7.068400e+00 2.655280e+00 
7.103660e+00 2.629478e+00 
7.138330e+00 2.604452e+00 
7.173600e+00 2.579343e+00 
7.208260e+00 2.554994e+00 
7.243530e+00 2.530542e+00 
7.277600e+00 2.507259e+00 
7.312860e+00 2.483499e+00 
7.348120e+00 2.460051e+00 
7.382790e+00 2.437293e+00 
7.417460e+00 2.414843e+00 
7.452720e+00 2.392312e+00 
7.487390e+00 2.370441e+00 
7.522650e+00 2.348481e+00 
7.557320e+00 2.327200e+00 
7.591990e+00 2.306199e+00 
7.627250e+00 2.285108e+00 
7.662510e+00 2.264283e+00 
7.697180e+00 2.244108e+00 
7.731850e+00 2.224199e+00 
7.766510e+00 2.204539e+00 
7.801180e+00 2.185112e+00 
7.836440e+00 2.165629e+00 
7.871110e+00 2.146727e+00 
7.906380e+00 2.127729e+00 
7.941040e+00 2.109286e+00 
7.976310e+00 2.090769e+00 
8.011570e+00 2.072510e+00 
8.046240e+00 2.054771e+00 
8.080900e+00 2.037245e+00 
8.115570e+00 2.019934e+00 
8.150830e+00 2.002590e+00 
8.185500e+00 1.985736e+00 
8.220770e+00 1.968790e+00 
8.255430e+00 1.952330e+00 
8.290100e+00 1.936114e+00 
8.324770e+00 1.920090e+00 
8.359430e+00 1.904253e+00 
8.394700e+00 1.888320e+00 
8.429960e+00 1.872606e+00 
8.464630e+00 1.857362e+00 
8.499890e+00 1.842032e+00 
8.534560e+00 1.827129e+00 
8.569200e+00 1.812404e+00 
