# Parameters:
# omega_b = 0.021579, omega_m = 0.148110, n_s = 0.872047, h = 67.519685, w = -1.000000, sigma_8 = 0.852756
# z = 1.900000
#
# k[1/Mpc] # P(k):
8.694000e-04 4.258979e+03 
2.077466e-03 8.429838e+03 
3.285532e-03 1.149308e+04 
4.493598e-03 1.375792e+04 
5.701664e-03 1.538608e+04 
6.909730e-03 1.650110e+04 
8.117797e-03 1.722495e+04 
9.325863e-03 1.762123e+04 
1.053393e-02 1.775041e+04 
1.174199e-02 1.766705e+04 
1.295006e-02 1.740472e+04 
1.415813e-02 1.700672e+04 
1.536619e-02 1.650916e+04 
1.657426e-02 1.593558e+04 
1.778233e-02 1.530732e+04 
1.899039e-02 1.465672e+04 
2.019846e-02 1.400090e+04 
2.140652e-02 1.335501e+04 
2.261459e-02 1.272684e+04 
2.382266e-02 1.212687e+04 
2.503072e-02 1.156298e+04 
2.623879e-02 1.103818e+04 
2.744685e-02 1.055322e+04 
2.865492e-02 1.010982e+04 
2.986299e-02 9.706198e+03 
3.100100e-02 9.361645e+03 
3.220400e-02 9.032262e+03 
3.288100e-02 8.862221e+03 
3.424300e-02 8.549283e+03 
3.555100e-02 8.280584e+03 
3.686000e-02 8.038668e+03 
3.795000e-02 7.854112e+03 
3.929100e-02 7.644711e+03 
4.039800e-02 7.482318e+03 
4.164000e-02 7.308573e+03 
4.294400e-02 7.130423e+03 
4.415000e-02 6.969176e+03 
4.542900e-02 6.796109e+03 
4.660900e-02 6.636476e+03 
4.782300e-02 6.465901e+03 
4.892900e-02 6.308780e+03 
5.031200e-02 6.107676e+03 
5.155900e-02 5.921631e+03 
5.238100e-02 5.797476e+03 
5.378200e-02 5.584293e+03 
5.513400e-02 5.377042e+03 
5.627600e-02 5.202164e+03 
5.735300e-02 5.038691e+03 
5.870100e-02 4.837099e+03 
5.988700e-02 4.664194e+03 
6.113500e-02 4.487570e+03 
6.225900e-02 4.334407e+03 
6.340100e-02 4.185876e+03 
6.480200e-02 4.014500e+03 
6.601100e-02 3.877871e+03 
6.725500e-02 3.748624e+03 
6.829100e-02 3.650529e+03 
6.958600e-02 3.538136e+03 
7.071100e-02 3.450290e+03 
7.192300e-02 3.364502e+03 
7.307400e-02 3.290832e+03 
7.412300e-02 3.229594e+03 
7.550400e-02 3.157150e+03 
7.663100e-02 3.103225e+03 
7.791200e-02 3.047777e+03 
7.912700e-02 2.999389e+03 
8.027600e-02 2.956198e+03 
8.138400e-02 2.916259e+03 
8.272200e-02 2.869526e+03 
8.406100e-02 2.823445e+03 
8.534100e-02 2.778784e+03 
8.653800e-02 2.735745e+03 
8.759800e-02 2.696779e+03 
8.900300e-02 2.643371e+03 
9.009000e-02 2.600258e+03 
9.113300e-02 2.557045e+03 
9.239600e-02 2.503677e+03 
9.358000e-02 2.452039e+03 
9.496100e-02 2.389644e+03 
9.608400e-02 2.338512e+03 
9.727500e-02 2.284390e+03 
9.852600e-02 2.226427e+03 
9.973800e-02 2.171348e+03 
1.009000e-01 2.119594e+03 
1.020900e-01 2.067614e+03 
1.034000e-01 2.012474e+03 
1.046000e-01 1.963866e+03 
1.057200e-01 1.920929e+03 
1.069100e-01 1.877181e+03 
1.082500e-01 1.831185e+03 
1.093900e-01 1.794652e+03 
1.105400e-01 1.759626e+03 
1.116900e-01 1.727704e+03 
1.129600e-01 1.694219e+03 
1.142000e-01 1.664557e+03 
1.153300e-01 1.639091e+03 
1.166400e-01 1.611673e+03 
1.177800e-01 1.589575e+03 
1.190000e-01 1.567040e+03 
1.201200e-01 1.547773e+03 
1.213400e-01 1.527446e+03 
1.227100e-01 1.505874e+03 
1.238900e-01 1.487771e+03 
1.250700e-01 1.470060e+03 
1.263200e-01 1.451561e+03 
1.275500e-01 1.433396e+03 
1.287500e-01 1.415692e+03 
1.299900e-01 1.397200e+03 
1.311300e-01 1.380043e+03 
1.323500e-01 1.361282e+03 
1.335900e-01 1.342007e+03 
1.347100e-01 1.324133e+03 
1.359800e-01 1.303779e+03 
1.372100e-01 1.283447e+03 
1.384300e-01 1.263361e+03 
1.395700e-01 1.244094e+03 
1.407700e-01 1.224169e+03 
1.420300e-01 1.202769e+03 
1.432800e-01 1.182048e+03 
1.444500e-01 1.162595e+03 
1.456300e-01 1.143415e+03 
1.468900e-01 1.123468e+03 
1.480500e-01 1.105538e+03 
1.491700e-01 1.088811e+03 
1.503800e-01 1.071402e+03 
1.516400e-01 1.053847e+03 
1.528200e-01 1.038494e+03 
1.540200e-01 1.023205e+03 
1.551900e-01 1.009407e+03 
1.564300e-01 9.952736e+02 
1.576600e-01 9.819734e+02 
1.588700e-01 9.696680e+02 
1.600900e-01 9.575387e+02 
1.612700e-01 9.467208e+02 
1.625400e-01 9.352982e+02 
1.637600e-01 9.247735e+02 
1.649500e-01 9.148344e+02 
1.662200e-01 9.044285e+02 
1.674000e-01 8.949673e+02 
1.685000e-01 8.862961e+02 
1.697500e-01 8.764808e+02 
1.710300e-01 8.664845e+02 
1.722200e-01 8.573579e+02 
1.734400e-01 8.477294e+02 
1.746400e-01 8.384069e+02 
1.758700e-01 8.288604e+02 
1.770900e-01 8.192362e+02 
1.782700e-01 8.100887e+02 
1.794600e-01 8.007674e+02 
1.807000e-01 7.910540e+02 
1.819100e-01 7.817424e+02 
1.830100e-01 7.732061e+02 
1.842200e-01 7.639354e+02 
1.855000e-01 7.542979e+02 
1.867000e-01 7.453172e+02 
1.879200e-01 7.363432e+02 
1.890900e-01 7.278880e+02 
1.902800e-01 7.194627e+02 
1.915200e-01 7.108315e+02 
1.926900e-01 7.028581e+02 
1.939000e-01 6.948606e+02 
1.951700e-01 6.866074e+02 
1.963100e-01 6.793721e+02 
1.975100e-01 6.720157e+02 
1.987800e-01 6.643570e+02 
2.000100e-01 6.571222e+02 
2.012500e-01 6.500875e+02 
2.023400e-01 6.439963e+02 
2.036100e-01 6.370400e+02 
2.048900e-01 6.302733e+02 
2.060400e-01 6.242864e+02 
2.072200e-01 6.182404e+02 
2.084200e-01 6.122805e+02 
2.096900e-01 6.060683e+02 
2.109200e-01 6.001433e+02 
2.121100e-01 5.945373e+02 
2.132700e-01 5.891519e+02 
2.145200e-01 5.834323e+02 
2.157200e-01 5.780170e+02 
2.168800e-01 5.728534e+02 
2.180700e-01 5.676293e+02 
2.193400e-01 5.621209e+02 
2.206000e-01 5.567112e+02 
2.217500e-01 5.518428e+02 
2.229500e-01 5.468317e+02 
2.241400e-01 5.418753e+02 
2.253500e-01 5.369034e+02 
2.264900e-01 5.322820e+02 
2.277100e-01 5.273771e+02 
2.289900e-01 5.222756e+02 
2.301500e-01 5.177159e+02 
2.313600e-01 5.130226e+02 
2.325600e-01 5.083868e+02 
2.337700e-01 5.037752e+02 
2.350000e-01 4.991508e+02 
2.362000e-01 4.946884e+02 
2.374100e-01 4.902350e+02 
2.386500e-01 4.857325e+02 
2.399100e-01 4.812196e+02 
2.410400e-01 4.772227e+02 
2.422500e-01 4.729967e+02 
2.435000e-01 4.686888e+02 
2.447300e-01 4.645081e+02 
2.458700e-01 4.606910e+02 
2.470600e-01 4.567557e+02 
2.483300e-01 4.526102e+02 
2.495600e-01 4.486595e+02 
2.507600e-01 4.448697e+02 
2.519600e-01 4.411271e+02 
2.532200e-01 4.372473e+02 
2.543700e-01 4.337705e+02 
2.555500e-01 4.302595e+02 
2.568000e-01 4.265861e+02 
2.580100e-01 4.230744e+02 
2.592400e-01 4.195703e+02 
2.604100e-01 4.162867e+02 
2.616100e-01 4.129586e+02 
2.628400e-01 4.095883e+02 
2.640600e-01 4.063108e+02 
2.652200e-01 4.032407e+02 
2.664300e-01 4.000752e+02 
2.676500e-01 3.969211e+02 
2.688400e-01 3.938960e+02 
2.700700e-01 3.908153e+02 
2.712400e-01 3.879184e+02 
2.724800e-01 3.848833e+02 
2.736700e-01 3.820134e+02 
2.748800e-01 3.791378e+02 
2.761000e-01 3.762714e+02 
2.773200e-01 3.734377e+02 
2.785400e-01 3.706399e+02 
2.797000e-01 3.680171e+02 
2.808900e-01 3.653556e+02 
2.821400e-01 3.625911e+02 
2.833900e-01 3.598583e+02 
2.845500e-01 3.573536e+02 
2.857800e-01 3.547264e+02 
2.870300e-01 3.520863e+02 
2.882100e-01 3.496212e+02 
2.893900e-01 3.471839e+02 
2.906300e-01 3.446512e+02 
2.918900e-01 3.421062e+02 
2.930500e-01 3.397882e+02 
2.942500e-01 3.374146e+02 
2.954200e-01 3.351228e+02 
2.966500e-01 3.327387e+02 
2.978900e-01 3.303610e+02 
2.990400e-01 3.281787e+02 
3.002700e-01 3.258673e+02 
3.015100e-01 3.235613e+02 
3.026800e-01 3.214079e+02 
3.038500e-01 3.192760e+02 
3.050300e-01 3.171473e+02 
3.062600e-01 3.149471e+02 
3.075000e-01 3.127522e+02 
3.087000e-01 3.106498e+02 
3.099100e-01 3.085513e+02 
3.111200e-01 3.064733e+02 
3.123100e-01 3.044490e+02 
3.135300e-01 3.023944e+02 
3.147300e-01 3.003937e+02 
3.159900e-01 2.983141e+02 
3.171800e-01 2.963704e+02 
3.183700e-01 2.944459e+02 
3.196300e-01 2.924285e+02 
3.208400e-01 2.905105e+02 
3.220300e-01 2.886425e+02 
3.232000e-01 2.868248e+02 
3.244300e-01 2.849328e+02 
3.256700e-01 2.830442e+02 
3.269200e-01 2.811593e+02 
3.280800e-01 2.794267e+02 
3.292500e-01 2.776990e+02 
3.304800e-01 2.759009e+02 
3.317100e-01 2.741201e+02 
3.328900e-01 2.724279e+02 
3.340700e-01 2.707511e+02 
3.353600e-01 2.689400e+02 
3.365300e-01 2.673146e+02 
3.377100e-01 2.656902e+02 
3.389200e-01 2.640397e+02 
3.401600e-01 2.623641e+02 
3.413700e-01 2.607499e+02 
3.425300e-01 2.592201e+02 
3.437700e-01 2.575996e+02 
3.449800e-01 2.560328e+02 
3.461800e-01 2.544931e+02 
3.473600e-01 2.529950e+02 
3.485800e-01 2.514660e+02 
3.498100e-01 2.499384e+02 
3.510200e-01 2.484492e+02 
3.522000e-01 2.470097e+02 
3.533900e-01 2.455707e+02 
3.546400e-01 2.440830e+02 
3.558400e-01 2.426682e+02 
3.570600e-01 2.412425e+02 
3.582700e-01 2.398408e+02 
3.595000e-01 2.384285e+02 
3.607100e-01 2.370575e+02 
3.618900e-01 2.357366e+02 
3.631200e-01 2.343715e+02 
3.643200e-01 2.330512e+02 
3.655500e-01 2.317096e+02 
3.667300e-01 2.304334e+02 
3.679500e-01 2.291362e+02 
3.691900e-01 2.278290e+02 
3.703600e-01 2.266059e+02 
3.715700e-01 2.253515e+02 
3.727700e-01 2.241179e+02 
3.739900e-01 2.228777e+02 
3.752000e-01 2.216643e+02 
3.763900e-01 2.204808e+02 
3.775800e-01 2.193069e+02 
3.788200e-01 2.180937e+02 
3.800300e-01 2.169198e+02 
3.812100e-01 2.157902e+02 
3.824200e-01 2.146453e+02 
3.836100e-01 2.135284e+02 
3.848600e-01 2.123647e+02 
3.860400e-01 2.112751e+02 
3.872400e-01 2.101758e+02 
3.884600e-01 2.090741e+02 
3.896500e-01 2.080108e+02 
3.908700e-01 2.069292e+02 
3.920600e-01 2.058826e+02 
3.933100e-01 2.047919e+02 
3.945300e-01 2.037360e+02 
3.957200e-01 2.027214e+02 
3.969300e-01 2.016999e+02 
3.981700e-01 2.006613e+02 
3.993500e-01 1.996806e+02 
4.094840e-01 1.915915e+02 
4.272360e-01 1.787955e+02 
4.454600e-01 1.671610e+02 
4.630560e-01 1.571423e+02 
4.804610e-01 1.482277e+02 
4.980690e-01 1.400740e+02 
5.159230e-01 1.325717e+02 
5.317440e-01 1.264860e+02 
5.489640e-01 1.203942e+02 
5.671990e-01 1.144843e+02 
5.838690e-01 1.095050e+02 
6.018840e-01 1.045399e+02 
6.202330e-01 9.988140e+01 
6.379250e-01 9.572183e+01 
6.545410e-01 9.209506e+01 
6.714560e-01 8.864862e+01 
6.892080e-01 8.527378e+01 
7.066010e-01 8.219167e+01 
7.240540e-01 7.929657e+01 
7.420450e-01 7.650704e+01 
7.593780e-01 7.398963e+01 
7.764720e-01 7.165406e+01 
7.942840e-01 6.936563e+01 
8.116170e-01 6.726963e+01 
8.288310e-01 6.530568e+01 
8.462240e-01 6.342949e+01 
8.631980e-01 6.169704e+01 
8.810700e-01 5.996972e+01 
8.989410e-01 5.833447e+01 
9.166330e-01 5.679810e+01 
9.345640e-01 5.532085e+01 
9.515980e-01 5.398560e+01 
9.688720e-01 5.269421e+01 
9.865640e-01 5.143429e+01 
1.031870e+00 4.845756e+01 
1.063490e+00 4.657276e+01 
1.097920e+00 4.467837e+01 
1.134370e+00 4.282708e+01 
1.167730e+00 4.125861e+01 
1.203830e+00 3.968182e+01 
1.240470e+00 3.819401e+01 
1.275790e+00 3.685719e+01 
1.309140e+00 3.567426e+01 
1.342970e+00 3.454325e+01 
1.378420e+00 3.342804e+01 
1.413200e+00 3.239715e+01 
1.448110e+00 3.141930e+01 
1.484090e+00 3.046559e+01 
1.518820e+00 2.959434e+01 
1.552880e+00 2.878170e+01 
1.588630e+00 2.797058e+01 
1.623230e+00 2.722268e+01 
1.657720e+00 2.651265e+01 
1.692450e+00 2.582901e+01 
1.726400e+00 2.519025e+01 
1.762200e+00 2.454497e+01 
1.797880e+00 2.392972e+01 
1.833270e+00 2.334506e+01 
1.869070e+00 2.277821e+01 
1.903200e+00 2.225857e+01 
1.937740e+00 2.175304e+01 
1.973190e+00 2.125371e+01 
2.007440e+00 2.078920e+01 
2.042160e+00 2.033495e+01 
2.077900e+00 1.988415e+01 
2.112390e+00 1.946514e+01 
2.146220e+00 1.906710e+01 
2.181600e+00 1.866509e+01 
2.216930e+00 1.827667e+01 
2.250760e+00 1.791691e+01 
2.286500e+00 1.754934e+01 
2.321770e+00 1.719830e+01 
2.355950e+00 1.686804e+01 
2.391280e+00 1.653720e+01 
2.426240e+00 1.621945e+01 
2.460670e+00 1.591591e+01 
2.495640e+00 1.561708e+01 
2.531080e+00 1.532243e+01 
2.566220e+00 1.503839e+01 
2.600830e+00 1.476655e+01 
2.635080e+00 1.450506e+01 
2.670340e+00 1.424304e+01 
2.705970e+00 1.398533e+01 
2.740040e+00 1.374550e+01 
2.774520e+00 1.350886e+01 
2.809730e+00 1.327325e+01 
2.844390e+00 1.304751e+01 
2.879960e+00 1.282174e+01 
2.914860e+00 1.260548e+01 
2.949410e+00 1.239684e+01 
2.984440e+00 1.219005e+01 
3.019760e+00 1.198676e+01 
3.054730e+00 1.179068e+01 
3.089030e+00 1.160206e+01 
3.124060e+00 1.141425e+01 
3.159560e+00 1.122847e+01 
3.194710e+00 1.104846e+01 
3.229010e+00 1.087706e+01 
3.263320e+00 1.070872e+01 
3.297930e+00 1.054296e+01 
3.332830e+00 1.037940e+01 
3.368040e+00 1.021794e+01 
3.403300e+00 1.005990e+01 
3.438450e+00 9.905472e+00 
3.473060e+00 9.757021e+00 
3.508440e+00 9.607810e+00 
3.543110e+00 9.465046e+00 
3.577470e+00 9.326130e+00 
3.613040e+00 9.185517e+00 
3.648120e+00 9.049376e+00 
3.682910e+00 8.917308e+00 
3.718050e+00 8.786549e+00 
3.753320e+00 8.657936e+00 
3.787980e+00 8.533801e+00 
3.822290e+00 8.413420e+00 
3.857020e+00 8.293862e+00 
3.891920e+00 8.176135e+00 
3.926650e+00 8.061064e+00 
3.961970e+00 7.946399e+00 
3.997360e+00 7.833450e+00 
4.031670e+00 7.726223e+00 
4.066330e+00 7.619682e+00 
4.101420e+00 7.514122e+00 
4.136200e+00 7.410962e+00 
4.170810e+00 7.310482e+00 
4.206250e+00 7.209239e+00 
4.241580e+00 7.110361e+00 
4.276300e+00 7.014818e+00 
4.310970e+00 6.921151e+00 
4.346120e+00 6.827912e+00 
4.380600e+00 6.737931e+00 
4.414730e+00 6.650624e+00 
4.450350e+00 6.560758e+00 
4.485320e+00 6.474319e+00 
4.519810e+00 6.390446e+00 
4.555430e+00 6.305405e+00 
4.590870e+00 6.222295e+00 
4.625480e+00 6.142331e+00 
4.659910e+00 6.064307e+00 
4.695230e+00 5.985437e+00 
4.729960e+00 5.909318e+00 
4.764450e+00 5.835031e+00 
4.799530e+00 5.760695e+00 
4.834910e+00 5.687144e+00 
4.869700e+00 5.615761e+00 
4.904370e+00 5.545869e+00 
4.939450e+00 5.476375e+00 
4.973940e+00 5.409090e+00 
5.008430e+00 5.343018e+00 
5.043810e+00 5.276256e+00 
5.078840e+00 5.211233e+00 
5.113500e+00 5.148046e+00 
5.148890e+00 5.084410e+00 
5.184210e+00 5.022027e+00 
5.219060e+00 4.961501e+00 
5.253660e+00 4.902281e+00 
5.288570e+00 4.843566e+00 
5.323420e+00 4.785832e+00 
5.358440e+00 4.728669e+00 
5.393590e+00 4.672281e+00 
5.428310e+00 4.617446e+00 
5.462800e+00 4.563843e+00 
5.497640e+00 4.510603e+00 
5.532670e+00 4.457808e+00 
5.567280e+00 4.406462e+00 
5.602000e+00 4.355801e+00 
5.637270e+00 4.305066e+00 
5.672410e+00 4.255326e+00 
5.707020e+00 4.207135e+00 
5.742040e+00 4.159062e+00 
5.777430e+00 4.111252e+00 
5.812210e+00 4.065024e+00 
5.846820e+00 4.019662e+00 
5.881610e+00 3.974762e+00 
5.916510e+00 3.930431e+00 
5.951600e+00 3.886511e+00 
5.986560e+00 3.843419e+00 
6.021830e+00 3.800625e+00 
6.056490e+00 3.759174e+00 
6.091160e+00 3.718303e+00 
6.125830e+00 3.678055e+00 
6.161090e+00 3.637733e+00 
6.195760e+00 3.598655e+00 
6.230420e+00 3.560176e+00 
6.265690e+00 3.521608e+00 
6.300950e+00 3.483619e+00 
6.335620e+00 3.446822e+00 
6.370880e+00 3.409955e+00 
6.405550e+00 3.374213e+00 
6.440220e+00 3.338981e+00 
6.475480e+00 3.303674e+00 
6.510150e+00 3.269466e+00 
6.544810e+00 3.235762e+00 
6.580080e+00 3.201959e+00 
6.614750e+00 3.169209e+00 
6.649410e+00 3.136919e+00 
6.684080e+00 3.105072e+00 
6.719340e+00 3.073142e+00 
6.754010e+00 3.042197e+00 
6.788680e+00 3.011701e+00 
6.823940e+00 2.981119e+00 
6.859800e+00 2.950456e+00 
6.894470e+00 2.921257e+00 
6.929140e+00 2.892467e+00 
6.963800e+00 2.864078e+00 
6.999070e+00 2.835584e+00 
7.033730e+00 2.807985e+00 
7.068400e+00 2.780747e+00 
7.103660e+00 2.753419e+00 
7.138330e+00 2.726917e+00 
7.173600e+00 2.700332e+00 
7.208260e+00 2.674554e+00 
7.243530e+00 2.648669e+00 
7.277600e+00 2.624026e+00 
7.312860e+00 2.598885e+00 
7.348120e+00 2.574075e+00 
7.382790e+00 2.549997e+00 
7.417460e+00 2.526250e+00 
7.452720e+00 2.502422e+00 
7.487390e+00 2.479293e+00 
7.522650e+00 2.456071e+00 
7.557320e+00 2.433572e+00 
7.591990e+00 2.411372e+00 
7.627250e+00 2.389078e+00 
7.662510e+00 2.367066e+00 
7.697180e+00 2.345748e+00 
7.731850e+00 2.324714e+00 
7.766510e+00 2.303944e+00 
7.801180e+00 2.283422e+00 
7.836440e+00 2.262847e+00 
7.871110e+00 2.242888e+00 
7.906380e+00 2.222830e+00 
7.941040e+00 2.203359e+00 
7.976310e+00 2.183812e+00 
8.011570e+00 2.164541e+00 
8.046240e+00 2.145820e+00 
8.080900e+00 2.127325e+00 
8.115570e+00 2.109058e+00 
8.150830e+00 2.090762e+00 
8.185500e+00 2.072982e+00 
8.220770e+00 2.055107e+00 
8.255430e+00 2.037746e+00 
8.290100e+00 2.020647e+00 
8.324770e+00 2.003752e+00 
8.359430e+00 1.987055e+00 
8.394700e+00 1.970259e+00 
8.429960e+00 1.953696e+00 
8.464630e+00 1.937631e+00 
8.499890e+00 1.921477e+00 
8.534560e+00 1.905773e+00 
8.569200e+00 1.890258e+00 
