# Parameters:
# omega_b = 0.022713, omega_m = 0.155000, n_s = 0.850000, h = 70.118110, w = -1.000000, sigma_8 = 0.811811
# z = 1.900000
#
# k[1/Mpc] # P(k):
8.694000e-04 3.729956e+03 
2.077466e-03 7.273174e+03 
3.285532e-03 9.855178e+03 
4.493598e-03 1.176719e+04 
5.701664e-03 1.314215e+04 
6.909730e-03 1.408741e+04 
8.117797e-03 1.470754e+04 
9.325863e-03 1.505613e+04 
1.053393e-02 1.518265e+04 
1.174199e-02 1.513082e+04 
1.295006e-02 1.492838e+04 
1.415813e-02 1.461101e+04 
1.536619e-02 1.420785e+04 
1.657426e-02 1.373810e+04 
1.778233e-02 1.321966e+04 
1.899039e-02 1.267955e+04 
2.019846e-02 1.213176e+04 
2.140652e-02 1.158892e+04 
2.261459e-02 1.105743e+04 
2.382266e-02 1.054625e+04 
2.503072e-02 1.006226e+04 
2.623879e-02 9.608276e+03 
2.744685e-02 9.184835e+03 
2.865492e-02 8.794551e+03 
2.986299e-02 8.436515e+03 
3.100100e-02 8.128343e+03 
3.220400e-02 7.831767e+03 
3.288100e-02 7.677860e+03 
3.424300e-02 7.393819e+03 
3.555100e-02 7.149642e+03 
3.686000e-02 6.930283e+03 
3.795000e-02 6.763786e+03 
3.929100e-02 6.576821e+03 
4.039800e-02 6.433686e+03 
4.164000e-02 6.282498e+03 
4.294400e-02 6.130606e+03 
4.415000e-02 5.994870e+03 
4.542900e-02 5.851446e+03 
4.660900e-02 5.720240e+03 
4.782300e-02 5.581182e+03 
4.892900e-02 5.453366e+03 
5.031200e-02 5.289703e+03 
5.155900e-02 5.137790e+03 
5.238100e-02 5.035938e+03 
5.378200e-02 4.859944e+03 
5.513400e-02 4.686795e+03 
5.627600e-02 4.538592e+03 
5.735300e-02 4.398016e+03 
5.870100e-02 4.221523e+03 
5.988700e-02 4.067382e+03 
6.113500e-02 3.907579e+03 
6.225900e-02 3.767482e+03 
6.340100e-02 3.631016e+03 
6.480200e-02 3.473753e+03 
6.601100e-02 3.349063e+03 
6.725500e-02 3.232051e+03 
6.829100e-02 3.144005e+03 
6.958600e-02 3.043821e+03 
7.071100e-02 2.966045e+03 
7.192300e-02 2.890456e+03 
7.307400e-02 2.825804e+03 
7.412300e-02 2.772236e+03 
7.550400e-02 2.709112e+03 
7.663100e-02 2.662285e+03 
7.791200e-02 2.614398e+03 
7.912700e-02 2.572858e+03 
8.027600e-02 2.535971e+03 
8.138400e-02 2.502017e+03 
8.272200e-02 2.462487e+03 
8.406100e-02 2.423682e+03 
8.534100e-02 2.386208e+03 
8.653800e-02 2.350137e+03 
8.759800e-02 2.317472e+03 
8.900300e-02 2.272651e+03 
9.009000e-02 2.236390e+03 
9.113300e-02 2.199931e+03 
9.239600e-02 2.154787e+03 
9.358000e-02 2.110947e+03 
9.496100e-02 2.057699e+03 
9.608400e-02 2.013897e+03 
9.727500e-02 1.967402e+03 
9.852600e-02 1.917269e+03 
9.973800e-02 1.869487e+03 
1.009000e-01 1.824476e+03 
1.020900e-01 1.778986e+03 
1.034000e-01 1.730622e+03 
1.046000e-01 1.687873e+03 
1.057200e-01 1.649951e+03 
1.069100e-01 1.611274e+03 
1.082500e-01 1.570492e+03 
1.093900e-01 1.538067e+03 
1.105400e-01 1.506964e+03 
1.116900e-01 1.478625e+03 
1.129600e-01 1.448924e+03 
1.142000e-01 1.422697e+03 
1.153300e-01 1.400254e+03 
1.166400e-01 1.376202e+03 
1.177800e-01 1.356979e+03 
1.190000e-01 1.337455e+03 
1.201200e-01 1.320999e+03 
1.213400e-01 1.303683e+03 
1.227100e-01 1.285641e+03 
1.238900e-01 1.270557e+03 
1.250700e-01 1.255977e+03 
1.263200e-01 1.240786e+03 
1.275500e-01 1.225950e+03 
1.287500e-01 1.211479e+03 
1.299900e-01 1.196347e+03 
1.311300e-01 1.182236e+03 
1.323500e-01 1.166701e+03 
1.335900e-01 1.150621e+03 
1.347100e-01 1.135557e+03 
1.359800e-01 1.118288e+03 
1.372100e-01 1.100818e+03 
1.384300e-01 1.083469e+03 
1.395700e-01 1.066620e+03 
1.407700e-01 1.049174e+03 
1.420300e-01 1.030203e+03 
1.432800e-01 1.011840e+03 
1.444500e-01 9.944483e+02 
1.456300e-01 9.773081e+02 
1.468900e-01 9.594539e+02 
1.480500e-01 9.434025e+02 
1.491700e-01 9.284531e+02 
1.503800e-01 9.129250e+02 
1.516400e-01 8.972959e+02 
1.528200e-01 8.837344e+02 
1.540200e-01 8.702330e+02 
1.551900e-01 8.581881e+02 
1.564300e-01 8.458877e+02 
1.576600e-01 8.343953e+02 
1.588700e-01 8.238643e+02 
1.600900e-01 8.134925e+02 
1.612700e-01 8.043917e+02 
1.625400e-01 7.947818e+02 
1.637600e-01 7.859837e+02 
1.649500e-01 7.777086e+02 
1.662200e-01 7.690465e+02 
1.674000e-01 7.611835e+02 
1.685000e-01 7.539765e+02 
1.697500e-01 7.457894e+02 
1.710300e-01 7.374224e+02 
1.722200e-01 7.297829e+02 
1.734400e-01 7.216266e+02 
1.746400e-01 7.137255e+02 
1.758700e-01 7.055995e+02 
1.770900e-01 6.973377e+02 
1.782700e-01 6.894855e+02 
1.794600e-01 6.814321e+02 
1.807000e-01 6.730065e+02 
1.819100e-01 6.649305e+02 
1.830100e-01 6.574810e+02 
1.842200e-01 6.493841e+02 
1.855000e-01 6.409674e+02 
1.867000e-01 6.331001e+02 
1.879200e-01 6.252404e+02 
1.890900e-01 6.178368e+02 
1.902800e-01 6.104609e+02 
1.915200e-01 6.029065e+02 
1.926900e-01 5.959334e+02 
1.939000e-01 5.889540e+02 
1.951700e-01 5.817530e+02 
1.963100e-01 5.754484e+02 
1.975100e-01 5.690587e+02 
1.987800e-01 5.624073e+02 
2.000100e-01 5.561332e+02 
2.012500e-01 5.500522e+02 
2.023400e-01 5.447873e+02 
2.036100e-01 5.387802e+02 
2.048900e-01 5.329560e+02 
2.060400e-01 5.278035e+02 
2.072200e-01 5.226016e+02 
2.084200e-01 5.174861e+02 
2.096900e-01 5.121545e+02 
2.109200e-01 5.070697e+02 
2.121100e-01 5.022641e+02 
2.132700e-01 4.976481e+02 
2.145200e-01 4.927460e+02 
2.157200e-01 4.881040e+02 
2.168800e-01 4.836775e+02 
2.180700e-01 4.791995e+02 
2.193400e-01 4.744768e+02 
2.206000e-01 4.698367e+02 
2.217500e-01 4.656612e+02 
2.229500e-01 4.613635e+02 
2.241400e-01 4.571090e+02 
2.253500e-01 4.528414e+02 
2.264900e-01 4.488750e+02 
2.277100e-01 4.446648e+02 
2.289900e-01 4.402855e+02 
2.301500e-01 4.363716e+02 
2.313600e-01 4.323434e+02 
2.325600e-01 4.283655e+02 
2.337700e-01 4.244087e+02 
2.350000e-01 4.204413e+02 
2.362000e-01 4.166149e+02 
2.374100e-01 4.127987e+02 
2.386500e-01 4.089406e+02 
2.399100e-01 4.050740e+02 
2.410400e-01 4.016537e+02 
2.422500e-01 3.980382e+02 
2.435000e-01 3.943529e+02 
2.447300e-01 3.907775e+02 
2.458700e-01 3.875164e+02 
2.470600e-01 3.841545e+02 
2.483300e-01 3.806133e+02 
2.495600e-01 3.772397e+02 
2.507600e-01 3.740049e+02 
2.519600e-01 3.708107e+02 
2.532200e-01 3.674995e+02 
2.543700e-01 3.645325e+02 
2.555500e-01 3.615363e+02 
2.568000e-01 3.584018e+02 
2.580100e-01 3.554054e+02 
2.592400e-01 3.524143e+02 
2.604100e-01 3.496110e+02 
2.616100e-01 3.467698e+02 
2.628400e-01 3.438928e+02 
2.640600e-01 3.410927e+02 
2.652200e-01 3.384690e+02 
2.664300e-01 3.357639e+02 
2.676500e-01 3.330688e+02 
2.688400e-01 3.304817e+02 
2.700700e-01 3.278458e+02 
2.712400e-01 3.253674e+02 
2.724800e-01 3.227710e+02 
2.736700e-01 3.203143e+02 
2.748800e-01 3.178510e+02 
2.761000e-01 3.153959e+02 
2.773200e-01 3.129689e+02 
2.785400e-01 3.105719e+02 
2.797000e-01 3.083230e+02 
2.808900e-01 3.060410e+02 
2.821400e-01 3.036710e+02 
2.833900e-01 3.013282e+02 
2.845500e-01 2.991787e+02 
2.857800e-01 2.969244e+02 
2.870300e-01 2.946592e+02 
2.882100e-01 2.925443e+02 
2.893900e-01 2.904521e+02 
2.906300e-01 2.882775e+02 
2.918900e-01 2.860925e+02 
2.930500e-01 2.841026e+02 
2.942500e-01 2.820649e+02 
2.954200e-01 2.800964e+02 
2.966500e-01 2.780489e+02 
2.978900e-01 2.760071e+02 
2.990400e-01 2.741333e+02 
3.002700e-01 2.721482e+02 
3.015100e-01 2.701677e+02 
3.026800e-01 2.683184e+02 
3.038500e-01 2.664878e+02 
3.050300e-01 2.646601e+02 
3.062600e-01 2.627706e+02 
3.075000e-01 2.608858e+02 
3.087000e-01 2.590806e+02 
3.099100e-01 2.572790e+02 
3.111200e-01 2.554952e+02 
3.123100e-01 2.537577e+02 
3.135300e-01 2.519944e+02 
3.147300e-01 2.502774e+02 
3.159900e-01 2.484931e+02 
3.171800e-01 2.468256e+02 
3.183700e-01 2.451750e+02 
3.196300e-01 2.434449e+02 
3.208400e-01 2.418002e+02 
3.220300e-01 2.401986e+02 
3.232000e-01 2.386406e+02 
3.244300e-01 2.370192e+02 
3.256700e-01 2.354009e+02 
3.269200e-01 2.337859e+02 
3.280800e-01 2.323017e+02 
3.292500e-01 2.308223e+02 
3.304800e-01 2.292829e+02 
3.317100e-01 2.277586e+02 
3.328900e-01 2.263101e+02 
3.340700e-01 2.248751e+02 
3.353600e-01 2.233259e+02 
3.365300e-01 2.219359e+02 
3.377100e-01 2.205469e+02 
3.389200e-01 2.191358e+02 
3.401600e-01 2.177033e+02 
3.413700e-01 2.163240e+02 
3.425300e-01 2.150174e+02 
3.437700e-01 2.136335e+02 
3.449800e-01 2.122956e+02 
3.461800e-01 2.109809e+02 
3.473600e-01 2.097021e+02 
3.485800e-01 2.083977e+02 
3.498100e-01 2.070947e+02 
3.510200e-01 2.058245e+02 
3.522000e-01 2.045968e+02 
3.533900e-01 2.033697e+02 
3.546400e-01 2.021020e+02 
3.558400e-01 2.008966e+02 
3.570600e-01 1.996819e+02 
3.582700e-01 1.984879e+02 
3.595000e-01 1.972850e+02 
3.607100e-01 1.961176e+02 
3.618900e-01 1.949934e+02 
3.631200e-01 1.938317e+02 
3.643200e-01 1.927081e+02 
3.655500e-01 1.915665e+02 
3.667300e-01 1.904807e+02 
3.679500e-01 1.893778e+02 
3.691900e-01 1.882665e+02 
3.703600e-01 1.872268e+02 
3.715700e-01 1.861606e+02 
3.727700e-01 1.851120e+02 
3.739900e-01 1.840582e+02 
3.752000e-01 1.830276e+02 
3.763900e-01 1.820224e+02 
3.775800e-01 1.810254e+02 
3.788200e-01 1.799952e+02 
3.800300e-01 1.789984e+02 
3.812100e-01 1.780395e+02 
3.824200e-01 1.770679e+02 
3.836100e-01 1.761200e+02 
3.848600e-01 1.751326e+02 
3.860400e-01 1.742080e+02 
3.872400e-01 1.732753e+02 
3.884600e-01 1.723409e+02 
3.896500e-01 1.714391e+02 
3.908700e-01 1.705220e+02 
3.920600e-01 1.696345e+02 
3.933100e-01 1.687097e+02 
3.945300e-01 1.678145e+02 
3.957200e-01 1.669545e+02 
3.969300e-01 1.660887e+02 
3.981700e-01 1.652084e+02 
3.993500e-01 1.643773e+02 
4.094840e-01 1.575252e+02 
4.272360e-01 1.466924e+02 
4.454600e-01 1.368499e+02 
4.630560e-01 1.283789e+02 
4.804610e-01 1.208458e+02 
4.980690e-01 1.139605e+02 
5.159230e-01 1.076310e+02 
5.317440e-01 1.025022e+02 
5.489640e-01 9.737504e+01 
5.671990e-01 9.240679e+01 
5.838690e-01 8.822755e+01 
6.018840e-01 8.406475e+01 
6.202330e-01 8.016403e+01 
6.379250e-01 7.668620e+01 
6.545410e-01 7.365723e+01 
6.714560e-01 7.078134e+01 
6.892080e-01 6.796927e+01 
7.066010e-01 6.540309e+01 
7.240540e-01 6.299541e+01 
7.420450e-01 6.067740e+01 
7.593780e-01 5.858728e+01 
7.764720e-01 5.664985e+01 
7.942840e-01 5.475264e+01 
8.116170e-01 5.301683e+01 
8.288310e-01 5.139167e+01 
8.462240e-01 4.984069e+01 
8.631980e-01 4.840975e+01 
8.810700e-01 4.698442e+01 
8.989410e-01 4.563598e+01 
9.166330e-01 4.437095e+01 
9.345640e-01 4.315565e+01 
9.515980e-01 4.205797e+01 
9.688720e-01 4.099806e+01 
9.865640e-01 3.996491e+01 
1.031870e+00 3.752975e+01 
1.063490e+00 3.599222e+01 
1.097920e+00 3.445060e+01 
1.134370e+00 3.294869e+01 
1.167730e+00 3.167965e+01 
1.203830e+00 3.040778e+01 
1.240470e+00 2.921142e+01 
1.275790e+00 2.813978e+01 
1.309140e+00 2.719372e+01 
1.342970e+00 2.629299e+01 
1.378420e+00 2.540695e+01 
1.413200e+00 2.459028e+01 
1.448110e+00 2.381792e+01 
1.484090e+00 2.306686e+01 
1.518820e+00 2.238255e+01 
1.552880e+00 2.174623e+01 
1.588630e+00 2.111272e+01 
1.623230e+00 2.053035e+01 
1.657720e+00 1.997846e+01 
1.692450e+00 1.944868e+01 
1.726400e+00 1.895476e+01 
1.762200e+00 1.845710e+01 
1.797880e+00 1.798364e+01 
1.833270e+00 1.753482e+01 
1.869070e+00 1.710041e+01 
1.903200e+00 1.670330e+01 
1.937740e+00 1.631764e+01 
1.973190e+00 1.593732e+01 
2.007440e+00 1.558421e+01 
2.042160e+00 1.523962e+01 
2.077900e+00 1.489824e+01 
2.112390e+00 1.458125e+01 
2.146220e+00 1.428092e+01 
2.181600e+00 1.397791e+01 
2.216930e+00 1.368574e+01 
2.250760e+00 1.341544e+01 
2.286500e+00 1.313957e+01 
2.321770e+00 1.287650e+01 
2.355950e+00 1.262946e+01 
2.391280e+00 1.238224e+01 
2.426240e+00 1.214516e+01 
2.460670e+00 1.191890e+01 
2.495640e+00 1.169627e+01 
2.531080e+00 1.147705e+01 
2.566220e+00 1.126608e+01 
2.600830e+00 1.106436e+01 
2.635080e+00 1.087045e+01 
2.670340e+00 1.067625e+01 
2.705970e+00 1.048547e+01 
2.740040e+00 1.030809e+01 
2.774520e+00 1.013322e+01 
2.809730e+00 9.959253e+00 
2.844390e+00 9.792649e+00 
2.879960e+00 9.626124e+00 
2.914860e+00 9.466734e+00 
2.949410e+00 9.313037e+00 
2.984440e+00 9.160887e+00 
3.019760e+00 9.011337e+00 
3.054730e+00 8.867108e+00 
3.089030e+00 8.728524e+00 
3.124060e+00 8.590522e+00 
3.159560e+00 8.454016e+00 
3.194710e+00 8.321875e+00 
3.229010e+00 8.196089e+00 
3.263320e+00 8.072611e+00 
3.297930e+00 7.951036e+00 
3.332830e+00 7.831115e+00 
3.368040e+00 7.712746e+00 
3.403300e+00 7.596884e+00 
3.438450e+00 7.483716e+00 
3.473060e+00 7.374924e+00 
3.508440e+00 7.265612e+00 
3.543110e+00 7.161010e+00 
3.577470e+00 7.059225e+00 
3.613040e+00 6.956198e+00 
3.648120e+00 6.856479e+00 
3.682910e+00 6.759712e+00 
3.718050e+00 6.663859e+00 
3.753320e+00 6.569600e+00 
3.787980e+00 6.478661e+00 
3.822290e+00 6.390442e+00 
3.857020e+00 6.302789e+00 
3.891920e+00 6.216470e+00 
3.926650e+00 6.132097e+00 
3.961970e+00 6.048003e+00 
3.997360e+00 5.965151e+00 
4.031670e+00 5.886475e+00 
4.066330e+00 5.808270e+00 
4.101420e+00 5.730767e+00 
4.136200e+00 5.655013e+00 
4.170810e+00 5.581210e+00 
4.206250e+00 5.506801e+00 
4.241580e+00 5.434108e+00 
4.276300e+00 5.363852e+00 
4.310970e+00 5.294960e+00 
4.346120e+00 5.226355e+00 
4.380600e+00 5.160111e+00 
4.414730e+00 5.095821e+00 
4.450350e+00 5.029629e+00 
4.485320e+00 4.965945e+00 
4.519810e+00 4.904086e+00 
4.555430e+00 4.841328e+00 
4.590870e+00 4.779982e+00 
4.625480e+00 4.720950e+00 
4.659910e+00 4.663336e+00 
4.695230e+00 4.605044e+00 
4.729960e+00 4.548765e+00 
4.764450e+00 4.493804e+00 
4.799530e+00 4.438756e+00 
4.834910e+00 4.384276e+00 
4.869700e+00 4.331386e+00 
4.904370e+00 4.279587e+00 
4.939450e+00 4.228055e+00 
4.973940e+00 4.178109e+00 
5.008430e+00 4.129050e+00 
5.043810e+00 4.079450e+00 
5.078840e+00 4.031119e+00 
5.113500e+00 3.984141e+00 
5.148890e+00 3.936762e+00 
5.184210e+00 3.890302e+00 
5.219060e+00 3.845208e+00 
5.253660e+00 3.801059e+00 
5.288570e+00 3.757277e+00 
5.323420e+00 3.714204e+00 
5.358440e+00 3.671532e+00 
5.393590e+00 3.629429e+00 
5.428310e+00 3.588431e+00 
5.462800e+00 3.548322e+00 
5.497640e+00 3.508474e+00 
5.532670e+00 3.468932e+00 
5.567280e+00 3.430460e+00 
5.602000e+00 3.392492e+00 
5.637270e+00 3.354430e+00 
5.672410e+00 3.317098e+00 
5.707020e+00 3.280919e+00 
5.742040e+00 3.244788e+00 
5.777430e+00 3.208840e+00 
5.812210e+00 3.174073e+00 
5.846820e+00 3.139924e+00 
5.881610e+00 3.106109e+00 
5.916510e+00 3.072715e+00 
5.951600e+00 3.039599e+00 
5.986560e+00 3.007088e+00 
6.021830e+00 2.974796e+00 
6.056490e+00 2.943492e+00 
6.091160e+00 2.912605e+00 
6.125830e+00 2.882182e+00 
6.161090e+00 2.851688e+00 
6.195760e+00 2.822112e+00 
6.230420e+00 2.792982e+00 
6.265690e+00 2.763778e+00 
6.300950e+00 2.734963e+00 
6.335620e+00 2.707047e+00 
6.370880e+00 2.679072e+00 
6.405550e+00 2.651929e+00 
6.440220e+00 2.625162e+00 
6.475480e+00 2.598332e+00 
6.510150e+00 2.572324e+00 
6.544810e+00 2.546678e+00 
6.580080e+00 2.520952e+00 
6.614750e+00 2.496021e+00 
6.649410e+00 2.471419e+00 
6.684080e+00 2.447147e+00 
6.719340e+00 2.422806e+00 
6.754010e+00 2.399202e+00 
6.788680e+00 2.375914e+00 
6.823940e+00 2.352556e+00 
6.859800e+00 2.329132e+00 
6.894470e+00 2.306801e+00 
6.929140e+00 2.284773e+00 
6.963800e+00 2.263046e+00 
6.999070e+00 2.241235e+00 
7.033730e+00 2.220090e+00 
7.068400e+00 2.199219e+00 
7.103660e+00 2.178274e+00 
7.138330e+00 2.157954e+00 
7.173600e+00 2.137556e+00 
7.208260e+00 2.117775e+00 
7.243530e+00 2.097907e+00 
7.277600e+00 2.078978e+00 
7.312860e+00 2.059653e+00 
7.348120e+00 2.040579e+00 
7.382790e+00 2.022064e+00 
7.417460e+00 2.003792e+00 
7.452720e+00 1.985448e+00 
7.487390e+00 1.967640e+00 
7.522650e+00 1.949757e+00 
7.557320e+00 1.932421e+00 
7.591990e+00 1.915310e+00 
7.627250e+00 1.898124e+00 
7.662510e+00 1.881153e+00 
7.697180e+00 1.864700e+00 
7.731850e+00 1.848460e+00 
7.766510e+00 1.832420e+00 
7.801180e+00 1.816570e+00 
7.836440e+00 1.800666e+00 
7.871110e+00 1.785230e+00 
7.906380e+00 1.769716e+00 
7.941040e+00 1.754652e+00 
7.976310e+00 1.739524e+00 
8.011570e+00 1.724603e+00 
8.046240e+00 1.710104e+00 
8.080900e+00 1.695779e+00 
8.115570e+00 1.681627e+00 
8.150830e+00 1.667444e+00 
8.185500e+00 1.653661e+00 
8.220770e+00 1.639801e+00 
8.255430e+00 1.626337e+00 
8.290100e+00 1.613063e+00 
8.324770e+00 1.599943e+00 
8.359430e+00 1.586975e+00 
8.394700e+00 1.573928e+00 
8.429960e+00 1.561058e+00 
8.464630e+00 1.548569e+00 
8.499890e+00 1.536010e+00 
8.534560e+00 1.523799e+00 
8.569200e+00 1.511733e+00 
