# Parameters:
# omega_b = 0.021720, omega_m = 0.153898, n_s = 1.016929, h = 59.960630, w = -1.000000, sigma_8 = 0.729921
# z = 1.900000
#
# k[1/Mpc] # P(k):
8.694000e-04 1.482701e+03 
2.077466e-03 3.345722e+03 
3.285532e-03 4.897023e+03 
4.493598e-03 6.161537e+03 
5.701664e-03 7.164872e+03 
6.909730e-03 7.934803e+03 
8.117797e-03 8.511546e+03 
9.325863e-03 8.916092e+03 
1.053393e-02 9.172527e+03 
1.174199e-02 9.305486e+03 
1.295006e-02 9.329565e+03 
1.415813e-02 9.265798e+03 
1.536619e-02 9.133042e+03 
1.657426e-02 8.943652e+03 
1.778233e-02 8.708940e+03 
1.899039e-02 8.446859e+03 
2.019846e-02 8.167556e+03 
2.140652e-02 7.880581e+03 
2.261459e-02 7.590971e+03 
2.382266e-02 7.305968e+03 
2.503072e-02 7.031593e+03 
2.623879e-02 6.771018e+03 
2.744685e-02 6.525598e+03 
2.865492e-02 6.297946e+03 
2.986299e-02 6.088262e+03 
3.100100e-02 5.907536e+03 
3.220400e-02 5.733529e+03 
3.288100e-02 5.643261e+03 
3.424300e-02 5.476739e+03 
3.555100e-02 5.333417e+03 
3.686000e-02 5.204327e+03 
3.795000e-02 5.105899e+03 
3.929100e-02 4.994382e+03 
4.039800e-02 4.907999e+03 
4.164000e-02 4.815505e+03 
4.294400e-02 4.720444e+03 
4.415000e-02 4.634056e+03 
4.542900e-02 4.540584e+03 
4.660900e-02 4.453708e+03 
4.782300e-02 4.359616e+03 
4.892900e-02 4.272005e+03 
5.031200e-02 4.158349e+03 
5.155900e-02 4.051528e+03 
5.238100e-02 3.979417e+03 
5.378200e-02 3.854269e+03 
5.513400e-02 3.731210e+03 
5.627600e-02 3.626787e+03 
5.735300e-02 3.529166e+03 
5.870100e-02 3.409336e+03 
5.988700e-02 3.307298e+03 
6.113500e-02 3.203548e+03 
6.225900e-02 3.113413e+03 
6.340100e-02 3.025030e+03 
6.480200e-02 2.920978e+03 
6.601100e-02 2.835179e+03 
6.725500e-02 2.751187e+03 
6.829100e-02 2.685137e+03 
6.958600e-02 2.607496e+03 
7.071100e-02 2.545165e+03 
7.192300e-02 2.483190e+03 
7.307400e-02 2.429277e+03 
7.412300e-02 2.384156e+03 
7.550400e-02 2.330676e+03 
7.663100e-02 2.291013e+03 
7.791200e-02 2.250797e+03 
7.912700e-02 2.216503e+03 
8.027600e-02 2.186640e+03 
8.138400e-02 2.159713e+03 
8.272200e-02 2.129178e+03 
8.406100e-02 2.100029e+03 
8.534100e-02 2.072696e+03 
8.653800e-02 2.046851e+03 
8.759800e-02 2.023618e+03 
8.900300e-02 1.991866e+03 
9.009000e-02 1.966133e+03 
9.113300e-02 1.940045e+03 
9.239600e-02 1.907487e+03 
9.358000e-02 1.875471e+03 
9.496100e-02 1.835855e+03 
9.608400e-02 1.802791e+03 
9.727500e-02 1.767298e+03 
9.852600e-02 1.728054e+03 
9.973800e-02 1.690159e+03 
1.009000e-01 1.654053e+03 
1.020900e-01 1.616608e+03 
1.034000e-01 1.576320e+03 
1.046000e-01 1.540224e+03 
1.057200e-01 1.507442e+03 
1.069100e-01 1.473723e+03 
1.082500e-01 1.437415e+03 
1.093900e-01 1.408117e+03 
1.105400e-01 1.379758e+03 
1.116900e-01 1.353432e+03 
1.129600e-01 1.325702e+03 
1.142000e-01 1.300921e+03 
1.153300e-01 1.279689e+03 
1.166400e-01 1.256892e+03 
1.177800e-01 1.238816e+03 
1.190000e-01 1.220528e+03 
1.201200e-01 1.205519e+03 
1.213400e-01 1.189802e+03 
1.227100e-01 1.174233e+03 
1.238900e-01 1.161397e+03 
1.250700e-01 1.149578e+03 
1.263200e-01 1.137466e+03 
1.275500e-01 1.126083e+03 
1.287500e-01 1.115127e+03 
1.299900e-01 1.103890e+03 
1.311300e-01 1.093408e+03 
1.323500e-01 1.081861e+03 
1.335900e-01 1.069766e+03 
1.347100e-01 1.058252e+03 
1.359800e-01 1.044859e+03 
1.372100e-01 1.030938e+03 
1.384300e-01 1.016923e+03 
1.395700e-01 1.002884e+03 
1.407700e-01 9.882799e+02 
1.420300e-01 9.718203e+02 
1.432800e-01 9.558738e+02 
1.444500e-01 9.402799e+02 
1.456300e-01 9.249025e+02 
1.468900e-01 9.086109e+02 
1.480500e-01 8.938801e+02 
1.491700e-01 8.800719e+02 
1.503800e-01 8.656173e+02 
1.516400e-01 8.510524e+02 
1.528200e-01 8.383536e+02 
1.540200e-01 8.257097e+02 
1.551900e-01 8.144558e+02 
1.564300e-01 8.029688e+02 
1.576600e-01 7.922852e+02 
1.588700e-01 7.825566e+02 
1.600900e-01 7.729820e+02 
1.612700e-01 7.647334e+02 
1.625400e-01 7.560218e+02 
1.637600e-01 7.481460e+02 
1.649500e-01 7.407981e+02 
1.662200e-01 7.331262e+02 
1.674000e-01 7.262788e+02 
1.685000e-01 7.200015e+02 
1.697500e-01 7.129050e+02 
1.710300e-01 7.056858e+02 
1.722200e-01 6.990926e+02 
1.734400e-01 6.920595e+02 
1.746400e-01 6.852442e+02 
1.758700e-01 6.782143e+02 
1.770900e-01 6.710280e+02 
1.782700e-01 6.641947e+02 
1.794600e-01 6.571329e+02 
1.807000e-01 6.497082e+02 
1.819100e-01 6.425878e+02 
1.830100e-01 6.359346e+02 
1.842200e-01 6.286863e+02 
1.855000e-01 6.211434e+02 
1.867000e-01 6.139928e+02 
1.879200e-01 6.068459e+02 
1.890900e-01 6.000972e+02 
1.902800e-01 5.933006e+02 
1.915200e-01 5.863370e+02 
1.926900e-01 5.798924e+02 
1.939000e-01 5.733923e+02 
1.951700e-01 5.666839e+02 
1.963100e-01 5.608002e+02 
1.975100e-01 5.548119e+02 
1.987800e-01 5.485770e+02 
2.000100e-01 5.426934e+02 
2.012500e-01 5.369873e+02 
2.023400e-01 5.320461e+02 
2.036100e-01 5.264114e+02 
2.048900e-01 5.209640e+02 
2.060400e-01 5.161437e+02 
2.072200e-01 5.112787e+02 
2.084200e-01 5.065247e+02 
2.096900e-01 5.015686e+02 
2.109200e-01 4.968409e+02 
2.121100e-01 4.924044e+02 
2.132700e-01 4.881438e+02 
2.145200e-01 4.836178e+02 
2.157200e-01 4.793489e+02 
2.168800e-01 4.752853e+02 
2.180700e-01 4.711735e+02 
2.193400e-01 4.668395e+02 
2.206000e-01 4.625873e+02 
2.217500e-01 4.587598e+02 
2.229500e-01 4.548192e+02 
2.241400e-01 4.509139e+02 
2.253500e-01 4.469955e+02 
2.264900e-01 4.433524e+02 
2.277100e-01 4.394754e+02 
2.289900e-01 4.354313e+02 
2.301500e-01 4.318160e+02 
2.313600e-01 4.280937e+02 
2.325600e-01 4.243906e+02 
2.337700e-01 4.207061e+02 
2.350000e-01 4.170107e+02 
2.362000e-01 4.134325e+02 
2.374100e-01 4.098475e+02 
2.386500e-01 4.062222e+02 
2.399100e-01 4.025880e+02 
2.410400e-01 3.993494e+02 
2.422500e-01 3.959223e+02 
2.435000e-01 3.924281e+02 
2.447300e-01 3.890333e+02 
2.458700e-01 3.859192e+02 
2.470600e-01 3.827083e+02 
2.483300e-01 3.793256e+02 
2.495600e-01 3.760961e+02 
2.507600e-01 3.729905e+02 
2.519600e-01 3.699232e+02 
2.532200e-01 3.667432e+02 
2.543700e-01 3.638882e+02 
2.555500e-01 3.610013e+02 
2.568000e-01 3.579806e+02 
2.580100e-01 3.550927e+02 
2.592400e-01 3.522077e+02 
2.604100e-01 3.495028e+02 
2.616100e-01 3.467610e+02 
2.628400e-01 3.439842e+02 
2.640600e-01 3.412828e+02 
2.652200e-01 3.387517e+02 
2.664300e-01 3.361419e+02 
2.676500e-01 3.335412e+02 
2.688400e-01 3.310473e+02 
2.700700e-01 3.285075e+02 
2.712400e-01 3.261192e+02 
2.724800e-01 3.236168e+02 
2.736700e-01 3.212516e+02 
2.748800e-01 3.188829e+02 
2.761000e-01 3.165216e+02 
2.773200e-01 3.141870e+02 
2.785400e-01 3.118823e+02 
2.797000e-01 3.097227e+02 
2.808900e-01 3.075309e+02 
2.821400e-01 3.052542e+02 
2.833900e-01 3.030035e+02 
2.845500e-01 3.009427e+02 
2.857800e-01 2.987810e+02 
2.870300e-01 2.966085e+02 
2.882100e-01 2.945798e+02 
2.893900e-01 2.925745e+02 
2.906300e-01 2.904909e+02 
2.918900e-01 2.883969e+02 
2.930500e-01 2.864896e+02 
2.942500e-01 2.845362e+02 
2.954200e-01 2.826496e+02 
2.966500e-01 2.806869e+02 
2.978900e-01 2.787293e+02 
2.990400e-01 2.769324e+02 
3.002700e-01 2.750282e+02 
3.015100e-01 2.731278e+02 
3.026800e-01 2.713530e+02 
3.038500e-01 2.695957e+02 
3.050300e-01 2.678410e+02 
3.062600e-01 2.660250e+02 
3.075000e-01 2.642132e+02 
3.087000e-01 2.624776e+02 
3.099100e-01 2.607452e+02 
3.111200e-01 2.590287e+02 
3.123100e-01 2.573550e+02 
3.135300e-01 2.556562e+02 
3.147300e-01 2.540017e+02 
3.159900e-01 2.522820e+02 
3.171800e-01 2.506730e+02 
3.183700e-01 2.490788e+02 
3.196300e-01 2.474076e+02 
3.208400e-01 2.458187e+02 
3.220300e-01 2.442710e+02 
3.232000e-01 2.427637e+02 
3.244300e-01 2.411941e+02 
3.256700e-01 2.396273e+02 
3.269200e-01 2.380634e+02 
3.280800e-01 2.366259e+02 
3.292500e-01 2.351909e+02 
3.304800e-01 2.336968e+02 
3.317100e-01 2.322171e+02 
3.328900e-01 2.308109e+02 
3.340700e-01 2.294175e+02 
3.353600e-01 2.279115e+02 
3.365300e-01 2.265596e+02 
3.377100e-01 2.252084e+02 
3.389200e-01 2.238355e+02 
3.401600e-01 2.224416e+02 
3.413700e-01 2.210986e+02 
3.425300e-01 2.198257e+02 
3.437700e-01 2.184772e+02 
3.449800e-01 2.171734e+02 
3.461800e-01 2.158920e+02 
3.473600e-01 2.146452e+02 
3.485800e-01 2.133728e+02 
3.498100e-01 2.121015e+02 
3.510200e-01 2.108621e+02 
3.522000e-01 2.096640e+02 
3.533900e-01 2.084662e+02 
3.546400e-01 2.072285e+02 
3.558400e-01 2.060514e+02 
3.570600e-01 2.048650e+02 
3.582700e-01 2.036987e+02 
3.595000e-01 2.025234e+02 
3.607100e-01 2.013830e+02 
3.618900e-01 2.002848e+02 
3.631200e-01 1.991498e+02 
3.643200e-01 1.980519e+02 
3.655500e-01 1.969362e+02 
3.667300e-01 1.958749e+02 
3.679500e-01 1.947969e+02 
3.691900e-01 1.937106e+02 
3.703600e-01 1.926941e+02 
3.715700e-01 1.916515e+02 
3.727700e-01 1.906261e+02 
3.739900e-01 1.895957e+02 
3.752000e-01 1.885886e+02 
3.763900e-01 1.876062e+02 
3.775800e-01 1.866317e+02 
3.788200e-01 1.856246e+02 
3.800300e-01 1.846500e+02 
3.812100e-01 1.837126e+02 
3.824200e-01 1.827628e+02 
3.836100e-01 1.818362e+02 
3.848600e-01 1.808707e+02 
3.860400e-01 1.799666e+02 
3.872400e-01 1.790544e+02 
3.884600e-01 1.781410e+02 
3.896500e-01 1.772596e+02 
3.908700e-01 1.763631e+02 
3.920600e-01 1.754954e+02 
3.933100e-01 1.745912e+02 
3.945300e-01 1.737158e+02 
3.957200e-01 1.728752e+02 
3.969300e-01 1.720290e+02 
3.981700e-01 1.711686e+02 
3.993500e-01 1.703561e+02 
4.094840e-01 1.636545e+02 
4.272360e-01 1.530513e+02 
4.454600e-01 1.433895e+02 
4.630560e-01 1.350419e+02 
4.804610e-01 1.275817e+02 
4.980690e-01 1.207257e+02 
5.159230e-01 1.143872e+02 
5.317440e-01 1.092254e+02 
5.489640e-01 1.040389e+02 
5.671990e-01 9.898800e+01 
5.838690e-01 9.472251e+01 
6.018840e-01 9.045780e+01 
6.202330e-01 8.644775e+01 
6.379250e-01 8.286387e+01 
6.545410e-01 7.973482e+01 
6.714560e-01 7.675885e+01 
6.892080e-01 7.384472e+01 
7.066010e-01 7.118209e+01 
7.240540e-01 6.868122e+01 
7.420450e-01 6.627150e+01 
7.593780e-01 6.409747e+01 
7.764720e-01 6.208072e+01 
7.942840e-01 6.010486e+01 
8.116170e-01 5.829654e+01 
8.288310e-01 5.660296e+01 
8.462240e-01 5.498628e+01 
8.631980e-01 5.349412e+01 
8.810700e-01 5.200739e+01 
8.989410e-01 5.060014e+01 
9.166330e-01 4.927981e+01 
9.345640e-01 4.801072e+01 
9.515980e-01 4.686392e+01 
9.688720e-01 4.575640e+01 
9.865640e-01 4.467629e+01 
1.031870e+00 4.212761e+01 
1.063490e+00 4.051601e+01 
1.097920e+00 3.889873e+01 
1.134370e+00 3.732027e+01 
1.167730e+00 3.598458e+01 
1.203830e+00 3.464302e+01 
1.240470e+00 3.337897e+01 
1.275790e+00 3.224402e+01 
1.309140e+00 3.124012e+01 
1.342970e+00 3.028227e+01 
1.378420e+00 2.933824e+01 
1.413200e+00 2.846586e+01 
1.448110e+00 2.763869e+01 
1.484090e+00 2.683296e+01 
1.518820e+00 2.609675e+01 
1.552880e+00 2.541045e+01 
1.588630e+00 2.472550e+01 
1.623230e+00 2.409457e+01 
1.657720e+00 2.349517e+01 
1.692450e+00 2.291853e+01 
1.726400e+00 2.237935e+01 
1.762200e+00 2.183486e+01 
1.797880e+00 2.131562e+01 
1.833270e+00 2.082238e+01 
1.869070e+00 2.034356e+01 
1.903200e+00 1.990509e+01 
1.937740e+00 1.947835e+01 
1.973190e+00 1.905639e+01 
2.007440e+00 1.866373e+01 
2.042160e+00 1.827982e+01 
2.077900e+00 1.789861e+01 
2.112390e+00 1.754375e+01 
2.146220e+00 1.720691e+01 
2.181600e+00 1.686631e+01 
2.216930e+00 1.653726e+01 
2.250760e+00 1.623219e+01 
2.286500e+00 1.592019e+01 
2.321770e+00 1.562213e+01 
2.355950e+00 1.534177e+01 
2.391280e+00 1.506039e+01 
2.426240e+00 1.479014e+01 
2.460670e+00 1.453180e+01 
2.495640e+00 1.427711e+01 
2.531080e+00 1.402566e+01 
2.566220e+00 1.378338e+01 
2.600830e+00 1.355137e+01 
2.635080e+00 1.332797e+01 
2.670340e+00 1.310360e+01 
2.705970e+00 1.288292e+01 
2.740040e+00 1.267746e+01 
2.774520e+00 1.247450e+01 
2.809730e+00 1.227224e+01 
2.844390e+00 1.207828e+01 
2.879960e+00 1.188404e+01 
2.914860e+00 1.169775e+01 
2.949410e+00 1.151792e+01 
2.984440e+00 1.133964e+01 
3.019760e+00 1.116412e+01 
3.054730e+00 1.099465e+01 
3.089030e+00 1.083143e+01 
3.124060e+00 1.066871e+01 
3.159560e+00 1.050750e+01 
3.194710e+00 1.035123e+01 
3.229010e+00 1.020238e+01 
3.263320e+00 1.005591e+01 
3.297930e+00 9.911580e+00 
3.332830e+00 9.769010e+00 
3.368040e+00 9.628084e+00 
3.403300e+00 9.489990e+00 
3.438450e+00 9.354888e+00 
3.473060e+00 9.224941e+00 
3.508440e+00 9.094067e+00 
3.543110e+00 8.968772e+00 
3.577470e+00 8.846622e+00 
3.613040e+00 8.722905e+00 
3.648120e+00 8.602987e+00 
3.682910e+00 8.486512e+00 
3.718050e+00 8.370951e+00 
3.753320e+00 8.257228e+00 
3.787980e+00 8.147397e+00 
3.822290e+00 8.040749e+00 
3.857020e+00 7.934641e+00 
3.891920e+00 7.830064e+00 
3.926650e+00 7.727710e+00 
3.961970e+00 7.625630e+00 
3.997360e+00 7.524921e+00 
4.031670e+00 7.429238e+00 
4.066330e+00 7.333960e+00 
4.101420e+00 7.239517e+00 
4.136200e+00 7.147060e+00 
4.170810e+00 7.056970e+00 
4.206250e+00 6.965989e+00 
4.241580e+00 6.877067e+00 
4.276300e+00 6.791037e+00 
4.310970e+00 6.706623e+00 
4.346120e+00 6.622494e+00 
4.380600e+00 6.541161e+00 
4.414730e+00 6.462212e+00 
4.450350e+00 6.380830e+00 
4.485320e+00 6.302520e+00 
4.519810e+00 6.226329e+00 
4.555430e+00 6.148969e+00 
4.590870e+00 6.073315e+00 
4.625480e+00 6.000454e+00 
4.659910e+00 5.929334e+00 
4.695230e+00 5.857281e+00 
4.729960e+00 5.787693e+00 
4.764450e+00 5.719679e+00 
4.799530e+00 5.651471e+00 
4.834910e+00 5.583956e+00 
4.869700e+00 5.518355e+00 
4.904370e+00 5.454091e+00 
4.939450e+00 5.390122e+00 
4.973940e+00 5.328046e+00 
5.008430e+00 5.267065e+00 
5.043810e+00 5.205357e+00 
5.078840e+00 5.145194e+00 
5.113500e+00 5.086708e+00 
5.148890e+00 5.027622e+00 
5.184210e+00 4.969670e+00 
5.219060e+00 4.913405e+00 
5.253660e+00 4.858285e+00 
5.288570e+00 4.803615e+00 
5.323420e+00 4.749793e+00 
5.358440e+00 4.696431e+00 
5.393590e+00 4.643773e+00 
5.428310e+00 4.592443e+00 
5.462800e+00 4.542194e+00 
5.497640e+00 4.492266e+00 
5.532670e+00 4.442680e+00 
5.567280e+00 4.394418e+00 
5.602000e+00 4.346783e+00 
5.637270e+00 4.298981e+00 
5.672410e+00 4.252081e+00 
5.707020e+00 4.206626e+00 
5.742040e+00 4.161184e+00 
5.777430e+00 4.115959e+00 
5.812210e+00 4.072215e+00 
5.846820e+00 4.029207e+00 
5.881610e+00 3.986606e+00 
5.916510e+00 3.944530e+00 
5.951600e+00 3.902769e+00 
5.986560e+00 3.861755e+00 
6.021830e+00 3.821012e+00 
6.056490e+00 3.781487e+00 
6.091160e+00 3.742463e+00 
6.125830e+00 3.704022e+00 
6.161090e+00 3.665479e+00 
6.195760e+00 3.628075e+00 
6.230420e+00 3.591231e+00 
6.265690e+00 3.554288e+00 
6.300950e+00 3.517782e+00 
6.335620e+00 3.482412e+00 
6.370880e+00 3.446964e+00 
6.405550e+00 3.412544e+00 
6.440220e+00 3.378587e+00 
6.475480e+00 3.344548e+00 
6.510150e+00 3.311540e+00 
6.544810e+00 3.278966e+00 
6.580080e+00 3.246288e+00 
6.614750e+00 3.214619e+00 
6.649410e+00 3.183341e+00 
6.684080e+00 3.152475e+00 
6.719340e+00 3.121521e+00 
6.754010e+00 3.091491e+00 
6.788680e+00 3.061838e+00 
6.823940e+00 3.032093e+00 
6.859800e+00 3.002262e+00 
6.894470e+00 2.973790e+00 
6.929140e+00 2.945691e+00 
6.963800e+00 2.917975e+00 
6.999070e+00 2.890148e+00 
7.033730e+00 2.863149e+00 
7.068400e+00 2.836497e+00 
7.103660e+00 2.809751e+00 
7.138330e+00 2.783794e+00 
7.173600e+00 2.757723e+00 
7.208260e+00 2.732438e+00 
7.243530e+00 2.707042e+00 
7.277600e+00 2.682826e+00 
7.312860e+00 2.658084e+00 
7.348120e+00 2.633662e+00 
7.382790e+00 2.609956e+00 
7.417460e+00 2.586542e+00 
7.452720e+00 2.563028e+00 
7.487390e+00 2.540199e+00 
7.522650e+00 2.517273e+00 
7.557320e+00 2.495034e+00 
7.591990e+00 2.473076e+00 
7.627250e+00 2.451021e+00 
7.662510e+00 2.429241e+00 
7.697180e+00 2.408108e+00 
7.731850e+00 2.387238e+00 
7.766510e+00 2.366627e+00 
7.801180e+00 2.346258e+00 
7.836440e+00 2.325802e+00 
7.871110e+00 2.305936e+00 
7.906380e+00 2.285969e+00 
7.941040e+00 2.266582e+00 
7.976310e+00 2.247103e+00 
8.011570e+00 2.227879e+00 
8.046240e+00 2.209201e+00 
8.080900e+00 2.190745e+00 
8.115570e+00 2.172508e+00 
8.150830e+00 2.154214e+00 
8.185500e+00 2.136436e+00 
8.220770e+00 2.118559e+00 
8.255430e+00 2.101193e+00 
8.290100e+00 2.084046e+00 
8.324770e+00 2.067097e+00 
8.359430e+00 2.050343e+00 
8.394700e+00 2.033488e+00 
8.429960e+00 2.016852e+00 
8.464630e+00 2.000702e+00 
8.499890e+00 1.984461e+00 
8.534560e+00 1.968670e+00 
8.569200e+00 1.953066e+00 
