# Parameters:
# omega_b = 0.023484, omega_m = 0.149213, n_s = 0.911417, h = 70.354331, w = -1.000000, sigma_8 = 0.832283
# z = 1.900000
#
# k[1/Mpc] # P(k):
8.694000e-04 3.377297e+03 
2.077466e-03 6.932374e+03 
3.285532e-03 9.630873e+03 
4.493598e-03 1.168143e+04 
5.701664e-03 1.318974e+04 
6.909730e-03 1.425212e+04 
8.117797e-03 1.497028e+04 
9.325863e-03 1.539635e+04 
1.053393e-02 1.558026e+04 
1.174199e-02 1.556731e+04 
1.295006e-02 1.538659e+04 
1.415813e-02 1.507649e+04 
1.536619e-02 1.466904e+04 
1.657426e-02 1.418591e+04 
1.778233e-02 1.364728e+04 
1.899039e-02 1.308330e+04 
2.019846e-02 1.250997e+04 
2.140652e-02 1.194171e+04 
2.261459e-02 1.138625e+04 
2.382266e-02 1.085372e+04 
2.503072e-02 1.035162e+04 
2.623879e-02 9.883050e+03 
2.744685e-02 9.449029e+03 
2.865492e-02 9.051736e+03 
2.986299e-02 8.689959e+03 
3.100100e-02 8.381287e+03 
3.220400e-02 8.086772e+03 
3.288100e-02 7.935191e+03 
3.424300e-02 7.657536e+03 
3.555100e-02 7.420935e+03 
3.686000e-02 7.210061e+03 
3.795000e-02 7.050819e+03 
3.929100e-02 6.872569e+03 
4.039800e-02 6.735900e+03 
4.164000e-02 6.590886e+03 
4.294400e-02 6.443430e+03 
4.415000e-02 6.310169e+03 
4.542900e-02 6.166743e+03 
4.660900e-02 6.033770e+03 
4.782300e-02 5.890090e+03 
4.892900e-02 5.756536e+03 
5.031200e-02 5.583454e+03 
5.155900e-02 5.421115e+03 
5.238100e-02 5.311704e+03 
5.378200e-02 5.121990e+03 
5.513400e-02 4.935126e+03 
5.627600e-02 4.775580e+03 
5.735300e-02 4.625023e+03 
5.870100e-02 4.437558e+03 
5.988700e-02 4.275493e+03 
6.113500e-02 4.109181e+03 
6.225900e-02 3.964786e+03 
6.340100e-02 3.825180e+03 
6.480200e-02 3.665116e+03 
6.601100e-02 3.538772e+03 
6.725500e-02 3.420463e+03 
6.829100e-02 3.331644e+03 
6.958600e-02 3.230685e+03 
7.071100e-02 3.152529e+03 
7.192300e-02 3.076793e+03 
7.307400e-02 3.012243e+03 
7.412300e-02 2.958941e+03 
7.550400e-02 2.896374e+03 
7.663100e-02 2.850061e+03 
7.791200e-02 2.802740e+03 
7.912700e-02 2.761556e+03 
8.027600e-02 2.724777e+03 
8.138400e-02 2.690681e+03 
8.272200e-02 2.650567e+03 
8.406100e-02 2.610676e+03 
8.534100e-02 2.571531e+03 
8.653800e-02 2.533344e+03 
8.759800e-02 2.498474e+03 
8.900300e-02 2.450217e+03 
9.009000e-02 2.410884e+03 
9.113300e-02 2.371144e+03 
9.239600e-02 2.321810e+03 
9.358000e-02 2.273790e+03 
9.496100e-02 2.215414e+03 
9.608400e-02 2.167417e+03 
9.727500e-02 2.116500e+03 
9.852600e-02 2.061772e+03 
9.973800e-02 2.009737e+03 
1.009000e-01 1.960825e+03 
1.020900e-01 1.911728e+03 
1.034000e-01 1.859721e+03 
1.046000e-01 1.813953e+03 
1.057200e-01 1.773734e+03 
1.069100e-01 1.732853e+03 
1.082500e-01 1.690180e+03 
1.093900e-01 1.656521e+03 
1.105400e-01 1.624388e+03 
1.116900e-01 1.595467e+03 
1.129600e-01 1.565259e+03 
1.142000e-01 1.538853e+03 
1.153300e-01 1.516313e+03 
1.166400e-01 1.492255e+03 
1.177800e-01 1.473019e+03 
1.190000e-01 1.453476e+03 
1.201200e-01 1.436829e+03 
1.213400e-01 1.419278e+03 
1.227100e-01 1.400573e+03 
1.238900e-01 1.384832e+03 
1.250700e-01 1.369274e+03 
1.263200e-01 1.352933e+03 
1.275500e-01 1.336684e+03 
1.287500e-01 1.320725e+03 
1.299900e-01 1.303861e+03 
1.311300e-01 1.288098e+03 
1.323500e-01 1.270687e+03 
1.335900e-01 1.252702e+03 
1.347100e-01 1.235900e+03 
1.359800e-01 1.216712e+03 
1.372100e-01 1.197442e+03 
1.384300e-01 1.178384e+03 
1.395700e-01 1.160054e+03 
1.407700e-01 1.141100e+03 
1.420300e-01 1.120745e+03 
1.432800e-01 1.101039e+03 
1.444500e-01 1.082605e+03 
1.456300e-01 1.064431e+03 
1.468900e-01 1.045626e+03 
1.480500e-01 1.028752e+03 
1.491700e-01 1.013076e+03 
1.503800e-01 9.968475e+02 
1.516400e-01 9.805145e+02 
1.528200e-01 9.663755e+02 
1.540200e-01 9.522933e+02 
1.551900e-01 9.397232e+02 
1.564300e-01 9.268815e+02 
1.576600e-01 9.148596e+02 
1.588700e-01 9.038156e+02 
1.600900e-01 8.929321e+02 
1.612700e-01 8.833069e+02 
1.625400e-01 8.731419e+02 
1.637600e-01 8.637764e+02 
1.649500e-01 8.549321e+02 
1.662200e-01 8.456602e+02 
1.674000e-01 8.371694e+02 
1.685000e-01 8.293868e+02 
1.697500e-01 8.205115e+02 
1.710300e-01 8.114080e+02 
1.722200e-01 8.030956e+02 
1.734400e-01 7.941873e+02 
1.746400e-01 7.855560e+02 
1.758700e-01 7.766783e+02 
1.770900e-01 7.676509e+02 
1.782700e-01 7.590707e+02 
1.794600e-01 7.502834e+02 
1.807000e-01 7.410980e+02 
1.819100e-01 7.322932e+02 
1.830100e-01 7.242007e+02 
1.842200e-01 7.154092e+02 
1.855000e-01 7.062712e+02 
1.867000e-01 6.977713e+02 
1.879200e-01 6.892783e+02 
1.890900e-01 6.812837e+02 
1.902800e-01 6.733529e+02 
1.915200e-01 6.652286e+02 
1.926900e-01 6.577362e+02 
1.939000e-01 6.502618e+02 
1.951700e-01 6.425485e+02 
1.963100e-01 6.357996e+02 
1.975100e-01 6.289735e+02 
1.987800e-01 6.218665e+02 
2.000100e-01 6.151634e+02 
2.012500e-01 6.086707e+02 
2.023400e-01 6.030484e+02 
2.036100e-01 5.966306e+02 
2.048900e-01 5.904007e+02 
2.060400e-01 5.848883e+02 
2.072200e-01 5.793208e+02 
2.084200e-01 5.738290e+02 
2.096900e-01 5.681043e+02 
2.109200e-01 5.626438e+02 
2.121100e-01 5.574603e+02 
2.132700e-01 5.524796e+02 
2.145200e-01 5.471894e+02 
2.157200e-01 5.421641e+02 
2.168800e-01 5.373645e+02 
2.180700e-01 5.325086e+02 
2.193400e-01 5.273793e+02 
2.206000e-01 5.223255e+02 
2.217500e-01 5.177772e+02 
2.229500e-01 5.130956e+02 
2.241400e-01 5.084462e+02 
2.253500e-01 5.037819e+02 
2.264900e-01 4.994463e+02 
2.277100e-01 4.948391e+02 
2.289900e-01 4.900407e+02 
2.301500e-01 4.857520e+02 
2.313600e-01 4.813376e+02 
2.325600e-01 4.769723e+02 
2.337700e-01 4.726299e+02 
2.350000e-01 4.682755e+02 
2.362000e-01 4.640739e+02 
2.374100e-01 4.598812e+02 
2.386500e-01 4.556422e+02 
2.399100e-01 4.513937e+02 
2.410400e-01 4.476340e+02 
2.422500e-01 4.436592e+02 
2.435000e-01 4.396074e+02 
2.447300e-01 4.356762e+02 
2.458700e-01 4.320903e+02 
2.470600e-01 4.283932e+02 
2.483300e-01 4.244989e+02 
2.495600e-01 4.207892e+02 
2.507600e-01 4.172330e+02 
2.519600e-01 4.137210e+02 
2.532200e-01 4.100803e+02 
2.543700e-01 4.068195e+02 
2.555500e-01 4.035277e+02 
2.568000e-01 4.000836e+02 
2.580100e-01 3.967912e+02 
2.592400e-01 3.935074e+02 
2.604100e-01 3.904309e+02 
2.616100e-01 3.873127e+02 
2.628400e-01 3.841550e+02 
2.640600e-01 3.810852e+02 
2.652200e-01 3.782101e+02 
2.664300e-01 3.752457e+02 
2.676500e-01 3.722919e+02 
2.688400e-01 3.694596e+02 
2.700700e-01 3.665754e+02 
2.712400e-01 3.638634e+02 
2.724800e-01 3.610220e+02 
2.736700e-01 3.583356e+02 
2.748800e-01 3.556441e+02 
2.761000e-01 3.529612e+02 
2.773200e-01 3.503088e+02 
2.785400e-01 3.476901e+02 
2.797000e-01 3.452352e+02 
2.808900e-01 3.427440e+02 
2.821400e-01 3.401563e+02 
2.833900e-01 3.375984e+02 
2.845500e-01 3.352538e+02 
2.857800e-01 3.327946e+02 
2.870300e-01 3.303233e+02 
2.882100e-01 3.280158e+02 
2.893900e-01 3.257342e+02 
2.906300e-01 3.233633e+02 
2.918900e-01 3.209807e+02 
2.930500e-01 3.188107e+02 
2.942500e-01 3.165886e+02 
2.954200e-01 3.144431e+02 
2.966500e-01 3.122110e+02 
2.978900e-01 3.099850e+02 
2.990400e-01 3.079419e+02 
3.002700e-01 3.057781e+02 
3.015100e-01 3.036195e+02 
3.026800e-01 3.016037e+02 
3.038500e-01 2.996080e+02 
3.050300e-01 2.976152e+02 
3.062600e-01 2.955562e+02 
3.075000e-01 2.935020e+02 
3.087000e-01 2.915345e+02 
3.099100e-01 2.895705e+02 
3.111200e-01 2.876262e+02 
3.123100e-01 2.857326e+02 
3.135300e-01 2.838106e+02 
3.147300e-01 2.819389e+02 
3.159900e-01 2.799936e+02 
3.171800e-01 2.781759e+02 
3.183700e-01 2.763765e+02 
3.196300e-01 2.744903e+02 
3.208400e-01 2.726970e+02 
3.220300e-01 2.709504e+02 
3.232000e-01 2.692516e+02 
3.244300e-01 2.674836e+02 
3.256700e-01 2.657188e+02 
3.269200e-01 2.639573e+02 
3.280800e-01 2.623383e+02 
3.292500e-01 2.607243e+02 
3.304800e-01 2.590448e+02 
3.317100e-01 2.573815e+02 
3.328900e-01 2.558007e+02 
3.340700e-01 2.542345e+02 
3.353600e-01 2.525432e+02 
3.365300e-01 2.510256e+02 
3.377100e-01 2.495087e+02 
3.389200e-01 2.479675e+02 
3.401600e-01 2.464029e+02 
3.413700e-01 2.448958e+02 
3.425300e-01 2.434677e+02 
3.437700e-01 2.419549e+02 
3.449800e-01 2.404923e+02 
3.461800e-01 2.390549e+02 
3.473600e-01 2.376563e+02 
3.485800e-01 2.362289e+02 
3.498100e-01 2.348029e+02 
3.510200e-01 2.334127e+02 
3.522000e-01 2.320689e+02 
3.533900e-01 2.307254e+02 
3.546400e-01 2.293364e+02 
3.558400e-01 2.280154e+02 
3.570600e-01 2.266842e+02 
3.582700e-01 2.253754e+02 
3.595000e-01 2.240567e+02 
3.607100e-01 2.227762e+02 
3.618900e-01 2.215425e+02 
3.631200e-01 2.202675e+02 
3.643200e-01 2.190343e+02 
3.655500e-01 2.177811e+02 
3.667300e-01 2.165890e+02 
3.679500e-01 2.153766e+02 
3.691900e-01 2.141549e+02 
3.703600e-01 2.130118e+02 
3.715700e-01 2.118393e+02 
3.727700e-01 2.106863e+02 
3.739900e-01 2.095269e+02 
3.752000e-01 2.083921e+02 
3.763900e-01 2.072853e+02 
3.775800e-01 2.061874e+02 
3.788200e-01 2.050529e+02 
3.800300e-01 2.039549e+02 
3.812100e-01 2.028980e+02 
3.824200e-01 2.018263e+02 
3.836100e-01 2.007807e+02 
3.848600e-01 1.996914e+02 
3.860400e-01 1.986715e+02 
3.872400e-01 1.976424e+02 
3.884600e-01 1.966105e+02 
3.896500e-01 1.956142e+02 
3.908700e-01 1.946009e+02 
3.920600e-01 1.936203e+02 
3.933100e-01 1.925984e+02 
3.945300e-01 1.916090e+02 
3.957200e-01 1.906576e+02 
3.969300e-01 1.896995e+02 
3.981700e-01 1.887253e+02 
3.993500e-01 1.878054e+02 
4.094840e-01 1.802144e+02 
4.272360e-01 1.681824e+02 
4.454600e-01 1.572242e+02 
4.630560e-01 1.477765e+02 
4.804610e-01 1.393637e+02 
4.980690e-01 1.316666e+02 
5.159230e-01 1.245846e+02 
5.317440e-01 1.188414e+02 
5.489640e-01 1.130948e+02 
5.671990e-01 1.075223e+02 
5.838690e-01 1.028297e+02 
6.018840e-01 9.815197e+01 
6.202330e-01 9.376514e+01 
6.379250e-01 8.984971e+01 
6.545410e-01 8.643712e+01 
6.714560e-01 8.319465e+01 
6.892080e-01 8.002101e+01 
7.066010e-01 7.712312e+01 
7.240540e-01 7.440175e+01 
7.420450e-01 7.178017e+01 
7.593780e-01 6.941478e+01 
7.764720e-01 6.722058e+01 
7.942840e-01 6.507084e+01 
8.116170e-01 6.310249e+01 
8.288310e-01 6.125846e+01 
8.462240e-01 5.949730e+01 
8.631980e-01 5.787134e+01 
8.810700e-01 5.625057e+01 
8.989410e-01 5.471631e+01 
9.166330e-01 5.327549e+01 
9.345640e-01 5.189031e+01 
9.515980e-01 5.063839e+01 
9.688720e-01 4.942821e+01 
9.865640e-01 4.824772e+01 
1.031870e+00 4.546003e+01 
1.063490e+00 4.369591e+01 
1.097920e+00 4.192388e+01 
1.134370e+00 4.019311e+01 
1.167730e+00 3.872753e+01 
1.203830e+00 3.725489e+01 
1.240470e+00 3.586617e+01 
1.275790e+00 3.461891e+01 
1.309140e+00 3.351554e+01 
1.342970e+00 3.246149e+01 
1.378420e+00 3.142245e+01 
1.413200e+00 3.046226e+01 
1.448110e+00 2.955174e+01 
1.484090e+00 2.866416e+01 
1.518820e+00 2.785340e+01 
1.552880e+00 2.709745e+01 
1.588630e+00 2.634306e+01 
1.623230e+00 2.564775e+01 
1.657720e+00 2.498760e+01 
1.692450e+00 2.435223e+01 
1.726400e+00 2.375853e+01 
1.762200e+00 2.315890e+01 
1.797880e+00 2.258721e+01 
1.833270e+00 2.204407e+01 
1.869070e+00 2.151734e+01 
1.903200e+00 2.103467e+01 
1.937740e+00 2.056509e+01 
1.973190e+00 2.010116e+01 
2.007440e+00 1.966959e+01 
2.042160e+00 1.924760e+01 
2.077900e+00 1.882878e+01 
2.112390e+00 1.843935e+01 
2.146220e+00 1.806953e+01 
2.181600e+00 1.769591e+01 
2.216930e+00 1.733495e+01 
2.250760e+00 1.700054e+01 
2.286500e+00 1.665880e+01 
2.321770e+00 1.633240e+01 
2.355950e+00 1.602536e+01 
2.391280e+00 1.571764e+01 
2.426240e+00 1.542210e+01 
2.460670e+00 1.513972e+01 
2.495640e+00 1.486162e+01 
2.531080e+00 1.458732e+01 
2.566220e+00 1.432294e+01 
2.600830e+00 1.406988e+01 
2.635080e+00 1.382639e+01 
2.670340e+00 1.358224e+01 
2.705970e+00 1.334212e+01 
2.740040e+00 1.311862e+01 
2.774520e+00 1.289804e+01 
2.809730e+00 1.267836e+01 
2.844390e+00 1.246782e+01 
2.879960e+00 1.225718e+01 
2.914860e+00 1.205534e+01 
2.949410e+00 1.186059e+01 
2.984440e+00 1.166754e+01 
3.019760e+00 1.147768e+01 
3.054730e+00 1.129449e+01 
3.089030e+00 1.111822e+01 
3.124060e+00 1.094264e+01 
3.159560e+00 1.076888e+01 
3.194710e+00 1.060049e+01 
3.229010e+00 1.044014e+01 
3.263320e+00 1.028256e+01 
3.297930e+00 1.012736e+01 
3.332830e+00 9.974175e+00 
3.368040e+00 9.822893e+00 
3.403300e+00 9.674760e+00 
3.438450e+00 9.529965e+00 
3.473060e+00 9.390745e+00 
3.508440e+00 9.250733e+00 
3.543110e+00 9.116742e+00 
3.577470e+00 8.986286e+00 
3.613040e+00 8.854210e+00 
3.648120e+00 8.726293e+00 
3.682910e+00 8.602152e+00 
3.718050e+00 8.479163e+00 
3.753320e+00 8.358173e+00 
3.787980e+00 8.241373e+00 
3.822290e+00 8.128057e+00 
3.857020e+00 8.015454e+00 
3.891920e+00 7.904543e+00 
3.926650e+00 7.796091e+00 
3.961970e+00 7.687990e+00 
3.997360e+00 7.581456e+00 
4.031670e+00 7.480291e+00 
4.066330e+00 7.379710e+00 
4.101420e+00 7.280037e+00 
4.136200e+00 7.182577e+00 
4.170810e+00 7.087635e+00 
4.206250e+00 6.991905e+00 
4.241580e+00 6.898387e+00 
4.276300e+00 6.807988e+00 
4.310970e+00 6.719339e+00 
4.346120e+00 6.631060e+00 
4.380600e+00 6.545819e+00 
4.414730e+00 6.463099e+00 
4.450350e+00 6.377912e+00 
4.485320e+00 6.295961e+00 
4.519810e+00 6.216379e+00 
4.555430e+00 6.135652e+00 
4.590870e+00 6.056741e+00 
4.625480e+00 5.980792e+00 
4.659910e+00 5.906674e+00 
4.695230e+00 5.831700e+00 
4.729960e+00 5.759323e+00 
4.764450e+00 5.688654e+00 
4.799530e+00 5.617891e+00 
4.834910e+00 5.547865e+00 
4.869700e+00 5.479877e+00 
4.904370e+00 5.413296e+00 
4.939450e+00 5.347070e+00 
4.973940e+00 5.282904e+00 
5.008430e+00 5.219884e+00 
5.043810e+00 5.156177e+00 
5.078840e+00 5.094108e+00 
5.113500e+00 5.033783e+00 
5.148890e+00 4.972970e+00 
5.184210e+00 4.913344e+00 
5.219060e+00 4.855480e+00 
5.253660e+00 4.798839e+00 
5.288570e+00 4.742674e+00 
5.323420e+00 4.687424e+00 
5.358440e+00 4.632697e+00 
5.393590e+00 4.578703e+00 
5.428310e+00 4.526157e+00 
5.462800e+00 4.474768e+00 
5.497640e+00 4.423718e+00 
5.532670e+00 4.373073e+00 
5.567280e+00 4.323806e+00 
5.602000e+00 4.275189e+00 
5.637270e+00 4.226467e+00 
5.672410e+00 4.178687e+00 
5.707020e+00 4.132388e+00 
5.742040e+00 4.086170e+00 
5.777430e+00 4.040193e+00 
5.812210e+00 3.995732e+00 
5.846820e+00 3.952080e+00 
5.881610e+00 3.908860e+00 
5.916510e+00 3.866183e+00 
5.951600e+00 3.823875e+00 
5.986560e+00 3.782348e+00 
6.021830e+00 3.741104e+00 
6.056490e+00 3.701136e+00 
6.091160e+00 3.661711e+00 
6.125830e+00 3.622882e+00 
6.161090e+00 3.583970e+00 
6.195760e+00 3.546239e+00 
6.230420e+00 3.509080e+00 
6.265690e+00 3.471831e+00 
6.300950e+00 3.435106e+00 
6.335620e+00 3.399529e+00 
6.370880e+00 3.363880e+00 
6.405550e+00 3.329301e+00 
6.440220e+00 3.295206e+00 
6.475480e+00 3.261034e+00 
6.510150e+00 3.227915e+00 
6.544810e+00 3.195265e+00 
6.580080e+00 3.162516e+00 
6.614750e+00 3.130783e+00 
6.649410e+00 3.099478e+00 
6.684080e+00 3.068597e+00 
6.719340e+00 3.037631e+00 
6.754010e+00 3.007610e+00 
6.788680e+00 2.978005e+00 
6.823940e+00 2.948314e+00 
6.859800e+00 2.918541e+00 
6.894470e+00 2.890169e+00 
6.929140e+00 2.862186e+00 
6.963800e+00 2.834589e+00 
6.999070e+00 2.806887e+00 
7.033730e+00 2.780038e+00 
7.068400e+00 2.753538e+00 
7.103660e+00 2.726947e+00 
7.138330e+00 2.701153e+00 
7.173600e+00 2.675268e+00 
7.208260e+00 2.650165e+00 
7.243530e+00 2.624957e+00 
7.277600e+00 2.600944e+00 
7.312860e+00 2.576435e+00 
7.348120e+00 2.552246e+00 
7.382790e+00 2.528768e+00 
7.417460e+00 2.505601e+00 
7.452720e+00 2.482349e+00 
7.487390e+00 2.459776e+00 
7.522650e+00 2.437110e+00 
7.557320e+00 2.415140e+00 
7.591990e+00 2.393457e+00 
7.627250e+00 2.371680e+00 
7.662510e+00 2.350177e+00 
7.697180e+00 2.329339e+00 
7.731850e+00 2.308772e+00 
7.766510e+00 2.288461e+00 
7.801180e+00 2.268391e+00 
7.836440e+00 2.248258e+00 
7.871110e+00 2.228719e+00 
7.906380e+00 2.209083e+00 
7.941040e+00 2.190018e+00 
7.976310e+00 2.170874e+00 
8.011570e+00 2.151993e+00 
8.046240e+00 2.133650e+00 
8.080900e+00 2.115526e+00 
8.115570e+00 2.097623e+00 
8.150830e+00 2.079681e+00 
8.185500e+00 2.062245e+00 
8.220770e+00 2.044714e+00 
8.255430e+00 2.027686e+00 
8.290100e+00 2.010902e+00 
8.324770e+00 1.994315e+00 
8.359430e+00 1.977921e+00 
8.394700e+00 1.961428e+00 
8.429960e+00 1.945159e+00 
8.464630e+00 1.929373e+00 
8.499890e+00 1.913499e+00 
8.534560e+00 1.898066e+00 
8.569200e+00 1.882817e+00 
