# Parameters:
# omega_b = 0.021673, omega_m = 0.153622, n_s = 0.927165, h = 66.574803, w = -1.000000, sigma_8 = 0.819685
# z = 1.900000
#
# k[1/Mpc] # P(k):
8.694000e-04 2.704932e+03 
2.077466e-03 5.641697e+03 
3.285532e-03 7.918058e+03 
4.493598e-03 9.679388e+03 
5.701664e-03 1.100825e+04 
6.909730e-03 1.197410e+04 
8.117797e-03 1.265368e+04 
9.325863e-03 1.308719e+04 
1.053393e-02 1.331516e+04 
1.174199e-02 1.337568e+04 
1.295006e-02 1.329212e+04 
1.415813e-02 1.309577e+04 
1.536619e-02 1.281319e+04 
1.657426e-02 1.246175e+04 
1.778233e-02 1.205755e+04 
1.899039e-02 1.162540e+04 
2.019846e-02 1.117882e+04 
2.140652e-02 1.073014e+04 
2.261459e-02 1.028580e+04 
2.382266e-02 9.854832e+03 
2.503072e-02 9.444467e+03 
2.623879e-02 9.058063e+03 
2.744685e-02 8.696760e+03 
2.865492e-02 8.363219e+03 
2.986299e-02 8.056964e+03 
3.100100e-02 7.793365e+03 
3.220400e-02 7.539609e+03 
3.288100e-02 7.407856e+03 
3.424300e-02 7.164346e+03 
3.555100e-02 6.954247e+03 
3.686000e-02 6.764429e+03 
3.795000e-02 6.619345e+03 
3.929100e-02 6.454634e+03 
4.039800e-02 6.327012e+03 
4.164000e-02 6.190615e+03 
4.294400e-02 6.051173e+03 
4.415000e-02 5.925184e+03 
4.542900e-02 5.790251e+03 
4.660900e-02 5.665874e+03 
4.782300e-02 5.532975e+03 
4.892900e-02 5.410387e+03 
5.031200e-02 5.253091e+03 
5.155900e-02 5.106992e+03 
5.238100e-02 5.009113e+03 
5.378200e-02 4.840272e+03 
5.513400e-02 4.674923e+03 
5.627600e-02 4.534363e+03 
5.735300e-02 4.402021e+03 
5.870100e-02 4.237411e+03 
5.988700e-02 4.094921e+03 
6.113500e-02 3.948025e+03 
6.225900e-02 3.819459e+03 
6.340100e-02 3.693754e+03 
6.480200e-02 3.547650e+03 
6.601100e-02 3.430229e+03 
6.725500e-02 3.318500e+03 
6.829100e-02 3.233243e+03 
6.958600e-02 3.135239e+03 
7.071100e-02 3.058363e+03 
7.192300e-02 2.983118e+03 
7.307400e-02 2.918415e+03 
7.412300e-02 2.864624e+03 
7.550400e-02 2.801087e+03 
7.663100e-02 2.753928e+03 
7.791200e-02 2.705768e+03 
7.912700e-02 2.664146e+03 
8.027600e-02 2.627352e+03 
8.138400e-02 2.593646e+03 
8.272200e-02 2.554638e+03 
8.406100e-02 2.516581e+03 
8.534100e-02 2.480061e+03 
8.653800e-02 2.445029e+03 
8.759800e-02 2.413342e+03 
8.900300e-02 2.369880e+03 
9.009000e-02 2.334686e+03 
9.113300e-02 2.299220e+03 
9.239600e-02 2.255217e+03 
9.358000e-02 2.212352e+03 
9.496100e-02 2.160070e+03 
9.608400e-02 2.116920e+03 
9.727500e-02 2.070997e+03 
9.852600e-02 2.021218e+03 
9.973800e-02 1.973628e+03 
1.009000e-01 1.928674e+03 
1.020900e-01 1.882979e+03 
1.034000e-01 1.834246e+03 
1.046000e-01 1.791021e+03 
1.057200e-01 1.752441e+03 
1.069100e-01 1.712989e+03 
1.082500e-01 1.671135e+03 
1.093900e-01 1.637694e+03 
1.105400e-01 1.605515e+03 
1.116900e-01 1.575988e+03 
1.129600e-01 1.544968e+03 
1.142000e-01 1.517412e+03 
1.153300e-01 1.493783e+03 
1.166400e-01 1.468383e+03 
1.177800e-01 1.448062e+03 
1.190000e-01 1.427413e+03 
1.201200e-01 1.410056e+03 
1.213400e-01 1.391800e+03 
1.227100e-01 1.372941e+03 
1.238900e-01 1.357219e+03 
1.250700e-01 1.342170e+03 
1.263200e-01 1.326553e+03 
1.275500e-01 1.311438e+03 
1.287500e-01 1.296757e+03 
1.299900e-01 1.281499e+03 
1.311300e-01 1.267302e+03 
1.323500e-01 1.251717e+03 
1.335900e-01 1.235583e+03 
1.347100e-01 1.220465e+03 
1.359800e-01 1.203109e+03 
1.372100e-01 1.185504e+03 
1.384300e-01 1.167984e+03 
1.395700e-01 1.150893e+03 
1.407700e-01 1.133176e+03 
1.420300e-01 1.113784e+03 
1.432800e-01 1.095002e+03 
1.444500e-01 1.077084e+03 
1.456300e-01 1.059415e+03 
1.468900e-01 1.040909e+03 
1.480500e-01 1.024236e+03 
1.491700e-01 1.008658e+03 
1.503800e-01 9.924142e+02 
1.516400e-01 9.760415e+02 
1.528200e-01 9.617567e+02 
1.540200e-01 9.475311e+02 
1.551900e-01 9.347817e+02 
1.564300e-01 9.217450e+02 
1.576600e-01 9.095428e+02 
1.588700e-01 8.983352e+02 
1.600900e-01 8.872949e+02 
1.612700e-01 8.775944e+02 
1.625400e-01 8.673503e+02 
1.637600e-01 8.579825e+02 
1.649500e-01 8.491781e+02 
1.662200e-01 8.399686e+02 
1.674000e-01 8.316489e+02 
1.685000e-01 8.240229e+02 
1.697500e-01 8.153872e+02 
1.710300e-01 8.065887e+02 
1.722200e-01 7.985542e+02 
1.734400e-01 7.900257e+02 
1.746400e-01 7.817645e+02 
1.758700e-01 7.732760e+02 
1.770900e-01 7.646624e+02 
1.782700e-01 7.564738e+02 
1.794600e-01 7.480774e+02 
1.807000e-01 7.392930e+02 
1.819100e-01 7.308704e+02 
1.830100e-01 7.230865e+02 
1.842200e-01 7.146215e+02 
1.855000e-01 7.058177e+02 
1.867000e-01 6.975567e+02 
1.879200e-01 6.893010e+02 
1.890900e-01 6.815158e+02 
1.902800e-01 6.737271e+02 
1.915200e-01 6.657474e+02 
1.926900e-01 6.583712e+02 
1.939000e-01 6.509592e+02 
1.951700e-01 6.433099e+02 
1.963100e-01 6.366037e+02 
1.975100e-01 6.297855e+02 
1.987800e-01 6.226867e+02 
2.000100e-01 6.159845e+02 
2.012500e-01 6.094771e+02 
2.023400e-01 6.038421e+02 
2.036100e-01 5.974108e+02 
2.048900e-01 5.911719e+02 
2.060400e-01 5.856515e+02 
2.072200e-01 5.800778e+02 
2.084200e-01 5.746029e+02 
2.096900e-01 5.688957e+02 
2.109200e-01 5.634518e+02 
2.121100e-01 5.583169e+02 
2.132700e-01 5.533845e+02 
2.145200e-01 5.481453e+02 
2.157200e-01 5.431914e+02 
2.168800e-01 5.384703e+02 
2.180700e-01 5.336935e+02 
2.193400e-01 5.286568e+02 
2.206000e-01 5.237113e+02 
2.217500e-01 5.192601e+02 
2.229500e-01 5.146778e+02 
2.241400e-01 5.101415e+02 
2.253500e-01 5.055905e+02 
2.264900e-01 5.013597e+02 
2.277100e-01 4.968646e+02 
2.289900e-01 4.921840e+02 
2.301500e-01 4.880001e+02 
2.313600e-01 4.836930e+02 
2.325600e-01 4.794277e+02 
2.337700e-01 4.751843e+02 
2.350000e-01 4.709285e+02 
2.362000e-01 4.668171e+02 
2.374100e-01 4.627084e+02 
2.386500e-01 4.585539e+02 
2.399100e-01 4.543895e+02 
2.410400e-01 4.506938e+02 
2.422500e-01 4.467850e+02 
2.435000e-01 4.427999e+02 
2.447300e-01 4.389310e+02 
2.458700e-01 4.353933e+02 
2.470600e-01 4.317456e+02 
2.483300e-01 4.279029e+02 
2.495600e-01 4.242383e+02 
2.507600e-01 4.207201e+02 
2.519600e-01 4.172454e+02 
2.532200e-01 4.136430e+02 
2.543700e-01 4.104122e+02 
2.555500e-01 4.071478e+02 
2.568000e-01 4.037320e+02 
2.580100e-01 4.004665e+02 
2.592400e-01 3.972056e+02 
2.604100e-01 3.941489e+02 
2.616100e-01 3.910505e+02 
2.628400e-01 3.879126e+02 
2.640600e-01 3.848592e+02 
2.652200e-01 3.819982e+02 
2.664300e-01 3.790482e+02 
2.676500e-01 3.761086e+02 
2.688400e-01 3.732881e+02 
2.700700e-01 3.704149e+02 
2.712400e-01 3.677130e+02 
2.724800e-01 3.648820e+02 
2.736700e-01 3.622047e+02 
2.748800e-01 3.595216e+02 
2.761000e-01 3.568468e+02 
2.773200e-01 3.542024e+02 
2.785400e-01 3.515912e+02 
2.797000e-01 3.491426e+02 
2.808900e-01 3.466577e+02 
2.821400e-01 3.440765e+02 
2.833900e-01 3.415248e+02 
2.845500e-01 3.391861e+02 
2.857800e-01 3.367329e+02 
2.870300e-01 3.342675e+02 
2.882100e-01 3.319654e+02 
2.893900e-01 3.296891e+02 
2.906300e-01 3.273236e+02 
2.918900e-01 3.249464e+02 
2.930500e-01 3.227812e+02 
2.942500e-01 3.205638e+02 
2.954200e-01 3.184224e+02 
2.966500e-01 3.161946e+02 
2.978900e-01 3.139727e+02 
2.990400e-01 3.119332e+02 
3.002700e-01 3.097726e+02 
3.015100e-01 3.076167e+02 
3.026800e-01 3.056034e+02 
3.038500e-01 3.036101e+02 
3.050300e-01 3.016196e+02 
3.062600e-01 2.995614e+02 
3.075000e-01 2.975080e+02 
3.087000e-01 2.955411e+02 
3.099100e-01 2.935777e+02 
3.111200e-01 2.916332e+02 
3.123100e-01 2.897382e+02 
3.135300e-01 2.878147e+02 
3.147300e-01 2.859416e+02 
3.159900e-01 2.839946e+02 
3.171800e-01 2.821741e+02 
3.183700e-01 2.803711e+02 
3.196300e-01 2.784811e+02 
3.208400e-01 2.766841e+02 
3.220300e-01 2.749338e+02 
3.232000e-01 2.732301e+02 
3.244300e-01 2.714565e+02 
3.256700e-01 2.696861e+02 
3.269200e-01 2.679189e+02 
3.280800e-01 2.662946e+02 
3.292500e-01 2.646740e+02 
3.304800e-01 2.629873e+02 
3.317100e-01 2.613167e+02 
3.328900e-01 2.597290e+02 
3.340700e-01 2.581559e+02 
3.353600e-01 2.564562e+02 
3.365300e-01 2.549306e+02 
3.377100e-01 2.534058e+02 
3.389200e-01 2.518565e+02 
3.401600e-01 2.502836e+02 
3.413700e-01 2.487680e+02 
3.425300e-01 2.473316e+02 
3.437700e-01 2.458099e+02 
3.449800e-01 2.443387e+02 
3.461800e-01 2.428928e+02 
3.473600e-01 2.414858e+02 
3.485800e-01 2.400497e+02 
3.498100e-01 2.386149e+02 
3.510200e-01 2.372161e+02 
3.522000e-01 2.358639e+02 
3.533900e-01 2.345121e+02 
3.546400e-01 2.331145e+02 
3.558400e-01 2.317854e+02 
3.570600e-01 2.304458e+02 
3.582700e-01 2.291289e+02 
3.595000e-01 2.278019e+02 
3.607100e-01 2.265137e+02 
3.618900e-01 2.252727e+02 
3.631200e-01 2.239901e+02 
3.643200e-01 2.227496e+02 
3.655500e-01 2.214889e+02 
3.667300e-01 2.202897e+02 
3.679500e-01 2.190707e+02 
3.691900e-01 2.178422e+02 
3.703600e-01 2.166928e+02 
3.715700e-01 2.155139e+02 
3.727700e-01 2.143544e+02 
3.739900e-01 2.131888e+02 
3.752000e-01 2.120486e+02 
3.763900e-01 2.109365e+02 
3.775800e-01 2.098333e+02 
3.788200e-01 2.086933e+02 
3.800300e-01 2.075900e+02 
3.812100e-01 2.065284e+02 
3.824200e-01 2.054523e+02 
3.836100e-01 2.044025e+02 
3.848600e-01 2.033086e+02 
3.860400e-01 2.022844e+02 
3.872400e-01 2.012510e+02 
3.884600e-01 2.002154e+02 
3.896500e-01 1.992159e+02 
3.908700e-01 1.981992e+02 
3.920600e-01 1.972153e+02 
3.933100e-01 1.961900e+02 
3.945300e-01 1.951972e+02 
3.957200e-01 1.942434e+02 
3.969300e-01 1.932830e+02 
3.981700e-01 1.923064e+02 
3.993500e-01 1.913843e+02 
4.094840e-01 1.837765e+02 
4.272360e-01 1.717320e+02 
4.454600e-01 1.607635e+02 
4.630560e-01 1.513012e+02 
4.804610e-01 1.428637e+02 
4.980690e-01 1.351297e+02 
5.159230e-01 1.279984e+02 
5.317440e-01 1.222036e+02 
5.489640e-01 1.163932e+02 
5.671990e-01 1.107469e+02 
5.838690e-01 1.059843e+02 
6.018840e-01 1.012295e+02 
6.202330e-01 9.676377e+01 
6.379250e-01 9.277408e+01 
6.545410e-01 8.929311e+01 
6.714560e-01 8.598364e+01 
6.892080e-01 8.274241e+01 
7.066010e-01 7.978142e+01 
7.240540e-01 7.699975e+01 
7.420450e-01 7.431923e+01 
7.593780e-01 7.190021e+01 
7.764720e-01 6.965574e+01 
7.942840e-01 6.745646e+01 
8.116170e-01 6.544251e+01 
8.288310e-01 6.355562e+01 
8.462240e-01 6.175337e+01 
8.631980e-01 6.008931e+01 
8.810700e-01 5.843043e+01 
8.989410e-01 5.685991e+01 
9.166330e-01 5.538495e+01 
9.345640e-01 5.396676e+01 
9.515980e-01 5.268487e+01 
9.688720e-01 5.144560e+01 
9.865640e-01 5.023656e+01 
1.031870e+00 4.738054e+01 
1.063490e+00 4.557238e+01 
1.097920e+00 4.375559e+01 
1.134370e+00 4.198017e+01 
1.167730e+00 4.047611e+01 
1.203830e+00 3.896385e+01 
1.240470e+00 3.753704e+01 
1.275790e+00 3.625471e+01 
1.309140e+00 3.511970e+01 
1.342970e+00 3.403469e+01 
1.378420e+00 3.296457e+01 
1.413200e+00 3.197493e+01 
1.448110e+00 3.103583e+01 
1.484090e+00 3.011992e+01 
1.518820e+00 2.928267e+01 
1.552880e+00 2.850147e+01 
1.588630e+00 2.772136e+01 
1.623230e+00 2.700194e+01 
1.657720e+00 2.631848e+01 
1.692450e+00 2.566026e+01 
1.726400e+00 2.504476e+01 
1.762200e+00 2.442274e+01 
1.797880e+00 2.382934e+01 
1.833270e+00 2.326526e+01 
1.869070e+00 2.271783e+01 
1.903200e+00 2.221595e+01 
1.937740e+00 2.172741e+01 
1.973190e+00 2.124446e+01 
2.007440e+00 2.079492e+01 
2.042160e+00 2.035516e+01 
2.077900e+00 1.991844e+01 
2.112390e+00 1.951215e+01 
2.146220e+00 1.912611e+01 
2.181600e+00 1.873591e+01 
2.216930e+00 1.835875e+01 
2.250760e+00 1.800916e+01 
2.286500e+00 1.765172e+01 
2.321770e+00 1.731019e+01 
2.355950e+00 1.698879e+01 
2.391280e+00 1.666645e+01 
2.426240e+00 1.635675e+01 
2.460670e+00 1.606075e+01 
2.495640e+00 1.576910e+01 
2.531080e+00 1.548126e+01 
2.566220e+00 1.520375e+01 
2.600830e+00 1.493802e+01 
2.635080e+00 1.468224e+01 
2.670340e+00 1.442564e+01 
2.705970e+00 1.417318e+01 
2.740040e+00 1.393813e+01 
2.774520e+00 1.370604e+01 
2.809730e+00 1.347481e+01 
2.844390e+00 1.325314e+01 
2.879960e+00 1.303127e+01 
2.914860e+00 1.281859e+01 
2.949410e+00 1.261331e+01 
2.984440e+00 1.240976e+01 
3.019760e+00 1.220951e+01 
3.054730e+00 1.201626e+01 
3.089030e+00 1.183020e+01 
3.124060e+00 1.164483e+01 
3.159560e+00 1.146133e+01 
3.194710e+00 1.128344e+01 
3.229010e+00 1.111402e+01 
3.263320e+00 1.094745e+01 
3.297930e+00 1.078337e+01 
3.332830e+00 1.062136e+01 
3.368040e+00 1.046133e+01 
3.403300e+00 1.030459e+01 
3.438450e+00 1.015133e+01 
3.473060e+00 1.000396e+01 
3.508440e+00 9.855685e+00 
3.543110e+00 9.713770e+00 
3.577470e+00 9.575549e+00 
3.613040e+00 9.435596e+00 
3.648120e+00 9.300008e+00 
3.682910e+00 9.168402e+00 
3.718050e+00 9.037980e+00 
3.753320e+00 8.909658e+00 
3.787980e+00 8.785752e+00 
3.822290e+00 8.665523e+00 
3.857020e+00 8.546021e+00 
3.891920e+00 8.428298e+00 
3.926650e+00 8.313155e+00 
3.961970e+00 8.198372e+00 
3.997360e+00 8.085224e+00 
4.031670e+00 7.977770e+00 
4.066330e+00 7.870899e+00 
4.101420e+00 7.764992e+00 
4.136200e+00 7.661406e+00 
4.170810e+00 7.560494e+00 
4.206250e+00 7.458715e+00 
4.241580e+00 7.359281e+00 
4.276300e+00 7.263146e+00 
4.310970e+00 7.168861e+00 
4.346120e+00 7.074957e+00 
4.380600e+00 6.984266e+00 
4.414730e+00 6.896254e+00 
4.450350e+00 6.805601e+00 
4.485320e+00 6.718389e+00 
4.519810e+00 6.633674e+00 
4.555430e+00 6.547730e+00 
4.590870e+00 6.463712e+00 
4.625480e+00 6.382836e+00 
4.659910e+00 6.303911e+00 
4.695230e+00 6.224056e+00 
4.729960e+00 6.146965e+00 
4.764450e+00 6.071683e+00 
4.799530e+00 5.996285e+00 
4.834910e+00 5.921671e+00 
4.869700e+00 5.849218e+00 
4.904370e+00 5.778263e+00 
4.939450e+00 5.707681e+00 
4.973940e+00 5.639281e+00 
5.008430e+00 5.572102e+00 
5.043810e+00 5.504182e+00 
5.078840e+00 5.438002e+00 
5.113500e+00 5.373682e+00 
5.148890e+00 5.308823e+00 
5.184210e+00 5.245229e+00 
5.219060e+00 5.183512e+00 
5.253660e+00 5.123095e+00 
5.288570e+00 5.063185e+00 
5.323420e+00 5.004246e+00 
5.358440e+00 4.945857e+00 
5.393590e+00 4.888251e+00 
5.428310e+00 4.832181e+00 
5.462800e+00 4.777341e+00 
5.497640e+00 4.722863e+00 
5.532670e+00 4.668809e+00 
5.567280e+00 4.616222e+00 
5.602000e+00 4.564329e+00 
5.637270e+00 4.512318e+00 
5.672410e+00 4.461311e+00 
5.707020e+00 4.411886e+00 
5.742040e+00 4.362541e+00 
5.777430e+00 4.313452e+00 
5.812210e+00 4.265982e+00 
5.846820e+00 4.219365e+00 
5.881610e+00 4.173210e+00 
5.916510e+00 4.127634e+00 
5.951600e+00 4.082448e+00 
5.986560e+00 4.038096e+00 
6.021830e+00 3.994046e+00 
6.056490e+00 3.951353e+00 
6.091160e+00 3.909236e+00 
6.125830e+00 3.867756e+00 
6.161090e+00 3.826186e+00 
6.195760e+00 3.785877e+00 
6.230420e+00 3.746180e+00 
6.265690e+00 3.706386e+00 
6.300950e+00 3.667141e+00 
6.335620e+00 3.629123e+00 
6.370880e+00 3.591029e+00 
6.405550e+00 3.554074e+00 
6.440220e+00 3.517635e+00 
6.475480e+00 3.481114e+00 
6.510150e+00 3.445716e+00 
6.544810e+00 3.410819e+00 
6.580080e+00 3.375816e+00 
6.614750e+00 3.341899e+00 
6.649410e+00 3.308436e+00 
6.684080e+00 3.275425e+00 
6.719340e+00 3.242325e+00 
6.754010e+00 3.210233e+00 
6.788680e+00 3.178582e+00 
6.823940e+00 3.146840e+00 
6.859800e+00 3.115010e+00 
6.894470e+00 3.084672e+00 
6.929140e+00 3.054749e+00 
6.963800e+00 3.025238e+00 
6.999070e+00 2.995616e+00 
7.033730e+00 2.966903e+00 
7.068400e+00 2.938564e+00 
7.103660e+00 2.910129e+00 
7.138330e+00 2.882544e+00 
7.173600e+00 2.854860e+00 
7.208260e+00 2.828014e+00 
7.243530e+00 2.801055e+00 
7.277600e+00 2.775372e+00 
7.312860e+00 2.749155e+00 
7.348120e+00 2.723280e+00 
7.382790e+00 2.698167e+00 
7.417460e+00 2.673385e+00 
7.452720e+00 2.648510e+00 
7.487390e+00 2.624362e+00 
7.522650e+00 2.600115e+00 
7.557320e+00 2.576611e+00 
7.591990e+00 2.553413e+00 
7.627250e+00 2.530116e+00 
7.662510e+00 2.507112e+00 
7.697180e+00 2.484816e+00 
7.731850e+00 2.462810e+00 
7.766510e+00 2.441078e+00 
7.801180e+00 2.419604e+00 
7.836440e+00 2.398060e+00 
7.871110e+00 2.377151e+00 
7.906380e+00 2.356138e+00 
7.941040e+00 2.335738e+00 
7.976310e+00 2.315251e+00 
8.011570e+00 2.295045e+00 
8.046240e+00 2.275414e+00 
8.080900e+00 2.256019e+00 
8.115570e+00 2.236860e+00 
8.150830e+00 2.217657e+00 
8.185500e+00 2.198996e+00 
8.220770e+00 2.180233e+00 
8.255430e+00 2.162009e+00 
8.290100e+00 2.144042e+00 
8.324770e+00 2.126286e+00 
8.359430e+00 2.108737e+00 
8.394700e+00 2.091083e+00 
8.429960e+00 2.073668e+00 
8.464630e+00 2.056769e+00 
8.499890e+00 2.039776e+00 
8.534560e+00 2.023256e+00 
8.569200e+00 2.006933e+00 
