# Parameters:
# omega_b = 0.022854, omega_m = 0.121929, n_s = 1.043701, h = 78.385827, w = -1.000000, sigma_8 = 0.726772
# z = 1.900000
#
# k[1/Mpc] # P(k):
8.694000e-04 2.552451e+03 
2.077466e-03 5.743580e+03 
3.285532e-03 8.295766e+03 
4.493598e-03 1.025957e+04 
5.701664e-03 1.170248e+04 
6.909730e-03 1.270342e+04 
8.117797e-03 1.335730e+04 
9.325863e-03 1.371368e+04 
1.053393e-02 1.382303e+04 
1.174199e-02 1.373270e+04 
1.295006e-02 1.347398e+04 
1.415813e-02 1.308876e+04 
1.536619e-02 1.261266e+04 
1.657426e-02 1.207059e+04 
1.778233e-02 1.148546e+04 
1.899039e-02 1.088916e+04 
2.019846e-02 1.029915e+04 
2.140652e-02 9.729857e+03 
2.261459e-02 9.189559e+03 
2.382266e-02 8.687145e+03 
2.503072e-02 8.227831e+03 
2.623879e-02 7.812760e+03 
2.744685e-02 7.442737e+03 
2.865492e-02 7.115790e+03 
2.986299e-02 6.828626e+03 
3.100100e-02 6.593450e+03 
3.220400e-02 6.377556e+03 
3.288100e-02 6.270381e+03 
3.424300e-02 6.080025e+03 
3.555100e-02 5.923220e+03 
3.686000e-02 5.787012e+03 
3.795000e-02 5.685226e+03 
3.929100e-02 5.570314e+03 
4.039800e-02 5.479499e+03 
4.164000e-02 5.379236e+03 
4.294400e-02 5.269178e+03 
4.415000e-02 5.164038e+03 
4.542900e-02 5.042104e+03 
4.660900e-02 4.923877e+03 
4.782300e-02 4.789161e+03 
4.892900e-02 4.660800e+03 
5.031200e-02 4.491046e+03 
5.155900e-02 4.330200e+03 
5.238100e-02 4.221798e+03 
5.378200e-02 4.034859e+03 
5.513400e-02 3.853719e+03 
5.627600e-02 3.702532e+03 
5.735300e-02 3.563392e+03 
5.870100e-02 3.395630e+03 
5.988700e-02 3.255675e+03 
6.113500e-02 3.117087e+03 
6.225900e-02 3.001136e+03 
6.340100e-02 2.892703e+03 
6.480200e-02 2.772038e+03 
6.601100e-02 2.680533e+03 
6.725500e-02 2.597780e+03 
6.829100e-02 2.538232e+03 
6.958600e-02 2.472687e+03 
7.071100e-02 2.424269e+03 
7.192300e-02 2.379261e+03 
7.307400e-02 2.342443e+03 
7.412300e-02 2.313044e+03 
7.550400e-02 2.279576e+03 
7.663100e-02 2.255078e+03 
7.791200e-02 2.229650e+03 
7.912700e-02 2.206242e+03 
8.027600e-02 2.183858e+03 
8.138400e-02 2.161563e+03 
8.272200e-02 2.132896e+03 
8.406100e-02 2.101678e+03 
8.534100e-02 2.068076e+03 
8.653800e-02 2.033220e+03 
8.759800e-02 2.000367e+03 
8.900300e-02 1.953625e+03 
9.009000e-02 1.914837e+03 
9.113300e-02 1.875448e+03 
9.239600e-02 1.826604e+03 
9.358000e-02 1.779343e+03 
9.496100e-02 1.722725e+03 
9.608400e-02 1.676867e+03 
9.727500e-02 1.628832e+03 
9.852600e-02 1.578838e+03 
9.973800e-02 1.532248e+03 
1.009000e-01 1.489225e+03 
1.020900e-01 1.448043e+03 
1.034000e-01 1.405481e+03 
1.046000e-01 1.369114e+03 
1.057200e-01 1.339080e+03 
1.069100e-01 1.309266e+03 
1.082500e-01 1.280244e+03 
1.093900e-01 1.258643e+03 
1.105400e-01 1.238790e+03 
1.116900e-01 1.222604e+03 
1.129600e-01 1.206225e+03 
1.142000e-01 1.193158e+03 
1.153300e-01 1.182262e+03 
1.166400e-01 1.171065e+03 
1.177800e-01 1.161947e+03 
1.190000e-01 1.152618e+03 
1.201200e-01 1.143597e+03 
1.213400e-01 1.133896e+03 
1.227100e-01 1.121144e+03 
1.238900e-01 1.109845e+03 
1.250700e-01 1.096819e+03 
1.263200e-01 1.082464e+03 
1.275500e-01 1.066718e+03 
1.287500e-01 1.050721e+03 
1.299900e-01 1.033012e+03 
1.311300e-01 1.016335e+03 
1.323500e-01 9.977365e+02 
1.335900e-01 9.787889e+02 
1.347100e-01 9.614069e+02 
1.359800e-01 9.419956e+02 
1.372100e-01 9.233008e+02 
1.384300e-01 9.052600e+02 
1.395700e-01 8.888804e+02 
1.407700e-01 8.721059e+02 
1.420300e-01 8.554726e+02 
1.432800e-01 8.393828e+02 
1.444500e-01 8.255678e+02 
1.456300e-01 8.119459e+02 
1.468900e-01 7.985708e+02 
1.480500e-01 7.867764e+02 
1.491700e-01 7.760776e+02 
1.503800e-01 7.653359e+02 
1.516400e-01 7.545707e+02 
1.528200e-01 7.455026e+02 
1.540200e-01 7.364602e+02 
1.551900e-01 7.284154e+02 
1.564300e-01 7.201982e+02 
1.576600e-01 7.124145e+02 
1.588700e-01 7.051541e+02 
1.600900e-01 6.979757e+02 
1.612700e-01 6.912645e+02 
1.625400e-01 6.841749e+02 
1.637600e-01 6.773437e+02 
1.649500e-01 6.707138e+02 
1.662200e-01 6.636905e+02 
1.674000e-01 6.568567e+02 
1.685000e-01 6.505933e+02 
1.697500e-01 6.432652e+02 
1.710300e-01 6.355689e+02 
1.722200e-01 6.285437e+02 
1.734400e-01 6.208150e+02 
1.746400e-01 6.133230e+02 
1.758700e-01 6.056119e+02 
1.770900e-01 5.977568e+02 
1.782700e-01 5.902961e+02 
1.794600e-01 5.827187e+02 
1.807000e-01 5.748415e+02 
1.819100e-01 5.672962e+02 
1.830100e-01 5.605136e+02 
1.842200e-01 5.531740e+02 
1.855000e-01 5.455593e+02 
1.867000e-01 5.386993e+02 
1.879200e-01 5.318471e+02 
1.890900e-01 5.254350e+02 
1.902800e-01 5.192623e+02 
1.915200e-01 5.129394e+02 
1.926900e-01 5.071526e+02 
1.939000e-01 5.015236e+02 
1.951700e-01 4.957138e+02 
1.963100e-01 4.906632e+02 
1.975100e-01 4.856442e+02 
1.987800e-01 4.804172e+02 
2.000100e-01 4.755011e+02 
2.012500e-01 4.707733e+02 
2.023400e-01 4.666782e+02 
2.036100e-01 4.619973e+02 
2.048900e-01 4.574325e+02 
2.060400e-01 4.533924e+02 
2.072200e-01 4.493052e+02 
2.084200e-01 4.452002e+02 
2.096900e-01 4.409205e+02 
2.109200e-01 4.368378e+02 
2.121100e-01 4.328637e+02 
2.132700e-01 4.290400e+02 
2.145200e-01 4.249785e+02 
2.157200e-01 4.210537e+02 
2.168800e-01 4.172747e+02 
2.180700e-01 4.134517e+02 
2.193400e-01 4.093873e+02 
2.206000e-01 4.053344e+02 
2.217500e-01 4.016876e+02 
2.229500e-01 3.979342e+02 
2.241400e-01 3.941705e+02 
2.253500e-01 3.903945e+02 
2.264900e-01 3.868854e+02 
2.277100e-01 3.831564e+02 
2.289900e-01 3.792729e+02 
2.301500e-01 3.758027e+02 
2.313600e-01 3.722317e+02 
2.325600e-01 3.687252e+02 
2.337700e-01 3.652378e+02 
2.350000e-01 3.617413e+02 
2.362000e-01 3.583864e+02 
2.374100e-01 3.550605e+02 
2.386500e-01 3.516984e+02 
2.399100e-01 3.483292e+02 
2.410400e-01 3.453847e+02 
2.422500e-01 3.422767e+02 
2.435000e-01 3.391086e+02 
2.447300e-01 3.360424e+02 
2.458700e-01 3.332748e+02 
2.470600e-01 3.304215e+02 
2.483300e-01 3.274159e+02 
2.495600e-01 3.245642e+02 
2.507600e-01 3.218461e+02 
2.519600e-01 3.191617e+02 
2.532200e-01 3.163787e+02 
2.543700e-01 3.138937e+02 
2.555500e-01 3.113902e+02 
2.568000e-01 3.087706e+02 
2.580100e-01 3.062663e+02 
2.592400e-01 3.037688e+02 
2.604100e-01 3.014289e+02 
2.616100e-01 2.990572e+02 
2.628400e-01 2.966553e+02 
2.640600e-01 2.943132e+02 
2.652200e-01 2.921166e+02 
2.664300e-01 2.898517e+02 
2.676500e-01 2.875949e+02 
2.688400e-01 2.854212e+02 
2.700700e-01 2.832017e+02 
2.712400e-01 2.811147e+02 
2.724800e-01 2.789280e+02 
2.736700e-01 2.768519e+02 
2.748800e-01 2.747629e+02 
2.761000e-01 2.726806e+02 
2.773200e-01 2.706220e+02 
2.785400e-01 2.685845e+02 
2.797000e-01 2.666636e+02 
2.808900e-01 2.647145e+02 
2.821400e-01 2.626900e+02 
2.833900e-01 2.606883e+02 
2.845500e-01 2.588417e+02 
2.857800e-01 2.569049e+02 
2.870300e-01 2.549588e+02 
2.882100e-01 2.531418e+02 
2.893900e-01 2.513397e+02 
2.906300e-01 2.494643e+02 
2.918900e-01 2.475798e+02 
2.930500e-01 2.458636e+02 
2.942500e-01 2.441053e+02 
2.954200e-01 2.424047e+02 
2.966500e-01 2.406357e+02 
2.978900e-01 2.388716e+02 
2.990400e-01 2.372527e+02 
3.002700e-01 2.355381e+02 
3.015100e-01 2.338276e+02 
3.026800e-01 2.322304e+02 
3.038500e-01 2.306493e+02 
3.050300e-01 2.290708e+02 
3.062600e-01 2.274422e+02 
3.075000e-01 2.258176e+02 
3.087000e-01 2.242617e+02 
3.099100e-01 2.227088e+02 
3.111200e-01 2.211731e+02 
3.123100e-01 2.196803e+02 
3.135300e-01 2.181652e+02 
3.147300e-01 2.166900e+02 
3.159900e-01 2.151568e+02 
3.171800e-01 2.137273e+02 
3.183700e-01 2.123143e+02 
3.196300e-01 2.108333e+02 
3.208400e-01 2.094253e+02 
3.220300e-01 2.080541e+02 
3.232000e-01 2.067239e+02 
3.244300e-01 2.053412e+02 
3.256700e-01 2.039610e+02 
3.269200e-01 2.025835e+02 
3.280800e-01 2.013175e+02 
3.292500e-01 2.000588e+02 
3.304800e-01 1.987502e+02 
3.317100e-01 1.974541e+02 
3.328900e-01 1.962226e+02 
3.340700e-01 1.950023e+02 
3.353600e-01 1.936872e+02 
3.365300e-01 1.925081e+02 
3.377100e-01 1.913297e+02 
3.389200e-01 1.901325e+02 
3.401600e-01 1.889171e+02 
3.413700e-01 1.877477e+02 
3.425300e-01 1.866407e+02 
3.437700e-01 1.854680e+02 
3.449800e-01 1.843343e+02 
3.461800e-01 1.832201e+02 
3.473600e-01 1.821364e+02 
3.485800e-01 1.810310e+02 
3.498100e-01 1.799267e+02 
3.510200e-01 1.788502e+02 
3.522000e-01 1.778096e+02 
3.533900e-01 1.767694e+02 
3.546400e-01 1.756936e+02 
3.558400e-01 1.746705e+02 
3.570600e-01 1.736395e+02 
3.582700e-01 1.726260e+02 
3.595000e-01 1.716047e+02 
3.607100e-01 1.706124e+02 
3.618900e-01 1.696557e+02 
3.631200e-01 1.686671e+02 
3.643200e-01 1.677109e+02 
3.655500e-01 1.667392e+02 
3.667300e-01 1.658150e+02 
3.679500e-01 1.648729e+02 
3.691900e-01 1.639235e+02 
3.703600e-01 1.630353e+02 
3.715700e-01 1.621243e+02 
3.727700e-01 1.612284e+02 
3.739900e-01 1.603267e+02 
3.752000e-01 1.594423e+02 
3.763900e-01 1.585798e+02 
3.775800e-01 1.577243e+02 
3.788200e-01 1.568402e+02 
3.800300e-01 1.559848e+02 
3.812100e-01 1.551594e+02 
3.824200e-01 1.543212e+02 
3.836100e-01 1.535036e+02 
3.848600e-01 1.526518e+02 
3.860400e-01 1.518543e+02 
3.872400e-01 1.510496e+02 
3.884600e-01 1.502405e+02 
3.896500e-01 1.494584e+02 
3.908700e-01 1.486630e+02 
3.920600e-01 1.478933e+02 
3.933100e-01 1.470912e+02 
3.945300e-01 1.463148e+02 
3.957200e-01 1.455653e+02 
3.969300e-01 1.448096e+02 
3.981700e-01 1.440414e+02 
3.993500e-01 1.433160e+02 
4.094840e-01 1.373212e+02 
4.272360e-01 1.277498e+02 
4.454600e-01 1.189954e+02 
4.630560e-01 1.114347e+02 
4.804610e-01 1.047086e+02 
4.980690e-01 9.857322e+01 
5.159230e-01 9.295303e+01 
5.317440e-01 8.841704e+01 
5.489640e-01 8.390356e+01 
5.671990e-01 7.955061e+01 
5.838690e-01 7.590344e+01 
6.018840e-01 7.228296e+01 
6.202330e-01 6.890254e+01 
6.379250e-01 6.589560e+01 
6.545410e-01 6.328372e+01 
6.714560e-01 6.080656e+01 
6.892080e-01 5.838903e+01 
7.066010e-01 5.618505e+01 
7.240540e-01 5.411904e+01 
7.420450e-01 5.213166e+01 
7.593780e-01 5.034062e+01 
7.764720e-01 4.868112e+01 
7.942840e-01 4.705636e+01 
8.116170e-01 4.557082e+01 
8.288310e-01 4.418041e+01 
8.462240e-01 4.285404e+01 
8.631980e-01 4.163071e+01 
8.810700e-01 4.041263e+01 
8.989410e-01 3.926033e+01 
9.166330e-01 3.818021e+01 
9.345640e-01 3.714276e+01 
9.515980e-01 3.620582e+01 
9.688720e-01 3.530196e+01 
9.865640e-01 3.442120e+01 
1.031870e+00 3.234701e+01 
1.063490e+00 3.103868e+01 
1.097920e+00 2.972835e+01 
1.134370e+00 2.845300e+01 
1.167730e+00 2.737645e+01 
1.203830e+00 2.629849e+01 
1.240470e+00 2.528557e+01 
1.275790e+00 2.437897e+01 
1.309140e+00 2.357897e+01 
1.342970e+00 2.281850e+01 
1.378420e+00 2.207076e+01 
1.413200e+00 2.138190e+01 
1.448110e+00 2.073073e+01 
1.484090e+00 2.009807e+01 
1.518820e+00 1.952166e+01 
1.552880e+00 1.898600e+01 
1.588630e+00 1.845280e+01 
1.623230e+00 1.796298e+01 
1.657720e+00 1.749866e+01 
1.692450e+00 1.705323e+01 
1.726400e+00 1.663778e+01 
1.762200e+00 1.621931e+01 
1.797880e+00 1.582117e+01 
1.833270e+00 1.544385e+01 
1.869070e+00 1.507839e+01 
1.903200e+00 1.474452e+01 
1.937740e+00 1.442020e+01 
1.973190e+00 1.410017e+01 
2.007440e+00 1.380296e+01 
2.042160e+00 1.351294e+01 
2.077900e+00 1.322555e+01 
2.112390e+00 1.295843e+01 
2.146220e+00 1.270546e+01 
2.181600e+00 1.245001e+01 
2.216930e+00 1.220371e+01 
2.250760e+00 1.197571e+01 
2.286500e+00 1.174283e+01 
2.321770e+00 1.152072e+01 
2.355950e+00 1.131215e+01 
2.391280e+00 1.110318e+01 
2.426240e+00 1.090275e+01 
2.460670e+00 1.071136e+01 
2.495640e+00 1.052286e+01 
2.531080e+00 1.033708e+01 
2.566220e+00 1.015832e+01 
2.600830e+00 9.987332e+00 
2.635080e+00 9.822859e+00 
2.670340e+00 9.657850e+00 
2.705970e+00 9.495724e+00 
2.740040e+00 9.344933e+00 
2.774520e+00 9.196161e+00 
2.809730e+00 9.048043e+00 
2.844390e+00 8.906104e+00 
2.879960e+00 8.764094e+00 
2.914860e+00 8.628041e+00 
2.949410e+00 8.496787e+00 
2.984440e+00 8.366820e+00 
3.019760e+00 8.238931e+00 
3.054730e+00 8.115497e+00 
3.089030e+00 7.996780e+00 
3.124060e+00 7.878459e+00 
3.159560e+00 7.761280e+00 
3.194710e+00 7.647800e+00 
3.229010e+00 7.539740e+00 
3.263320e+00 7.433511e+00 
3.297930e+00 7.328864e+00 
3.332830e+00 7.225550e+00 
3.368040e+00 7.123471e+00 
3.403300e+00 7.023474e+00 
3.438450e+00 6.925701e+00 
3.473060e+00 6.831668e+00 
3.508440e+00 6.737043e+00 
3.543110e+00 6.646452e+00 
3.577470e+00 6.558163e+00 
3.613040e+00 6.468756e+00 
3.648120e+00 6.382148e+00 
3.682910e+00 6.298022e+00 
3.718050e+00 6.214553e+00 
3.753320e+00 6.132439e+00 
3.787980e+00 6.053179e+00 
3.822290e+00 5.976211e+00 
3.857020e+00 5.899627e+00 
3.891920e+00 5.824158e+00 
3.926650e+00 5.750316e+00 
3.961970e+00 5.676668e+00 
3.997360e+00 5.604016e+00 
4.031670e+00 5.534985e+00 
4.066330e+00 5.466256e+00 
4.101420e+00 5.398121e+00 
4.136200e+00 5.331425e+00 
4.170810e+00 5.266427e+00 
4.206250e+00 5.200781e+00 
4.241580e+00 5.136612e+00 
4.276300e+00 5.074532e+00 
4.310970e+00 5.013615e+00 
4.346120e+00 4.952895e+00 
4.380600e+00 4.894185e+00 
4.414730e+00 4.837187e+00 
4.450350e+00 4.778425e+00 
4.485320e+00 4.721871e+00 
4.519810e+00 4.666830e+00 
4.555430e+00 4.610931e+00 
4.590870e+00 4.556260e+00 
4.625480e+00 4.503607e+00 
4.659910e+00 4.452203e+00 
4.695230e+00 4.400098e+00 
4.729960e+00 4.349765e+00 
4.764450e+00 4.300555e+00 
4.799530e+00 4.251187e+00 
4.834910e+00 4.202311e+00 
4.869700e+00 4.154815e+00 
4.904370e+00 4.108278e+00 
4.939450e+00 4.061939e+00 
4.973940e+00 4.016947e+00 
5.008430e+00 3.972740e+00 
5.043810e+00 3.927994e+00 
5.078840e+00 3.884355e+00 
5.113500e+00 3.841925e+00 
5.148890e+00 3.799033e+00 
5.184210e+00 3.756956e+00 
5.219060e+00 3.716091e+00 
5.253660e+00 3.676039e+00 
5.288570e+00 3.636305e+00 
5.323420e+00 3.597176e+00 
5.358440e+00 3.558369e+00 
5.393590e+00 3.520066e+00 
5.428310e+00 3.482698e+00 
5.462800e+00 3.446098e+00 
5.497640e+00 3.409723e+00 
5.532670e+00 3.373595e+00 
5.567280e+00 3.338425e+00 
5.602000e+00 3.303704e+00 
5.637270e+00 3.268828e+00 
5.672410e+00 3.234597e+00 
5.707020e+00 3.201414e+00 
5.742040e+00 3.168215e+00 
5.777430e+00 3.135163e+00 
5.812210e+00 3.103187e+00 
5.846820e+00 3.071740e+00 
5.881610e+00 3.040584e+00 
5.916510e+00 3.009805e+00 
5.951600e+00 2.979228e+00 
5.986560e+00 2.949182e+00 
6.021830e+00 2.919328e+00 
6.056490e+00 2.890358e+00 
6.091160e+00 2.861748e+00 
6.125830e+00 2.833559e+00 
6.161090e+00 2.805280e+00 
6.195760e+00 2.777811e+00 
6.230420e+00 2.750749e+00 
6.265690e+00 2.723606e+00 
6.300950e+00 2.696769e+00 
6.335620e+00 2.670761e+00 
6.370880e+00 2.644689e+00 
6.405550e+00 2.619361e+00 
6.440220e+00 2.594367e+00 
6.475480e+00 2.569306e+00 
6.510150e+00 2.544991e+00 
6.544810e+00 2.520977e+00 
6.580080e+00 2.496880e+00 
6.614750e+00 2.473521e+00 
6.649410e+00 2.450437e+00 
6.684080e+00 2.427651e+00 
6.719340e+00 2.404793e+00 
6.754010e+00 2.382609e+00 
6.788680e+00 2.360685e+00 
6.823940e+00 2.338690e+00 
6.859800e+00 2.316625e+00 
6.894470e+00 2.295556e+00 
6.929140e+00 2.274755e+00 
6.963800e+00 2.254233e+00 
6.999070e+00 2.233623e+00 
7.033730e+00 2.213609e+00 
7.068400e+00 2.193848e+00 
7.103660e+00 2.174013e+00 
7.138330e+00 2.154755e+00 
7.173600e+00 2.135404e+00 
7.208260e+00 2.116631e+00 
7.243530e+00 2.097772e+00 
7.277600e+00 2.079779e+00 
7.312860e+00 2.061387e+00 
7.348120e+00 2.043228e+00 
7.382790e+00 2.025598e+00 
7.417460e+00 2.008174e+00 
7.452720e+00 1.990669e+00 
7.487390e+00 1.973669e+00 
7.522650e+00 1.956594e+00 
7.557320e+00 1.940021e+00 
7.591990e+00 1.923653e+00 
7.627250e+00 1.907209e+00 
7.662510e+00 1.890966e+00 
7.697180e+00 1.875194e+00 
7.731850e+00 1.859613e+00 
7.766510e+00 1.844221e+00 
7.801180e+00 1.829007e+00 
7.836440e+00 1.813717e+00 
7.871110e+00 1.798860e+00 
7.906380e+00 1.783925e+00 
7.941040e+00 1.769420e+00 
7.976310e+00 1.754840e+00 
8.011570e+00 1.740446e+00 
8.046240e+00 1.726457e+00 
8.080900e+00 1.712632e+00 
8.115570e+00 1.698967e+00 
8.150830e+00 1.685251e+00 
8.185500e+00 1.671918e+00 
8.220770e+00 1.658509e+00 
8.255430e+00 1.645481e+00 
8.290100e+00 1.632610e+00 
8.324770e+00 1.619884e+00 
8.359430e+00 1.607302e+00 
8.394700e+00 1.594642e+00 
8.429960e+00 1.582139e+00 
8.464630e+00 1.569993e+00 
8.499890e+00 1.557776e+00 
8.534560e+00 1.545895e+00 
8.569200e+00 1.534152e+00 
