# Parameters:
# omega_b = 0.023327, omega_m = 0.143701, n_s = 0.939764, h = 55.472441, w = -1.000000, sigma_8 = 0.797638
# z = 1.900000
#
# k[1/Mpc] # P(k):
8.694000e-04 3.476945e+03 
2.077466e-03 7.280084e+03 
3.285532e-03 1.021426e+04 
4.493598e-03 1.246585e+04 
5.701664e-03 1.413364e+04 
6.909730e-03 1.531412e+04 
8.117797e-03 1.611433e+04 
9.325863e-03 1.658904e+04 
1.053393e-02 1.679228e+04 
1.174199e-02 1.677467e+04 
1.295006e-02 1.656764e+04 
1.415813e-02 1.621418e+04 
1.536619e-02 1.575230e+04 
1.657426e-02 1.520812e+04 
1.778233e-02 1.460399e+04 
1.899039e-02 1.397344e+04 
2.019846e-02 1.333473e+04 
2.140652e-02 1.270425e+04 
2.261459e-02 1.209065e+04 
2.382266e-02 1.150493e+04 
2.503072e-02 1.095502e+04 
2.623879e-02 1.044414e+04 
2.744685e-02 9.973539e+03 
2.865492e-02 9.545016e+03 
2.986299e-02 9.157050e+03 
3.100100e-02 8.828368e+03 
3.220400e-02 8.516945e+03 
3.288100e-02 8.357800e+03 
3.424300e-02 8.068274e+03 
3.555100e-02 7.823843e+03 
3.686000e-02 7.608015e+03 
3.795000e-02 7.446237e+03 
3.929100e-02 7.266428e+03 
4.039800e-02 7.129046e+03 
4.164000e-02 6.983346e+03 
4.294400e-02 6.834520e+03 
4.415000e-02 6.699169e+03 
4.542900e-02 6.551755e+03 
4.660900e-02 6.413817e+03 
4.782300e-02 6.262532e+03 
4.892900e-02 6.120653e+03 
5.031200e-02 5.935034e+03 
5.155900e-02 5.759345e+03 
5.238100e-02 5.640512e+03 
5.378200e-02 5.434440e+03 
5.513400e-02 5.233179e+03 
5.627600e-02 5.064494e+03 
5.735300e-02 4.909698e+03 
5.870100e-02 4.725086e+03 
5.988700e-02 4.573676e+03 
6.113500e-02 4.425948e+03 
6.225900e-02 4.302701e+03 
6.340100e-02 4.185452e+03 
6.480200e-02 4.049855e+03 
6.601100e-02 3.938407e+03 
6.725500e-02 3.828069e+03 
6.829100e-02 3.739685e+03 
6.958600e-02 3.633912e+03 
7.071100e-02 3.547289e+03 
7.192300e-02 3.459805e+03 
7.307400e-02 3.382626e+03 
7.412300e-02 3.317293e+03 
7.550400e-02 3.238804e+03 
7.663100e-02 3.179926e+03 
7.791200e-02 3.119216e+03 
7.912700e-02 3.066525e+03 
8.027600e-02 3.019943e+03 
8.138400e-02 2.977378e+03 
8.272200e-02 2.928413e+03 
8.406100e-02 2.881110e+03 
8.534100e-02 2.836394e+03 
8.653800e-02 2.794143e+03 
8.759800e-02 2.756336e+03 
8.900300e-02 2.705110e+03 
9.009000e-02 2.664131e+03 
9.113300e-02 2.623242e+03 
9.239600e-02 2.572827e+03 
9.358000e-02 2.524063e+03 
9.496100e-02 2.464992e+03 
9.608400e-02 2.416415e+03 
9.727500e-02 2.364836e+03 
9.852600e-02 2.309121e+03 
9.973800e-02 2.255874e+03 
1.009000e-01 2.205585e+03 
1.020900e-01 2.154396e+03 
1.034000e-01 2.099709e+03 
1.046000e-01 2.051100e+03 
1.057200e-01 2.007450e+03 
1.069100e-01 1.962694e+03 
1.082500e-01 1.914840e+03 
1.093900e-01 1.876322e+03 
1.105400e-01 1.839094e+03 
1.116900e-01 1.804494e+03 
1.129600e-01 1.767985e+03 
1.142000e-01 1.735117e+03 
1.153300e-01 1.706762e+03 
1.166400e-01 1.676008e+03 
1.177800e-01 1.651180e+03 
1.190000e-01 1.625842e+03 
1.201200e-01 1.604396e+03 
1.213400e-01 1.581816e+03 
1.227100e-01 1.558467e+03 
1.238900e-01 1.539037e+03 
1.250700e-01 1.520566e+03 
1.263200e-01 1.501498e+03 
1.275500e-01 1.483265e+03 
1.287500e-01 1.465720e+03 
1.299900e-01 1.447742e+03 
1.311300e-01 1.431196e+03 
1.323500e-01 1.413297e+03 
1.335900e-01 1.394942e+03 
1.347100e-01 1.377962e+03 
1.359800e-01 1.358579e+03 
1.372100e-01 1.339131e+03 
1.384300e-01 1.319833e+03 
1.395700e-01 1.301139e+03 
1.407700e-01 1.281763e+03 
1.420300e-01 1.260620e+03 
1.432800e-01 1.240134e+03 
1.444500e-01 1.220538e+03 
1.456300e-01 1.201208e+03 
1.468900e-01 1.180828e+03 
1.480500e-01 1.162424e+03 
1.491700e-01 1.145119e+03 
1.503800e-01 1.126937e+03 
1.516400e-01 1.108551e+03 
1.528200e-01 1.092256e+03 
1.540200e-01 1.076030e+03 
1.551900e-01 1.061229e+03 
1.564300e-01 1.046029e+03 
1.576600e-01 1.031675e+03 
1.588700e-01 1.018331e+03 
1.600900e-01 1.005180e+03 
1.612700e-01 9.934346e+02 
1.625400e-01 9.810344e+02 
1.637600e-01 9.696638e+02 
1.649500e-01 9.589590e+02 
1.662200e-01 9.477773e+02 
1.674000e-01 9.377507e+02 
1.685000e-01 9.285617e+02 
1.697500e-01 9.182621e+02 
1.710300e-01 9.078722e+02 
1.722200e-01 8.983861e+02 
1.734400e-01 8.885603e+02 
1.746400e-01 8.790529e+02 
1.758700e-01 8.693569e+02 
1.770900e-01 8.596627e+02 
1.782700e-01 8.504468e+02 
1.794600e-01 8.410872e+02 
1.807000e-01 8.313532e+02 
1.819100e-01 8.220194e+02 
1.830100e-01 8.134502e+02 
1.842200e-01 8.041395e+02 
1.855000e-01 7.944548e+02 
1.867000e-01 7.853656e+02 
1.879200e-01 7.762807e+02 
1.890900e-01 7.677043e+02 
1.902800e-01 7.590803e+02 
1.915200e-01 7.502439e+02 
1.926900e-01 7.420570e+02 
1.939000e-01 7.337711e+02 
1.951700e-01 7.252195e+02 
1.963100e-01 7.177006e+02 
1.975100e-01 7.099990e+02 
1.987800e-01 7.019804e+02 
2.000100e-01 6.943906e+02 
2.012500e-01 6.869760e+02 
2.023400e-01 6.805557e+02 
2.036100e-01 6.732203e+02 
2.048900e-01 6.660725e+02 
2.060400e-01 6.597482e+02 
2.072200e-01 6.533626e+02 
2.084200e-01 6.470802e+02 
2.096900e-01 6.405317e+02 
2.109200e-01 6.342859e+02 
2.121100e-01 6.284033e+02 
2.132700e-01 6.227534e+02 
2.145200e-01 6.167526e+02 
2.157200e-01 6.110903e+02 
2.168800e-01 6.056997e+02 
2.180700e-01 6.002458e+02 
2.193400e-01 5.945006e+02 
2.206000e-01 5.888691e+02 
2.217500e-01 5.838007e+02 
2.229500e-01 5.785834e+02 
2.241400e-01 5.734210e+02 
2.253500e-01 5.682422e+02 
2.264900e-01 5.634281e+02 
2.277100e-01 5.583072e+02 
2.289900e-01 5.529684e+02 
2.301500e-01 5.481964e+02 
2.313600e-01 5.432840e+02 
2.325600e-01 5.383939e+02 
2.337700e-01 5.335293e+02 
2.350000e-01 5.286510e+02 
2.362000e-01 5.239226e+02 
2.374100e-01 5.191793e+02 
2.386500e-01 5.143837e+02 
2.399100e-01 5.095773e+02 
2.410400e-01 5.052835e+02 
2.422500e-01 5.007393e+02 
2.435000e-01 4.961072e+02 
2.447300e-01 4.916058e+02 
2.458700e-01 4.874700e+02 
2.470600e-01 4.832066e+02 
2.483300e-01 4.787161e+02 
2.495600e-01 4.744292e+02 
2.507600e-01 4.703067e+02 
2.519600e-01 4.662362e+02 
2.532200e-01 4.620169e+02 
2.543700e-01 4.582356e+02 
2.555500e-01 4.544170e+02 
2.568000e-01 4.504222e+02 
2.580100e-01 4.466038e+02 
2.592400e-01 4.428034e+02 
2.604100e-01 4.392465e+02 
2.616100e-01 4.356418e+02 
2.628400e-01 4.319918e+02 
2.640600e-01 4.284589e+02 
2.652200e-01 4.251562e+02 
2.664300e-01 4.217513e+02 
2.676500e-01 4.183588e+02 
2.688400e-01 4.151212e+02 
2.700700e-01 4.118340e+02 
2.712400e-01 4.087432e+02 
2.724800e-01 4.055051e+02 
2.736700e-01 4.024555e+02 
2.748800e-01 3.994122e+02 
2.761000e-01 3.963788e+02 
2.773200e-01 3.933800e+02 
2.785400e-01 3.904254e+02 
2.797000e-01 3.876687e+02 
2.808900e-01 3.848713e+02 
2.821400e-01 3.819656e+02 
2.833900e-01 3.790937e+02 
2.845500e-01 3.764748e+02 
2.857800e-01 3.737277e+02 
2.870300e-01 3.709671e+02 
2.882100e-01 3.683893e+02 
2.893900e-01 3.658464e+02 
2.906300e-01 3.632068e+02 
2.918900e-01 3.605543e+02 
2.930500e-01 3.581383e+02 
2.942500e-01 3.556653e+02 
2.954200e-01 3.532805e+02 
2.966500e-01 3.507995e+02 
2.978900e-01 3.483251e+02 
2.990400e-01 3.460539e+02 
3.002700e-01 3.436489e+02 
3.015100e-01 3.412496e+02 
3.026800e-01 3.390091e+02 
3.038500e-01 3.367908e+02 
3.050300e-01 3.345756e+02 
3.062600e-01 3.322847e+02 
3.075000e-01 3.299991e+02 
3.087000e-01 3.278099e+02 
3.099100e-01 3.256245e+02 
3.111200e-01 3.234595e+02 
3.123100e-01 3.213486e+02 
3.135300e-01 3.192060e+02 
3.147300e-01 3.171195e+02 
3.159900e-01 3.149508e+02 
3.171800e-01 3.129217e+02 
3.183700e-01 3.109113e+02 
3.196300e-01 3.088038e+02 
3.208400e-01 3.068001e+02 
3.220300e-01 3.048486e+02 
3.232000e-01 3.029473e+02 
3.244300e-01 3.009675e+02 
3.256700e-01 2.989911e+02 
3.269200e-01 2.970185e+02 
3.280800e-01 2.952053e+02 
3.292500e-01 2.933950e+02 
3.304800e-01 2.915103e+02 
3.317100e-01 2.896438e+02 
3.328900e-01 2.878699e+02 
3.340700e-01 2.861123e+02 
3.353600e-01 2.842122e+02 
3.365300e-01 2.825064e+02 
3.377100e-01 2.808016e+02 
3.389200e-01 2.790694e+02 
3.401600e-01 2.773109e+02 
3.413700e-01 2.756159e+02 
3.425300e-01 2.740090e+02 
3.437700e-01 2.723069e+02 
3.449800e-01 2.706612e+02 
3.461800e-01 2.690439e+02 
3.473600e-01 2.674701e+02 
3.485800e-01 2.658635e+02 
3.498100e-01 2.642585e+02 
3.510200e-01 2.626937e+02 
3.522000e-01 2.611812e+02 
3.533900e-01 2.596691e+02 
3.546400e-01 2.581062e+02 
3.558400e-01 2.566199e+02 
3.570600e-01 2.551220e+02 
3.582700e-01 2.536494e+02 
3.595000e-01 2.521656e+02 
3.607100e-01 2.507257e+02 
3.618900e-01 2.493389e+02 
3.631200e-01 2.479057e+02 
3.643200e-01 2.465195e+02 
3.655500e-01 2.451108e+02 
3.667300e-01 2.437709e+02 
3.679500e-01 2.424102e+02 
3.691900e-01 2.410390e+02 
3.703600e-01 2.397561e+02 
3.715700e-01 2.384403e+02 
3.727700e-01 2.371462e+02 
3.739900e-01 2.358459e+02 
3.752000e-01 2.345749e+02 
3.763900e-01 2.333352e+02 
3.775800e-01 2.321055e+02 
3.788200e-01 2.308346e+02 
3.800300e-01 2.296048e+02 
3.812100e-01 2.284226e+02 
3.824200e-01 2.272251e+02 
3.836100e-01 2.260569e+02 
3.848600e-01 2.248396e+02 
3.860400e-01 2.236999e+02 
3.872400e-01 2.225499e+02 
3.884600e-01 2.213990e+02 
3.896500e-01 2.202886e+02 
3.908700e-01 2.191591e+02 
3.920600e-01 2.180661e+02 
3.933100e-01 2.169271e+02 
3.945300e-01 2.158243e+02 
3.957200e-01 2.147665e+02 
3.969300e-01 2.137018e+02 
3.981700e-01 2.126193e+02 
3.993500e-01 2.115972e+02 
4.094840e-01 2.031712e+02 
4.272360e-01 1.898807e+02 
4.454600e-01 1.778133e+02 
4.630560e-01 1.674240e+02 
4.804610e-01 1.581696e+02 
4.980690e-01 1.496885e+02 
5.159230e-01 1.418650e+02 
5.317440e-01 1.355027e+02 
5.489640e-01 1.291160e+02 
5.671990e-01 1.229028e+02 
5.838690e-01 1.176559e+02 
6.018840e-01 1.124131e+02 
6.202330e-01 1.074841e+02 
6.379250e-01 1.030768e+02 
6.545410e-01 9.922831e+01 
6.714560e-01 9.556825e+01 
6.892080e-01 9.198054e+01 
7.066010e-01 8.870193e+01 
7.240540e-01 8.562042e+01 
7.420450e-01 8.264982e+01 
7.593780e-01 7.996810e+01 
7.764720e-01 7.747921e+01 
7.942840e-01 7.504010e+01 
8.116170e-01 7.280536e+01 
8.288310e-01 7.071100e+01 
8.462240e-01 6.870975e+01 
8.631980e-01 6.686140e+01 
8.810700e-01 6.501811e+01 
8.989410e-01 6.327278e+01 
9.166330e-01 6.163241e+01 
9.345640e-01 6.005482e+01 
9.515980e-01 5.862861e+01 
9.688720e-01 5.724869e+01 
9.865640e-01 5.590203e+01 
1.031870e+00 5.271826e+01 
1.063490e+00 5.070071e+01 
1.097920e+00 4.867151e+01 
1.134370e+00 4.668664e+01 
1.167730e+00 4.500363e+01 
1.203830e+00 4.331001e+01 
1.240470e+00 4.171048e+01 
1.275790e+00 4.027183e+01 
1.309140e+00 3.899783e+01 
1.342970e+00 3.777823e+01 
1.378420e+00 3.657476e+01 
1.413200e+00 3.546120e+01 
1.448110e+00 3.440392e+01 
1.484090e+00 3.337188e+01 
1.518820e+00 3.242824e+01 
1.552880e+00 3.154722e+01 
1.588630e+00 3.066715e+01 
1.623230e+00 2.985495e+01 
1.657720e+00 2.908340e+01 
1.692450e+00 2.833986e+01 
1.726400e+00 2.764463e+01 
1.762200e+00 2.694175e+01 
1.797880e+00 2.627113e+01 
1.833270e+00 2.563340e+01 
1.869070e+00 2.501472e+01 
1.903200e+00 2.444713e+01 
1.937740e+00 2.389464e+01 
1.973190e+00 2.334865e+01 
2.007440e+00 2.284043e+01 
2.042160e+00 2.234314e+01 
2.077900e+00 2.184935e+01 
2.112390e+00 2.139021e+01 
2.146220e+00 2.095375e+01 
2.181600e+00 2.051278e+01 
2.216930e+00 2.008648e+01 
2.250760e+00 1.969147e+01 
2.286500e+00 1.928775e+01 
2.321770e+00 1.890202e+01 
2.355950e+00 1.853895e+01 
2.391280e+00 1.817509e+01 
2.426240e+00 1.782549e+01 
2.460670e+00 1.749144e+01 
2.495640e+00 1.716250e+01 
2.531080e+00 1.683801e+01 
2.566220e+00 1.652510e+01 
2.600830e+00 1.622553e+01 
2.635080e+00 1.593729e+01 
2.670340e+00 1.564842e+01 
2.705970e+00 1.536422e+01 
2.740040e+00 1.509967e+01 
2.774520e+00 1.483857e+01 
2.809730e+00 1.457854e+01 
2.844390e+00 1.432937e+01 
2.879960e+00 1.408011e+01 
2.914860e+00 1.384130e+01 
2.949410e+00 1.361087e+01 
2.984440e+00 1.338241e+01 
3.019760e+00 1.315781e+01 
3.054730e+00 1.294115e+01 
3.089030e+00 1.273268e+01 
3.124060e+00 1.252510e+01 
3.159560e+00 1.231976e+01 
3.194710e+00 1.212074e+01 
3.229010e+00 1.193124e+01 
3.263320e+00 1.174509e+01 
3.297930e+00 1.156178e+01 
3.332830e+00 1.138089e+01 
3.368040e+00 1.120231e+01 
3.403300e+00 1.102750e+01 
3.438450e+00 1.085668e+01 
3.473060e+00 1.069247e+01 
3.508440e+00 1.052740e+01 
3.543110e+00 1.036947e+01 
3.577470e+00 1.021579e+01 
3.613040e+00 1.006024e+01 
3.648120e+00 9.909614e+00 
3.682910e+00 9.763508e+00 
3.718050e+00 9.618864e+00 
3.753320e+00 9.476587e+00 
3.787980e+00 9.339249e+00 
3.822290e+00 9.206075e+00 
3.857020e+00 9.073825e+00 
3.891920e+00 8.943602e+00 
3.926650e+00 8.816316e+00 
3.961970e+00 8.689485e+00 
3.997360e+00 8.564560e+00 
4.031670e+00 8.445970e+00 
4.066330e+00 8.328146e+00 
4.101420e+00 8.211415e+00 
4.136200e+00 8.097344e+00 
4.170810e+00 7.986245e+00 
4.206250e+00 7.874314e+00 
4.241580e+00 7.765007e+00 
4.276300e+00 7.659393e+00 
4.310970e+00 7.555860e+00 
4.346120e+00 7.452809e+00 
4.380600e+00 7.353371e+00 
4.414730e+00 7.256895e+00 
4.450350e+00 7.157602e+00 
4.485320e+00 7.062103e+00 
4.519810e+00 6.969457e+00 
4.555430e+00 6.875532e+00 
4.590870e+00 6.783748e+00 
4.625480e+00 6.695441e+00 
4.659910e+00 6.609286e+00 
4.695230e+00 6.522215e+00 
4.729960e+00 6.438189e+00 
4.764450e+00 6.356198e+00 
4.799530e+00 6.274168e+00 
4.834910e+00 6.193012e+00 
4.869700e+00 6.114254e+00 
4.904370e+00 6.037150e+00 
4.939450e+00 5.960495e+00 
4.973940e+00 5.886294e+00 
5.008430e+00 5.813437e+00 
5.043810e+00 5.739830e+00 
5.078840e+00 5.668149e+00 
5.113500e+00 5.598498e+00 
5.148890e+00 5.528371e+00 
5.184210e+00 5.459632e+00 
5.219060e+00 5.392947e+00 
5.253660e+00 5.327713e+00 
5.288570e+00 5.263042e+00 
5.323420e+00 5.199460e+00 
5.358440e+00 5.136515e+00 
5.393590e+00 5.074430e+00 
5.428310e+00 5.014073e+00 
5.462800e+00 4.955085e+00 
5.497640e+00 4.896501e+00 
5.532670e+00 4.838412e+00 
5.567280e+00 4.781923e+00 
5.602000e+00 4.726192e+00 
5.637270e+00 4.670398e+00 
5.672410e+00 4.615706e+00 
5.707020e+00 4.562723e+00 
5.742040e+00 4.509884e+00 
5.777430e+00 4.457341e+00 
5.812210e+00 4.406542e+00 
5.846820e+00 4.356702e+00 
5.881610e+00 4.307374e+00 
5.916510e+00 4.258675e+00 
5.951600e+00 4.210444e+00 
5.986560e+00 4.163130e+00 
6.021830e+00 4.116148e+00 
6.056490e+00 4.070647e+00 
6.091160e+00 4.025788e+00 
6.125830e+00 3.981617e+00 
6.161090e+00 3.937373e+00 
6.195760e+00 3.894508e+00 
6.230420e+00 3.852302e+00 
6.265690e+00 3.810004e+00 
6.300950e+00 3.768350e+00 
6.335620e+00 3.728009e+00 
6.370880e+00 3.687594e+00 
6.405550e+00 3.648419e+00 
6.440220e+00 3.609809e+00 
6.475480e+00 3.571119e+00 
6.510150e+00 3.533640e+00 
6.544810e+00 3.496724e+00 
6.580080e+00 3.459704e+00 
6.614750e+00 3.423840e+00 
6.649410e+00 3.388487e+00 
6.684080e+00 3.353624e+00 
6.719340e+00 3.318672e+00 
6.754010e+00 3.284805e+00 
6.788680e+00 3.251438e+00 
6.823940e+00 3.217979e+00 
6.859800e+00 3.184436e+00 
6.894470e+00 3.152500e+00 
6.929140e+00 3.121017e+00 
6.963800e+00 3.089974e+00 
6.999070e+00 3.058820e+00 
7.033730e+00 3.028652e+00 
7.068400e+00 2.998883e+00 
7.103660e+00 2.969017e+00 
7.138330e+00 2.940057e+00 
7.173600e+00 2.911013e+00 
7.208260e+00 2.882853e+00 
7.243530e+00 2.854578e+00 
7.277600e+00 2.827665e+00 
7.312860e+00 2.800214e+00 
7.348120e+00 2.773126e+00 
7.382790e+00 2.746840e+00 
7.417460e+00 2.720921e+00 
7.452720e+00 2.694917e+00 
7.487390e+00 2.669678e+00 
7.522650e+00 2.644340e+00 
7.557320e+00 2.619795e+00 
7.591990e+00 2.595579e+00 
7.627250e+00 2.571263e+00 
7.662510e+00 2.547257e+00 
7.697180e+00 2.524013e+00 
7.731850e+00 2.501082e+00 
7.766510e+00 2.478441e+00 
7.801180e+00 2.456071e+00 
7.836440e+00 2.433650e+00 
7.871110e+00 2.411903e+00 
7.906380e+00 2.390052e+00 
7.941040e+00 2.368840e+00 
7.976310e+00 2.347549e+00 
8.011570e+00 2.326563e+00 
8.046240e+00 2.306176e+00 
8.080900e+00 2.286037e+00 
8.115570e+00 2.266149e+00 
8.150830e+00 2.246232e+00 
8.185500e+00 2.226880e+00 
8.220770e+00 2.207426e+00 
8.255430e+00 2.188532e+00 
8.290100e+00 2.169927e+00 
8.324770e+00 2.151547e+00 
8.359430e+00 2.133382e+00 
8.394700e+00 2.115111e+00 
8.429960e+00 2.097098e+00 
8.464630e+00 2.079630e+00 
8.499890e+00 2.062066e+00 
8.534560e+00 2.044993e+00 
8.569200e+00 2.028126e+00 
