# Parameters:
# omega_b = 0.023091, omega_m = 0.139291, n_s = 0.909843, h = 63.267717, w = -1.000000, sigma_8 = 0.739370
# z = 1.900000
#
# k[1/Mpc] # P(k):
8.694000e-04 3.507195e+03 
2.077466e-03 7.146344e+03 
3.285532e-03 9.855922e+03 
4.493598e-03 1.187059e+04 
5.701664e-03 1.331290e+04 
6.909730e-03 1.429116e+04 
8.117797e-03 1.491609e+04 
9.325863e-03 1.524443e+04 
1.053393e-02 1.532992e+04 
1.174199e-02 1.522094e+04 
1.295006e-02 1.494824e+04 
1.415813e-02 1.455202e+04 
1.536619e-02 1.406653e+04 
1.657426e-02 1.351508e+04 
1.778233e-02 1.291828e+04 
1.899039e-02 1.230626e+04 
2.019846e-02 1.169497e+04 
2.140652e-02 1.109836e+04 
2.261459e-02 1.052384e+04 
2.382266e-02 9.980534e+03 
2.503072e-02 9.474598e+03 
2.623879e-02 9.008051e+03 
2.744685e-02 8.581496e+03 
2.865492e-02 8.195477e+03 
2.986299e-02 7.847870e+03 
3.100100e-02 7.554790e+03 
3.220400e-02 7.278162e+03 
3.288100e-02 7.137168e+03 
3.424300e-02 6.881093e+03 
3.555100e-02 6.665050e+03 
3.686000e-02 6.474152e+03 
3.795000e-02 6.330783e+03 
3.929100e-02 6.170757e+03 
4.039800e-02 6.047887e+03 
4.164000e-02 5.917005e+03 
4.294400e-02 5.782483e+03 
4.415000e-02 5.659760e+03 
4.542900e-02 5.525788e+03 
4.660900e-02 5.400400e+03 
4.782300e-02 5.263179e+03 
4.892900e-02 5.134843e+03 
5.031200e-02 4.967614e+03 
5.155900e-02 4.810249e+03 
5.238100e-02 4.704234e+03 
5.378200e-02 4.521009e+03 
5.513400e-02 4.342392e+03 
5.627600e-02 4.192317e+03 
5.735300e-02 4.053647e+03 
5.870100e-02 3.886099e+03 
5.988700e-02 3.746258e+03 
6.113500e-02 3.607506e+03 
6.225900e-02 3.490412e+03 
6.340100e-02 3.379042e+03 
6.480200e-02 3.251853e+03 
6.601100e-02 3.150522e+03 
6.725500e-02 3.053773e+03 
6.829100e-02 2.979340e+03 
6.958600e-02 2.892902e+03 
7.071100e-02 2.824399e+03 
7.192300e-02 2.756826e+03 
7.307400e-02 2.698336e+03 
7.412300e-02 2.649461e+03 
7.550400e-02 2.591353e+03 
7.663100e-02 2.547930e+03 
7.791200e-02 2.503035e+03 
7.912700e-02 2.463581e+03 
8.027600e-02 2.428127e+03 
8.138400e-02 2.395129e+03 
8.272200e-02 2.356215e+03 
8.406100e-02 2.317542e+03 
8.534100e-02 2.279768e+03 
8.653800e-02 2.243192e+03 
8.759800e-02 2.210006e+03 
8.900300e-02 2.164449e+03 
9.009000e-02 2.127658e+03 
9.113300e-02 2.090812e+03 
9.239600e-02 2.045355e+03 
9.358000e-02 2.001453e+03 
9.496100e-02 1.948543e+03 
9.608400e-02 1.905284e+03 
9.727500e-02 1.859582e+03 
9.852600e-02 1.810843e+03 
9.973800e-02 1.764651e+03 
1.009000e-01 1.721350e+03 
1.020900e-01 1.678119e+03 
1.034000e-01 1.632407e+03 
1.046000e-01 1.592258e+03 
1.057200e-01 1.557066e+03 
1.069100e-01 1.521316e+03 
1.082500e-01 1.484033e+03 
1.093900e-01 1.454610e+03 
1.105400e-01 1.426514e+03 
1.116900e-01 1.401153e+03 
1.129600e-01 1.374623e+03 
1.142000e-01 1.351296e+03 
1.153300e-01 1.331299e+03 
1.166400e-01 1.309818e+03 
1.177800e-01 1.292467e+03 
1.190000e-01 1.274755e+03 
1.201200e-01 1.259444e+03 
1.213400e-01 1.243262e+03 
1.227100e-01 1.225730e+03 
1.238900e-01 1.210934e+03 
1.250700e-01 1.196186e+03 
1.263200e-01 1.180683e+03 
1.275500e-01 1.165240e+03 
1.287500e-01 1.150110e+03 
1.299900e-01 1.134182e+03 
1.311300e-01 1.119383e+03 
1.323500e-01 1.103169e+03 
1.335900e-01 1.086548e+03 
1.347100e-01 1.071183e+03 
1.359800e-01 1.053752e+03 
1.372100e-01 1.036465e+03 
1.384300e-01 1.019458e+03 
1.395700e-01 1.003300e+03 
1.407700e-01 9.866169e+02 
1.420300e-01 9.689255e+02 
1.432800e-01 9.517990e+02 
1.444500e-01 9.359203e+02 
1.456300e-01 9.202659e+02 
1.468900e-01 9.041032e+02 
1.480500e-01 8.896102e+02 
1.491700e-01 8.761305e+02 
1.503800e-01 8.621540e+02 
1.516400e-01 8.480672e+02 
1.528200e-01 8.357849e+02 
1.540200e-01 8.235524e+02 
1.551900e-01 8.125117e+02 
1.564300e-01 8.012021e+02 
1.576600e-01 7.905417e+02 
1.588700e-01 7.806576e+02 
1.600900e-01 7.709115e+02 
1.612700e-01 7.621572e+02 
1.625400e-01 7.529138e+02 
1.637600e-01 7.443487e+02 
1.649500e-01 7.362318e+02 
1.662200e-01 7.277222e+02 
1.674000e-01 7.199202e+02 
1.685000e-01 7.127703e+02 
1.697500e-01 7.046482e+02 
1.710300e-01 6.963481e+02 
1.722200e-01 6.887714e+02 
1.734400e-01 6.807461e+02 
1.746400e-01 6.729759e+02 
1.758700e-01 6.650188e+02 
1.770900e-01 6.569953e+02 
1.782700e-01 6.493710e+02 
1.794600e-01 6.416128e+02 
1.807000e-01 6.335362e+02 
1.819100e-01 6.257957e+02 
1.830100e-01 6.187251e+02 
1.842200e-01 6.110518e+02 
1.855000e-01 6.030785e+02 
1.867000e-01 5.956861e+02 
1.879200e-01 5.883008e+02 
1.890900e-01 5.813497e+02 
1.902800e-01 5.744553e+02 
1.915200e-01 5.673935e+02 
1.926900e-01 5.608782e+02 
1.939000e-01 5.543678e+02 
1.951700e-01 5.476501e+02 
1.963100e-01 5.417674e+02 
1.975100e-01 5.358024e+02 
1.987800e-01 5.295928e+02 
2.000100e-01 5.237301e+02 
2.012500e-01 5.180361e+02 
2.023400e-01 5.131061e+02 
2.036100e-01 5.074761e+02 
2.048900e-01 5.019984e+02 
2.060400e-01 4.971524e+02 
2.072200e-01 4.922581e+02 
2.084200e-01 4.874231e+02 
2.096900e-01 4.823840e+02 
2.109200e-01 4.775782e+02 
2.121100e-01 4.730171e+02 
2.132700e-01 4.686352e+02 
2.145200e-01 4.639819e+02 
2.157200e-01 4.595655e+02 
2.168800e-01 4.553496e+02 
2.180700e-01 4.510850e+02 
2.193400e-01 4.465843e+02 
2.206000e-01 4.421567e+02 
2.217500e-01 4.381727e+02 
2.229500e-01 4.340723e+02 
2.241400e-01 4.300092e+02 
2.253500e-01 4.259338e+02 
2.264900e-01 4.221463e+02 
2.277100e-01 4.181259e+02 
2.289900e-01 4.139437e+02 
2.301500e-01 4.102063e+02 
2.313600e-01 4.063600e+02 
2.325600e-01 4.025622e+02 
2.337700e-01 3.987849e+02 
2.350000e-01 3.949977e+02 
2.362000e-01 3.913455e+02 
2.374100e-01 3.877034e+02 
2.386500e-01 3.840217e+02 
2.399100e-01 3.803322e+02 
2.410400e-01 3.770690e+02 
2.422500e-01 3.736198e+02 
2.435000e-01 3.701042e+02 
2.447300e-01 3.666939e+02 
2.458700e-01 3.635837e+02 
2.470600e-01 3.603777e+02 
2.483300e-01 3.570010e+02 
2.495600e-01 3.537846e+02 
2.507600e-01 3.507015e+02 
2.519600e-01 3.476572e+02 
2.532200e-01 3.445017e+02 
2.543700e-01 3.416755e+02 
2.555500e-01 3.388225e+02 
2.568000e-01 3.358380e+02 
2.580100e-01 3.329853e+02 
2.592400e-01 3.301395e+02 
2.604100e-01 3.274734e+02 
2.616100e-01 3.247715e+02 
2.628400e-01 3.220357e+02 
2.640600e-01 3.193750e+02 
2.652200e-01 3.168828e+02 
2.664300e-01 3.143135e+02 
2.676500e-01 3.117538e+02 
2.688400e-01 3.092981e+02 
2.700700e-01 3.067970e+02 
2.712400e-01 3.044455e+02 
2.724800e-01 3.019821e+02 
2.736700e-01 2.996521e+02 
2.748800e-01 2.973165e+02 
2.761000e-01 2.949888e+02 
2.773200e-01 2.926879e+02 
2.785400e-01 2.904158e+02 
2.797000e-01 2.882844e+02 
2.808900e-01 2.861219e+02 
2.821400e-01 2.838760e+02 
2.833900e-01 2.816561e+02 
2.845500e-01 2.796194e+02 
2.857800e-01 2.774833e+02 
2.870300e-01 2.753371e+02 
2.882100e-01 2.733335e+02 
2.893900e-01 2.713512e+02 
2.906300e-01 2.692908e+02 
2.918900e-01 2.672207e+02 
2.930500e-01 2.653356e+02 
2.942500e-01 2.634051e+02 
2.954200e-01 2.615401e+02 
2.966500e-01 2.596003e+02 
2.978900e-01 2.576661e+02 
2.990400e-01 2.558910e+02 
3.002700e-01 2.540106e+02 
3.015100e-01 2.521344e+02 
3.026800e-01 2.503827e+02 
3.038500e-01 2.486488e+02 
3.050300e-01 2.469177e+02 
3.062600e-01 2.451279e+02 
3.075000e-01 2.433427e+02 
3.087000e-01 2.416330e+02 
3.099100e-01 2.399268e+02 
3.111200e-01 2.382375e+02 
3.123100e-01 2.365922e+02 
3.135300e-01 2.349225e+02 
3.147300e-01 2.332968e+02 
3.159900e-01 2.316074e+02 
3.171800e-01 2.300288e+02 
3.183700e-01 2.284663e+02 
3.196300e-01 2.268287e+02 
3.208400e-01 2.252720e+02 
3.220300e-01 2.237561e+02 
3.232000e-01 2.222817e+02 
3.244300e-01 2.207474e+02 
3.256700e-01 2.192162e+02 
3.269200e-01 2.176882e+02 
3.280800e-01 2.162839e+02 
3.292500e-01 2.148845e+02 
3.304800e-01 2.134286e+02 
3.317100e-01 2.119869e+02 
3.328900e-01 2.106171e+02 
3.340700e-01 2.092600e+02 
3.353600e-01 2.077953e+02 
3.365300e-01 2.064814e+02 
3.377100e-01 2.051683e+02 
3.389200e-01 2.038345e+02 
3.401600e-01 2.024806e+02 
3.413700e-01 2.011772e+02 
3.425300e-01 1.999427e+02 
3.437700e-01 1.986353e+02 
3.449800e-01 1.973714e+02 
3.461800e-01 1.961295e+02 
3.473600e-01 1.949217e+02 
3.485800e-01 1.936900e+02 
3.498100e-01 1.924597e+02 
3.510200e-01 1.912605e+02 
3.522000e-01 1.901014e+02 
3.533900e-01 1.889429e+02 
3.546400e-01 1.877466e+02 
3.558400e-01 1.866092e+02 
3.570600e-01 1.854631e+02 
3.582700e-01 1.843365e+02 
3.595000e-01 1.832015e+02 
3.607100e-01 1.821004e+02 
3.618900e-01 1.810401e+02 
3.631200e-01 1.799445e+02 
3.643200e-01 1.788850e+02 
3.655500e-01 1.778085e+02 
3.667300e-01 1.767846e+02 
3.679500e-01 1.757451e+02 
3.691900e-01 1.746977e+02 
3.703600e-01 1.737179e+02 
3.715700e-01 1.727131e+02 
3.727700e-01 1.717250e+02 
3.739900e-01 1.707321e+02 
3.752000e-01 1.697612e+02 
3.763900e-01 1.688143e+02 
3.775800e-01 1.678753e+02 
3.788200e-01 1.669049e+02 
3.800300e-01 1.659661e+02 
3.812100e-01 1.650632e+02 
3.824200e-01 1.641484e+02 
3.836100e-01 1.632561e+02 
3.848600e-01 1.623265e+02 
3.860400e-01 1.614562e+02 
3.872400e-01 1.605782e+02 
3.884600e-01 1.596989e+02 
3.896500e-01 1.588503e+02 
3.908700e-01 1.579873e+02 
3.920600e-01 1.571522e+02 
3.933100e-01 1.562821e+02 
3.945300e-01 1.554398e+02 
3.957200e-01 1.546309e+02 
3.969300e-01 1.538166e+02 
3.981700e-01 1.529887e+02 
3.993500e-01 1.522071e+02 
4.094840e-01 1.457650e+02 
4.272360e-01 1.355875e+02 
4.454600e-01 1.263478e+02 
4.630560e-01 1.184006e+02 
4.804610e-01 1.113379e+02 
4.980690e-01 1.048864e+02 
5.159230e-01 9.895948e+01 
5.317440e-01 9.416017e+01 
5.489640e-01 8.936568e+01 
5.671990e-01 8.472288e+01 
5.838690e-01 8.082045e+01 
6.018840e-01 7.693568e+01 
6.202330e-01 7.329780e+01 
6.379250e-01 7.005657e+01 
6.545410e-01 6.723519e+01 
6.714560e-01 6.455760e+01 
6.892080e-01 6.194108e+01 
7.066010e-01 5.955430e+01 
7.240540e-01 5.731612e+01 
7.420450e-01 5.516213e+01 
7.593780e-01 5.322066e+01 
7.764720e-01 5.142179e+01 
7.942840e-01 4.966080e+01 
8.116170e-01 4.805034e+01 
8.288310e-01 4.654310e+01 
8.462240e-01 4.510529e+01 
8.631980e-01 4.377926e+01 
8.810700e-01 4.245900e+01 
8.989410e-01 4.121040e+01 
9.166330e-01 4.003971e+01 
9.345640e-01 3.891550e+01 
9.515980e-01 3.790045e+01 
9.688720e-01 3.692096e+01 
9.865640e-01 3.596660e+01 
1.031870e+00 3.371944e+01 
1.063490e+00 3.230237e+01 
1.097920e+00 3.088296e+01 
1.134370e+00 2.950199e+01 
1.167730e+00 2.833648e+01 
1.203830e+00 2.716993e+01 
1.240470e+00 2.607411e+01 
1.275790e+00 2.509388e+01 
1.309140e+00 2.422943e+01 
1.342970e+00 2.340784e+01 
1.378420e+00 2.260051e+01 
1.413200e+00 2.185738e+01 
1.448110e+00 2.115549e+01 
1.484090e+00 2.047384e+01 
1.518820e+00 1.985353e+01 
1.552880e+00 1.927752e+01 
1.588630e+00 1.870472e+01 
1.623230e+00 1.817885e+01 
1.657720e+00 1.768096e+01 
1.692450e+00 1.720363e+01 
1.726400e+00 1.675911e+01 
1.762200e+00 1.631174e+01 
1.797880e+00 1.588659e+01 
1.833270e+00 1.548399e+01 
1.869070e+00 1.509469e+01 
1.903200e+00 1.473923e+01 
1.937740e+00 1.439432e+01 
1.973190e+00 1.405448e+01 
2.007440e+00 1.373925e+01 
2.042160e+00 1.343192e+01 
2.077900e+00 1.312773e+01 
2.112390e+00 1.284542e+01 
2.146220e+00 1.257829e+01 
2.181600e+00 1.230892e+01 
2.216930e+00 1.204944e+01 
2.250760e+00 1.180954e+01 
2.286500e+00 1.156484e+01 
2.321770e+00 1.133167e+01 
2.355950e+00 1.111290e+01 
2.391280e+00 1.089412e+01 
2.426240e+00 1.068445e+01 
2.460670e+00 1.048447e+01 
2.495640e+00 1.028777e+01 
2.531080e+00 1.009422e+01 
2.566220e+00 9.908107e+00 
2.600830e+00 9.730247e+00 
2.635080e+00 9.559350e+00 
2.670340e+00 9.388268e+00 
2.705970e+00 9.220304e+00 
2.740040e+00 9.064205e+00 
2.774520e+00 8.910403e+00 
2.809730e+00 8.757465e+00 
2.844390e+00 8.611049e+00 
2.879960e+00 8.464765e+00 
2.914860e+00 8.324815e+00 
2.949410e+00 8.189905e+00 
2.984440e+00 8.056438e+00 
3.019760e+00 7.925281e+00 
3.054730e+00 7.798811e+00 
3.089030e+00 7.677372e+00 
3.124060e+00 7.556455e+00 
3.159560e+00 7.436866e+00 
3.194710e+00 7.321162e+00 
3.229010e+00 7.211044e+00 
3.263320e+00 7.102991e+00 
3.297930e+00 6.996618e+00 
3.332830e+00 6.891720e+00 
3.368040e+00 6.788200e+00 
3.403300e+00 6.686886e+00 
3.438450e+00 6.587958e+00 
3.473060e+00 6.492861e+00 
3.508440e+00 6.397344e+00 
3.543110e+00 6.305944e+00 
3.577470e+00 6.217021e+00 
3.613040e+00 6.127019e+00 
3.648120e+00 6.039933e+00 
3.682910e+00 5.955421e+00 
3.718050e+00 5.871705e+00 
3.753320e+00 5.789396e+00 
3.787980e+00 5.710009e+00 
3.822290e+00 5.632994e+00 
3.857020e+00 5.556471e+00 
3.891920e+00 5.481116e+00 
3.926650e+00 5.407469e+00 
3.961970e+00 5.334066e+00 
3.997360e+00 5.261750e+00 
4.031670e+00 5.193077e+00 
4.066330e+00 5.124815e+00 
4.101420e+00 5.057164e+00 
4.136200e+00 4.991044e+00 
4.170810e+00 4.926624e+00 
4.206250e+00 4.861670e+00 
4.241580e+00 4.798209e+00 
4.276300e+00 4.736878e+00 
4.310970e+00 4.676737e+00 
4.346120e+00 4.616841e+00 
4.380600e+00 4.559003e+00 
4.414730e+00 4.502866e+00 
4.450350e+00 4.445071e+00 
4.485320e+00 4.389461e+00 
4.519810e+00 4.335431e+00 
4.555430e+00 4.280607e+00 
4.590870e+00 4.227017e+00 
4.625480e+00 4.175448e+00 
4.659910e+00 4.125116e+00 
4.695230e+00 4.074179e+00 
4.729960e+00 4.024997e+00 
4.764450e+00 3.976958e+00 
4.799530e+00 3.928831e+00 
4.834910e+00 3.881198e+00 
4.869700e+00 3.834953e+00 
4.904370e+00 3.789661e+00 
4.939450e+00 3.744594e+00 
4.973940e+00 3.700901e+00 
5.008430e+00 3.657982e+00 
5.043810e+00 3.614583e+00 
5.078840e+00 3.572288e+00 
5.113500e+00 3.531176e+00 
5.148890e+00 3.489695e+00 
5.184210e+00 3.449016e+00 
5.219060e+00 3.409529e+00 
5.253660e+00 3.370862e+00 
5.288570e+00 3.332513e+00 
5.323420e+00 3.294782e+00 
5.358440e+00 3.257396e+00 
5.393590e+00 3.220506e+00 
5.428310e+00 3.184570e+00 
5.462800e+00 3.149404e+00 
5.497640e+00 3.114464e+00 
5.532670e+00 3.079785e+00 
5.567280e+00 3.046041e+00 
5.602000e+00 3.012737e+00 
5.637270e+00 2.979339e+00 
5.672410e+00 2.946579e+00 
5.707020e+00 2.914829e+00 
5.742040e+00 2.883109e+00 
5.777430e+00 2.851546e+00 
5.812210e+00 2.821017e+00 
5.846820e+00 2.791023e+00 
5.881610e+00 2.761318e+00 
5.916510e+00 2.731981e+00 
5.951600e+00 2.702880e+00 
5.986560e+00 2.674306e+00 
6.021830e+00 2.645922e+00 
6.056490e+00 2.618401e+00 
6.091160e+00 2.591240e+00 
6.125830e+00 2.564485e+00 
6.161090e+00 2.537664e+00 
6.195760e+00 2.511645e+00 
6.230420e+00 2.486016e+00 
6.265690e+00 2.460320e+00 
6.300950e+00 2.434952e+00 
6.335620e+00 2.410375e+00 
6.370880e+00 2.385743e+00 
6.405550e+00 2.361839e+00 
6.440220e+00 2.338264e+00 
6.475480e+00 2.314631e+00 
6.510150e+00 2.291719e+00 
6.544810e+00 2.269120e+00 
6.580080e+00 2.246449e+00 
6.614750e+00 2.224478e+00 
6.649410e+00 2.202791e+00 
6.684080e+00 2.181392e+00 
6.719340e+00 2.159931e+00 
6.754010e+00 2.139116e+00 
6.788680e+00 2.118573e+00 
6.823940e+00 2.097967e+00 
6.859800e+00 2.077300e+00 
6.894470e+00 2.057593e+00 
6.929140e+00 2.038149e+00 
6.963800e+00 2.018970e+00 
6.999070e+00 1.999715e+00 
7.033730e+00 1.981044e+00 
7.068400e+00 1.962614e+00 
7.103660e+00 1.944118e+00 
7.138330e+00 1.926170e+00 
7.173600e+00 1.908152e+00 
7.208260e+00 1.890676e+00 
7.243530e+00 1.873123e+00 
7.277600e+00 1.856396e+00 
7.312860e+00 1.839316e+00 
7.348120e+00 1.822456e+00 
7.382790e+00 1.806090e+00 
7.417460e+00 1.789934e+00 
7.452720e+00 1.773714e+00 
7.487390e+00 1.757966e+00 
7.522650e+00 1.742152e+00 
7.557320e+00 1.726819e+00 
7.591990e+00 1.711684e+00 
7.627250e+00 1.696481e+00 
7.662510e+00 1.681468e+00 
7.697180e+00 1.666910e+00 
7.731850e+00 1.652537e+00 
7.766510e+00 1.638341e+00 
7.801180e+00 1.624312e+00 
7.836440e+00 1.610233e+00 
7.871110e+00 1.596566e+00 
7.906380e+00 1.582829e+00 
7.941040e+00 1.569491e+00 
7.976310e+00 1.556093e+00 
8.011570e+00 1.542878e+00 
8.046240e+00 1.530036e+00 
8.080900e+00 1.517347e+00 
8.115570e+00 1.504810e+00 
8.150830e+00 1.492245e+00 
8.185500e+00 1.480033e+00 
8.220770e+00 1.467753e+00 
8.255430e+00 1.455823e+00 
8.290100e+00 1.444058e+00 
8.324770e+00 1.432428e+00 
8.359430e+00 1.420933e+00 
8.394700e+00 1.409367e+00 
8.429960e+00 1.397957e+00 
8.464630e+00 1.386885e+00 
8.499890e+00 1.375749e+00 
8.534560e+00 1.364922e+00 
8.569200e+00 1.354222e+00 
