# Parameters:
# omega_b = 0.021752, omega_m = 0.132126, n_s = 0.884646, h = 65.866142, w = -1.000000, sigma_8 = 0.810236
# z = 1.900000
#
# k[1/Mpc] # P(k):
8.694000e-04 5.382188e+03 
2.077466e-03 1.065552e+04 
3.285532e-03 1.444118e+04 
4.493598e-03 1.714508e+04 
5.701664e-03 1.900258e+04 
6.909730e-03 2.019050e+04 
8.117797e-03 2.087797e+04 
9.325863e-03 2.115318e+04 
1.053393e-02 2.109892e+04 
1.174199e-02 2.078887e+04 
1.295006e-02 2.026842e+04 
1.415813e-02 1.959506e+04 
1.536619e-02 1.881712e+04 
1.657426e-02 1.796656e+04 
1.778233e-02 1.707104e+04 
1.899039e-02 1.617096e+04 
2.019846e-02 1.528750e+04 
2.140652e-02 1.443822e+04 
2.261459e-02 1.363226e+04 
2.382266e-02 1.288041e+04 
2.503072e-02 1.218936e+04 
2.623879e-02 1.156024e+04 
2.744685e-02 1.099314e+04 
2.865492e-02 1.048600e+04 
2.986299e-02 1.003432e+04 
3.100100e-02 9.657659e+03 
3.220400e-02 9.305186e+03 
3.288100e-02 9.126650e+03 
3.424300e-02 8.803187e+03 
3.555100e-02 8.530130e+03 
3.686000e-02 8.287364e+03 
3.795000e-02 8.103163e+03 
3.929100e-02 7.893716e+03 
4.039800e-02 7.729534e+03 
4.164000e-02 7.551377e+03 
4.294400e-02 7.363450e+03 
4.415000e-02 7.189739e+03 
4.542900e-02 6.997764e+03 
4.660900e-02 6.817484e+03 
4.782300e-02 6.620464e+03 
4.892900e-02 6.437159e+03 
5.031200e-02 6.200577e+03 
5.155900e-02 5.980877e+03 
5.238100e-02 5.834494e+03 
5.378200e-02 5.584434e+03 
5.513400e-02 5.344595e+03 
5.627600e-02 5.146040e+03 
5.735300e-02 4.964656e+03 
5.870100e-02 4.747929e+03 
5.988700e-02 4.568720e+03 
6.113500e-02 4.392159e+03 
6.225900e-02 4.244129e+03 
6.340100e-02 4.104081e+03 
6.480200e-02 3.944932e+03 
6.601100e-02 3.819312e+03 
6.725500e-02 3.700531e+03 
6.829100e-02 3.610239e+03 
6.958600e-02 3.506369e+03 
7.071100e-02 3.425005e+03 
7.192300e-02 3.345445e+03 
7.307400e-02 3.277050e+03 
7.412300e-02 3.220112e+03 
7.550400e-02 3.152478e+03 
7.663100e-02 3.101793e+03 
7.791200e-02 3.048868e+03 
7.912700e-02 3.001606e+03 
8.027600e-02 2.958436e+03 
8.138400e-02 2.917606e+03 
8.272200e-02 2.868533e+03 
8.406100e-02 2.818842e+03 
8.534100e-02 2.769405e+03 
8.653800e-02 2.721020e+03 
8.759800e-02 2.676928e+03 
8.900300e-02 2.616243e+03 
9.009000e-02 2.567262e+03 
9.113300e-02 2.518406e+03 
9.239600e-02 2.458390e+03 
9.358000e-02 2.400821e+03 
9.496100e-02 2.332176e+03 
9.608400e-02 2.276543e+03 
9.727500e-02 2.218170e+03 
9.852600e-02 2.156929e+03 
9.973800e-02 2.099386e+03 
1.009000e-01 2.045849e+03 
1.020900e-01 1.993380e+03 
1.034000e-01 1.938362e+03 
1.046000e-01 1.890517e+03 
1.057200e-01 1.849334e+03 
1.069100e-01 1.807755e+03 
1.082500e-01 1.765122e+03 
1.093900e-01 1.731869e+03 
1.105400e-01 1.700343e+03 
1.116900e-01 1.672303e+03 
1.129600e-01 1.643069e+03 
1.142000e-01 1.617550e+03 
1.153300e-01 1.595625e+03 
1.166400e-01 1.572003e+03 
1.177800e-01 1.552634e+03 
1.190000e-01 1.532718e+03 
1.201200e-01 1.514892e+03 
1.213400e-01 1.495935e+03 
1.227100e-01 1.474346e+03 
1.238900e-01 1.455916e+03 
1.250700e-01 1.436875e+03 
1.263200e-01 1.416662e+03 
1.275500e-01 1.396093e+03 
1.287500e-01 1.375842e+03 
1.299900e-01 1.354374e+03 
1.311300e-01 1.334499e+03 
1.323500e-01 1.312825e+03 
1.335900e-01 1.290830e+03 
1.347100e-01 1.270770e+03 
1.359800e-01 1.248267e+03 
1.372100e-01 1.226426e+03 
1.384300e-01 1.205165e+03 
1.395700e-01 1.185474e+03 
1.407700e-01 1.165214e+03 
1.420300e-01 1.144382e+03 
1.432800e-01 1.124215e+03 
1.444500e-01 1.106041e+03 
1.456300e-01 1.088117e+03 
1.468900e-01 1.069848e+03 
1.480500e-01 1.053533e+03 
1.491700e-01 1.038399e+03 
1.503800e-01 1.022765e+03 
1.516400e-01 1.006986e+03 
1.528200e-01 9.931645e+02 
1.540200e-01 9.793936e+02 
1.551900e-01 9.667971e+02 
1.564300e-01 9.538486e+02 
1.576600e-01 9.415155e+02 
1.588700e-01 9.299242e+02 
1.600900e-01 9.184789e+02 
1.612700e-01 9.079198e+02 
1.625400e-01 8.967714e+02 
1.637600e-01 8.863015e+02 
1.649500e-01 8.762970e+02 
1.662200e-01 8.657907e+02 
1.674000e-01 8.560519e+02 
1.685000e-01 8.471289e+02 
1.697500e-01 8.369906e+02 
1.710300e-01 8.266289e+02 
1.722200e-01 8.171725e+02 
1.734400e-01 8.072370e+02 
1.746400e-01 7.976228e+02 
1.758700e-01 7.878231e+02 
1.770900e-01 7.780308e+02 
1.782700e-01 7.687274e+02 
1.794600e-01 7.593452e+02 
1.807000e-01 7.496336e+02 
1.819100e-01 7.403271e+02 
1.830100e-01 7.319270e+02 
1.842200e-01 7.228280e+02 
1.855000e-01 7.133774e+02 
1.867000e-01 7.047076e+02 
1.879200e-01 6.960454e+02 
1.890900e-01 6.879018e+02 
1.902800e-01 6.798742e+02 
1.915200e-01 6.716508e+02 
1.926900e-01 6.640694e+02 
1.939000e-01 6.565141e+02 
1.951700e-01 6.487174e+02 
1.963100e-01 6.418883e+02 
1.975100e-01 6.349614e+02 
1.987800e-01 6.277497e+02 
2.000100e-01 6.209332e+02 
2.012500e-01 6.142960e+02 
2.023400e-01 6.085490e+02 
2.036100e-01 6.019775e+02 
2.048900e-01 5.955532e+02 
2.060400e-01 5.898694e+02 
2.072200e-01 5.841258e+02 
2.084200e-01 5.784170e+02 
2.096900e-01 5.724669e+02 
2.109200e-01 5.667923e+02 
2.121100e-01 5.613761e+02 
2.132700e-01 5.561711e+02 
2.145200e-01 5.506437e+02 
2.157200e-01 5.453839e+02 
2.168800e-01 5.403567e+02 
2.180700e-01 5.352715e+02 
2.193400e-01 5.299016e+02 
2.206000e-01 5.246129e+02 
2.217500e-01 5.198543e+02 
2.229500e-01 5.149569e+02 
2.241400e-01 5.101055e+02 
2.253500e-01 5.052396e+02 
2.264900e-01 5.007175e+02 
2.277100e-01 4.959217e+02 
2.289900e-01 4.909377e+02 
2.301500e-01 4.864840e+02 
2.313600e-01 4.819006e+02 
2.325600e-01 4.773876e+02 
2.337700e-01 4.728989e+02 
2.350000e-01 4.683985e+02 
2.362000e-01 4.640641e+02 
2.374100e-01 4.597481e+02 
2.386500e-01 4.553851e+02 
2.399100e-01 4.510128e+02 
2.410400e-01 4.471550e+02 
2.422500e-01 4.430784e+02 
2.435000e-01 4.389232e+02 
2.447300e-01 4.348942e+02 
2.458700e-01 4.312267e+02 
2.470600e-01 4.274461e+02 
2.483300e-01 4.234642e+02 
2.495600e-01 4.196742e+02 
2.507600e-01 4.160451e+02 
2.519600e-01 4.124616e+02 
2.532200e-01 4.087471e+02 
2.543700e-01 4.054232e+02 
2.555500e-01 4.020698e+02 
2.568000e-01 3.985616e+02 
2.580100e-01 3.952082e+02 
2.592400e-01 3.918652e+02 
2.604100e-01 3.887341e+02 
2.616100e-01 3.855608e+02 
2.628400e-01 3.823475e+02 
2.640600e-01 3.792236e+02 
2.652200e-01 3.762977e+02 
2.664300e-01 3.732812e+02 
2.676500e-01 3.702759e+02 
2.688400e-01 3.673927e+02 
2.700700e-01 3.644561e+02 
2.712400e-01 3.616949e+02 
2.724800e-01 3.588024e+02 
2.736700e-01 3.560657e+02 
2.748800e-01 3.533221e+02 
2.761000e-01 3.505875e+02 
2.773200e-01 3.478843e+02 
2.785400e-01 3.452146e+02 
2.797000e-01 3.427097e+02 
2.808900e-01 3.401682e+02 
2.821400e-01 3.375285e+02 
2.833900e-01 3.349192e+02 
2.845500e-01 3.325244e+02 
2.857800e-01 3.300127e+02 
2.870300e-01 3.274890e+02 
2.882100e-01 3.251328e+02 
2.893900e-01 3.228017e+02 
2.906300e-01 3.203786e+02 
2.918900e-01 3.179441e+02 
2.930500e-01 3.157269e+02 
2.942500e-01 3.134565e+02 
2.954200e-01 3.112636e+02 
2.966500e-01 3.089827e+02 
2.978900e-01 3.067081e+02 
2.990400e-01 3.046207e+02 
3.002700e-01 3.024100e+02 
3.015100e-01 3.002047e+02 
3.026800e-01 2.981456e+02 
3.038500e-01 2.961072e+02 
3.050300e-01 2.940721e+02 
3.062600e-01 2.919697e+02 
3.075000e-01 2.898724e+02 
3.087000e-01 2.878639e+02 
3.099100e-01 2.858593e+02 
3.111200e-01 2.838751e+02 
3.123100e-01 2.819432e+02 
3.135300e-01 2.799826e+02 
3.147300e-01 2.780736e+02 
3.159900e-01 2.760897e+02 
3.171800e-01 2.742366e+02 
3.183700e-01 2.724028e+02 
3.196300e-01 2.704807e+02 
3.208400e-01 2.686535e+02 
3.220300e-01 2.668741e+02 
3.232000e-01 2.651440e+02 
3.244300e-01 2.633438e+02 
3.256700e-01 2.615470e+02 
3.269200e-01 2.597539e+02 
3.280800e-01 2.581060e+02 
3.292500e-01 2.564641e+02 
3.304800e-01 2.547560e+02 
3.317100e-01 2.530645e+02 
3.328900e-01 2.514572e+02 
3.340700e-01 2.498648e+02 
3.353600e-01 2.481461e+02 
3.365300e-01 2.466042e+02 
3.377100e-01 2.450633e+02 
3.389200e-01 2.434978e+02 
3.401600e-01 2.419087e+02 
3.413700e-01 2.403785e+02 
3.425300e-01 2.389290e+02 
3.437700e-01 2.373936e+02 
3.449800e-01 2.359093e+02 
3.461800e-01 2.344507e+02 
3.473600e-01 2.330319e+02 
3.485800e-01 2.315844e+02 
3.498100e-01 2.301384e+02 
3.510200e-01 2.287289e+02 
3.522000e-01 2.273665e+02 
3.533900e-01 2.260047e+02 
3.546400e-01 2.245973e+02 
3.558400e-01 2.232590e+02 
3.570600e-01 2.219104e+02 
3.582700e-01 2.205848e+02 
3.595000e-01 2.192492e+02 
3.607100e-01 2.179526e+02 
3.618900e-01 2.167036e+02 
3.631200e-01 2.154128e+02 
3.643200e-01 2.141646e+02 
3.655500e-01 2.128962e+02 
3.667300e-01 2.116898e+02 
3.679500e-01 2.104635e+02 
3.691900e-01 2.092280e+02 
3.703600e-01 2.080720e+02 
3.715700e-01 2.068865e+02 
3.727700e-01 2.057207e+02 
3.739900e-01 2.045486e+02 
3.752000e-01 2.034016e+02 
3.763900e-01 2.022829e+02 
3.775800e-01 2.011733e+02 
3.788200e-01 2.000268e+02 
3.800300e-01 1.989174e+02 
3.812100e-01 1.978498e+02 
3.824200e-01 1.967676e+02 
3.836100e-01 1.957119e+02 
3.848600e-01 1.946121e+02 
3.860400e-01 1.935824e+02 
3.872400e-01 1.925436e+02 
3.884600e-01 1.915023e+02 
3.896500e-01 1.904970e+02 
3.908700e-01 1.894746e+02 
3.920600e-01 1.884853e+02 
3.933100e-01 1.874545e+02 
3.945300e-01 1.864565e+02 
3.957200e-01 1.854973e+02 
3.969300e-01 1.845314e+02 
3.981700e-01 1.835494e+02 
3.993500e-01 1.826222e+02 
4.094840e-01 1.749759e+02 
4.272360e-01 1.628791e+02 
4.454600e-01 1.518908e+02 
4.630560e-01 1.424424e+02 
4.804610e-01 1.340531e+02 
4.980690e-01 1.263990e+02 
5.159230e-01 1.193760e+02 
5.317440e-01 1.136940e+02 
5.489640e-01 1.080220e+02 
5.671990e-01 1.025341e+02 
5.838690e-01 9.792137e+01 
6.018840e-01 9.333137e+01 
6.202330e-01 8.903366e+01 
6.379250e-01 8.520244e+01 
6.545410e-01 8.186710e+01 
6.714560e-01 7.870090e+01 
6.892080e-01 7.560421e+01 
7.066010e-01 7.277847e+01 
7.240540e-01 7.012651e+01 
7.420450e-01 6.757297e+01 
7.593780e-01 6.526977e+01 
7.764720e-01 6.313431e+01 
7.942840e-01 6.104280e+01 
8.116170e-01 5.912819e+01 
8.288310e-01 5.733496e+01 
8.462240e-01 5.562269e+01 
8.631980e-01 5.404236e+01 
8.810700e-01 5.246745e+01 
8.989410e-01 5.097716e+01 
9.166330e-01 4.957786e+01 
9.345640e-01 4.823311e+01 
9.515980e-01 4.701816e+01 
9.688720e-01 4.584397e+01 
9.865640e-01 4.469901e+01 
1.031870e+00 4.199755e+01 
1.063490e+00 4.028991e+01 
1.097920e+00 3.857581e+01 
1.134370e+00 3.690387e+01 
1.167730e+00 3.548966e+01 
1.203830e+00 3.407081e+01 
1.240470e+00 3.273455e+01 
1.275790e+00 3.153641e+01 
1.309140e+00 3.047794e+01 
1.342970e+00 2.946845e+01 
1.378420e+00 2.847469e+01 
1.413200e+00 2.755800e+01 
1.448110e+00 2.669031e+01 
1.484090e+00 2.584559e+01 
1.518820e+00 2.507549e+01 
1.552880e+00 2.435873e+01 
1.588630e+00 2.364468e+01 
1.623230e+00 2.298754e+01 
1.657720e+00 2.236469e+01 
1.692450e+00 2.176617e+01 
1.726400e+00 2.120801e+01 
1.762200e+00 2.064518e+01 
1.797880e+00 2.010948e+01 
1.833270e+00 1.960127e+01 
1.869070e+00 1.910940e+01 
1.903200e+00 1.865927e+01 
1.937740e+00 1.822200e+01 
1.973190e+00 1.779077e+01 
2.007440e+00 1.739024e+01 
2.042160e+00 1.699913e+01 
2.077900e+00 1.661159e+01 
2.112390e+00 1.625182e+01 
2.146220e+00 1.591065e+01 
2.181600e+00 1.556648e+01 
2.216930e+00 1.523443e+01 
2.250760e+00 1.492726e+01 
2.286500e+00 1.461378e+01 
2.321770e+00 1.431475e+01 
2.355950e+00 1.403380e+01 
2.391280e+00 1.375275e+01 
2.426240e+00 1.348311e+01 
2.460670e+00 1.322579e+01 
2.495640e+00 1.297268e+01 
2.531080e+00 1.272346e+01 
2.566220e+00 1.248348e+01 
2.600830e+00 1.225402e+01 
2.635080e+00 1.203348e+01 
2.670340e+00 1.181274e+01 
2.705970e+00 1.159584e+01 
2.740040e+00 1.139414e+01 
2.774520e+00 1.119533e+01 
2.809730e+00 1.099757e+01 
2.844390e+00 1.080821e+01 
2.879960e+00 1.061900e+01 
2.914860e+00 1.043794e+01 
2.949410e+00 1.026335e+01 
2.984440e+00 1.009048e+01 
3.019760e+00 9.920644e+00 
3.054730e+00 9.756900e+00 
3.089030e+00 9.599586e+00 
3.124060e+00 9.442998e+00 
3.159560e+00 9.288192e+00 
3.194710e+00 9.138312e+00 
3.229010e+00 8.995654e+00 
3.263320e+00 8.855685e+00 
3.297930e+00 8.717901e+00 
3.332830e+00 8.582030e+00 
3.368040e+00 8.447974e+00 
3.403300e+00 8.316804e+00 
3.438450e+00 8.188726e+00 
3.473060e+00 8.065625e+00 
3.508440e+00 7.942008e+00 
3.543110e+00 7.823747e+00 
3.577470e+00 7.708744e+00 
3.613040e+00 7.592361e+00 
3.648120e+00 7.479750e+00 
3.682910e+00 7.370527e+00 
3.718050e+00 7.262426e+00 
3.753320e+00 7.156135e+00 
3.787980e+00 7.053598e+00 
3.822290e+00 6.954180e+00 
3.857020e+00 6.855472e+00 
3.891920e+00 6.758298e+00 
3.926650e+00 6.663357e+00 
3.961970e+00 6.568765e+00 
3.997360e+00 6.475622e+00 
4.031670e+00 6.387206e+00 
4.066330e+00 6.299393e+00 
4.101420e+00 6.212389e+00 
4.136200e+00 6.127400e+00 
4.170810e+00 6.044617e+00 
4.206250e+00 5.961233e+00 
4.241580e+00 5.879798e+00 
4.276300e+00 5.801132e+00 
4.310970e+00 5.724021e+00 
4.346120e+00 5.647270e+00 
4.380600e+00 5.573216e+00 
4.414730e+00 5.501362e+00 
4.450350e+00 5.427422e+00 
4.485320e+00 5.356299e+00 
4.519810e+00 5.287298e+00 
4.555430e+00 5.217339e+00 
4.590870e+00 5.148975e+00 
4.625480e+00 5.083212e+00 
4.659910e+00 5.019042e+00 
4.695230e+00 4.954182e+00 
4.729960e+00 4.891582e+00 
4.764450e+00 4.830490e+00 
4.799530e+00 4.769364e+00 
4.834910e+00 4.708880e+00 
4.869700e+00 4.650188e+00 
4.904370e+00 4.592723e+00 
4.939450e+00 4.535583e+00 
4.973940e+00 4.480260e+00 
5.008430e+00 4.425932e+00 
5.043810e+00 4.371039e+00 
5.078840e+00 4.317576e+00 
5.113500e+00 4.265622e+00 
5.148890e+00 4.213299e+00 
5.184210e+00 4.162005e+00 
5.219060e+00 4.112235e+00 
5.253660e+00 4.063537e+00 
5.288570e+00 4.015252e+00 
5.323420e+00 3.967776e+00 
5.358440e+00 3.920771e+00 
5.393590e+00 3.874401e+00 
5.428310e+00 3.829301e+00 
5.462800e+00 3.785212e+00 
5.497640e+00 3.741417e+00 
5.532670e+00 3.697990e+00 
5.567280e+00 3.655754e+00 
5.602000e+00 3.614079e+00 
5.637270e+00 3.572339e+00 
5.672410e+00 3.531416e+00 
5.707020e+00 3.491765e+00 
5.742040e+00 3.452207e+00 
5.777430e+00 3.412863e+00 
5.812210e+00 3.374819e+00 
5.846820e+00 3.337486e+00 
5.881610e+00 3.300532e+00 
5.916510e+00 3.264045e+00 
5.951600e+00 3.227891e+00 
5.986560e+00 3.192416e+00 
6.021830e+00 3.157185e+00 
6.056490e+00 3.123058e+00 
6.091160e+00 3.089407e+00 
6.125830e+00 3.056268e+00 
6.161090e+00 3.023064e+00 
6.195760e+00 2.990880e+00 
6.230420e+00 2.959188e+00 
6.265690e+00 2.927421e+00 
6.300950e+00 2.896127e+00 
6.335620e+00 2.865814e+00 
6.370880e+00 2.835442e+00 
6.405550e+00 2.805995e+00 
6.440220e+00 2.776967e+00 
6.475480e+00 2.747875e+00 
6.510150e+00 2.719686e+00 
6.544810e+00 2.691911e+00 
6.580080e+00 2.664053e+00 
6.614750e+00 2.637060e+00 
6.649410e+00 2.610445e+00 
6.684080e+00 2.584194e+00 
6.719340e+00 2.557872e+00 
6.754010e+00 2.532360e+00 
6.788680e+00 2.507215e+00 
6.823940e+00 2.481997e+00 
6.859800e+00 2.456711e+00 
6.894470e+00 2.432632e+00 
6.929140e+00 2.408890e+00 
6.963800e+00 2.385476e+00 
6.999070e+00 2.361975e+00 
7.033730e+00 2.339210e+00 
7.068400e+00 2.316742e+00 
7.103660e+00 2.294199e+00 
7.138330e+00 2.272334e+00 
7.173600e+00 2.250401e+00 
7.208260e+00 2.229132e+00 
7.243530e+00 2.207773e+00 
7.277600e+00 2.187439e+00 
7.312860e+00 2.166694e+00 
7.348120e+00 2.146220e+00 
7.382790e+00 2.126349e+00 
7.417460e+00 2.106751e+00 
7.452720e+00 2.087085e+00 
7.487390e+00 2.067995e+00 
7.522650e+00 2.048826e+00 
7.557320e+00 2.030255e+00 
7.591990e+00 2.011930e+00 
7.627250e+00 1.993527e+00 
7.662510e+00 1.975356e+00 
7.697180e+00 1.957756e+00 
7.731850e+00 1.940389e+00 
7.766510e+00 1.923240e+00 
7.801180e+00 1.906294e+00 
7.836440e+00 1.889304e+00 
7.871110e+00 1.872823e+00 
7.906380e+00 1.856259e+00 
7.941040e+00 1.840178e+00 
7.976310e+00 1.824035e+00 
8.011570e+00 1.808120e+00 
8.046240e+00 1.792658e+00 
8.080900e+00 1.777382e+00 
8.115570e+00 1.762294e+00 
8.150830e+00 1.747182e+00 
8.185500e+00 1.732496e+00 
8.220770e+00 1.717731e+00 
8.255430e+00 1.703389e+00 
8.290100e+00 1.689265e+00 
8.324770e+00 1.675309e+00 
8.359430e+00 1.661516e+00 
8.394700e+00 1.647639e+00 
8.429960e+00 1.633956e+00 
8.464630e+00 1.620683e+00 
8.499890e+00 1.607337e+00 
8.534560e+00 1.594362e+00 
8.569200e+00 1.581541e+00 
