# Parameters:
# omega_b = 0.021957, omega_m = 0.129646, n_s = 0.991732, h = 73.661417, w = -1.000000, sigma_8 = 0.802362
# z = 1.900000
#
# k[1/Mpc] # P(k):
8.694000e-04 3.235152e+03 
2.077466e-03 7.010536e+03 
3.285532e-03 9.957813e+03 
4.493598e-03 1.220345e+04 
5.701664e-03 1.384724e+04 
6.909730e-03 1.498782e+04 
8.117797e-03 1.573633e+04 
9.325863e-03 1.615074e+04 
1.053393e-02 1.628873e+04 
1.174199e-02 1.620389e+04 
1.295006e-02 1.593073e+04 
1.415813e-02 1.551526e+04 
1.536619e-02 1.499641e+04 
1.657426e-02 1.440094e+04 
1.778233e-02 1.375333e+04 
1.899039e-02 1.308868e+04 
2.019846e-02 1.242614e+04 
2.140652e-02 1.178192e+04 
2.261459e-02 1.116511e+04 
2.382266e-02 1.058616e+04 
2.503072e-02 1.005181e+04 
2.623879e-02 9.564061e+03 
2.744685e-02 9.123917e+03 
2.865492e-02 8.730447e+03 
2.986299e-02 8.380572e+03 
3.100100e-02 8.089868e+03 
3.220400e-02 7.819129e+03 
3.288100e-02 7.682820e+03 
3.424300e-02 7.437513e+03 
3.555100e-02 7.232287e+03 
3.686000e-02 7.051573e+03 
3.795000e-02 6.915469e+03 
3.929100e-02 6.761632e+03 
4.039800e-02 6.641049e+03 
4.164000e-02 6.509631e+03 
4.294400e-02 6.369190e+03 
4.415000e-02 6.237707e+03 
4.542900e-02 6.089355e+03 
4.660900e-02 5.947912e+03 
4.782300e-02 5.790011e+03 
4.892900e-02 5.641067e+03 
5.031200e-02 5.445916e+03 
5.155900e-02 5.262135e+03 
5.238100e-02 5.138530e+03 
5.378200e-02 4.925434e+03 
5.513400e-02 4.718492e+03 
5.627600e-02 4.545046e+03 
5.735300e-02 4.384557e+03 
5.870100e-02 4.189615e+03 
5.988700e-02 4.025523e+03 
6.113500e-02 3.861386e+03 
6.225900e-02 3.722431e+03 
6.340100e-02 3.590866e+03 
6.480200e-02 3.442579e+03 
6.601100e-02 3.328052e+03 
6.725500e-02 3.222698e+03 
6.829100e-02 3.145292e+03 
6.958600e-02 3.058702e+03 
7.071100e-02 2.993234e+03 
7.192300e-02 2.931090e+03 
7.307400e-02 2.879171e+03 
7.412300e-02 2.836969e+03 
7.550400e-02 2.788101e+03 
7.663100e-02 2.752066e+03 
7.791200e-02 2.714874e+03 
7.912700e-02 2.681515e+03 
8.027600e-02 2.650612e+03 
8.138400e-02 2.620819e+03 
8.272200e-02 2.583988e+03 
8.406100e-02 2.545398e+03 
8.534100e-02 2.505403e+03 
8.653800e-02 2.464914e+03 
8.759800e-02 2.427225e+03 
8.900300e-02 2.374183e+03 
9.009000e-02 2.330488e+03 
9.113300e-02 2.286234e+03 
9.239600e-02 2.231364e+03 
9.358000e-02 2.178198e+03 
9.496100e-02 2.114240e+03 
9.608400e-02 2.062191e+03 
9.727500e-02 2.007446e+03 
9.852600e-02 1.949877e+03 
9.973800e-02 1.895857e+03 
1.009000e-01 1.845664e+03 
1.020900e-01 1.796812e+03 
1.034000e-01 1.745865e+03 
1.046000e-01 1.701854e+03 
1.057200e-01 1.664623e+03 
1.069100e-01 1.627310e+03 
1.082500e-01 1.589920e+03 
1.093900e-01 1.561372e+03 
1.105400e-01 1.534678e+03 
1.116900e-01 1.511860e+03 
1.129600e-01 1.488392e+03 
1.142000e-01 1.468740e+03 
1.153300e-01 1.452117e+03 
1.166400e-01 1.434637e+03 
1.177800e-01 1.420480e+03 
1.190000e-01 1.406015e+03 
1.201200e-01 1.392845e+03 
1.213400e-01 1.378806e+03 
1.227100e-01 1.362021e+03 
1.238900e-01 1.347476e+03 
1.250700e-01 1.331732e+03 
1.263200e-01 1.314710e+03 
1.275500e-01 1.296725e+03 
1.287500e-01 1.278692e+03 
1.299900e-01 1.259080e+03 
1.311300e-01 1.240686e+03 
1.323500e-01 1.220283e+03 
1.335900e-01 1.199436e+03 
1.347100e-01 1.180241e+03 
1.359800e-01 1.158670e+03 
1.372100e-01 1.137654e+03 
1.384300e-01 1.117218e+03 
1.395700e-01 1.098332e+03 
1.407700e-01 1.078925e+03 
1.420300e-01 1.059156e+03 
1.432800e-01 1.040024e+03 
1.444500e-01 1.023069e+03 
1.456300e-01 1.006349e+03 
1.468900e-01 9.895755e+02 
1.480500e-01 9.746736e+02 
1.491700e-01 9.610054e+02 
1.503800e-01 9.470827e+02 
1.516400e-01 9.330910e+02 
1.528200e-01 9.211171e+02 
1.540200e-01 9.091812e+02 
1.551900e-01 8.984916e+02 
1.564300e-01 8.875568e+02 
1.576600e-01 8.772218e+02 
1.588700e-01 8.676086e+02 
1.600900e-01 8.581144e+02 
1.612700e-01 8.494009e+02 
1.625400e-01 8.401969e+02 
1.637600e-01 8.314830e+02 
1.649500e-01 8.231143e+02 
1.662200e-01 8.142890e+02 
1.674000e-01 8.059196e+02 
1.685000e-01 7.982487e+02 
1.697500e-01 7.893833e+02 
1.710300e-01 7.801757e+02 
1.722200e-01 7.717700e+02 
1.734400e-01 7.626616e+02 
1.746400e-01 7.538353e+02 
1.758700e-01 7.447677e+02 
1.770900e-01 7.355658e+02 
1.782700e-01 7.268231e+02 
1.794600e-01 7.179351e+02 
1.807000e-01 7.086885e+02 
1.819100e-01 6.998280e+02 
1.830100e-01 6.918113e+02 
1.842200e-01 6.831248e+02 
1.855000e-01 6.741057e+02 
1.867000e-01 6.658848e+02 
1.879200e-01 6.576715e+02 
1.890900e-01 6.499665e+02 
1.902800e-01 6.424568e+02 
1.915200e-01 6.347635e+02 
1.926900e-01 6.276980e+02 
1.939000e-01 6.207466e+02 
1.951700e-01 6.135719e+02 
1.963100e-01 6.073145e+02 
1.975100e-01 6.010412e+02 
1.987800e-01 5.945084e+02 
2.000100e-01 5.883533e+02 
2.012500e-01 5.824081e+02 
2.023400e-01 5.772588e+02 
2.036100e-01 5.713743e+02 
2.048900e-01 5.656399e+02 
2.060400e-01 5.605649e+02 
2.072200e-01 5.554339e+02 
2.084200e-01 5.503163e+02 
2.096900e-01 5.449810e+02 
2.109200e-01 5.398914e+02 
2.121100e-01 5.349890e+02 
2.132700e-01 5.302745e+02 
2.145200e-01 5.252669e+02 
2.157200e-01 5.204642e+02 
2.168800e-01 5.158563e+02 
2.180700e-01 5.111944e+02 
2.193400e-01 5.062527e+02 
2.206000e-01 5.013519e+02 
2.217500e-01 4.969416e+02 
2.229500e-01 4.924021e+02 
2.241400e-01 4.878728e+02 
2.253500e-01 4.833288e+02 
2.264900e-01 4.791053e+02 
2.277100e-01 4.746191e+02 
2.289900e-01 4.699490e+02 
2.301500e-01 4.657754e+02 
2.313600e-01 4.614798e+02 
2.325600e-01 4.572533e+02 
2.337700e-01 4.530491e+02 
2.350000e-01 4.488335e+02 
2.362000e-01 4.447799e+02 
2.374100e-01 4.407515e+02 
2.386500e-01 4.366786e+02 
2.399100e-01 4.325966e+02 
2.410400e-01 4.290112e+02 
2.422500e-01 4.252240e+02 
2.435000e-01 4.213633e+02 
2.447300e-01 4.176226e+02 
2.458700e-01 4.142310e+02 
2.470600e-01 4.107342e+02 
2.483300e-01 4.070504e+02 
2.495600e-01 4.035489e+02 
2.507600e-01 4.002027e+02 
2.519600e-01 3.968979e+02 
2.532200e-01 3.934715e+02 
2.543700e-01 3.904074e+02 
2.555500e-01 3.873170e+02 
2.568000e-01 3.840834e+02 
2.580100e-01 3.809919e+02 
2.592400e-01 3.779078e+02 
2.604100e-01 3.750178e+02 
2.616100e-01 3.720884e+02 
2.628400e-01 3.691216e+02 
2.640600e-01 3.662317e+02 
2.652200e-01 3.635226e+02 
2.664300e-01 3.607292e+02 
2.676500e-01 3.579455e+02 
2.688400e-01 3.552691e+02 
2.700700e-01 3.525391e+02 
2.712400e-01 3.499719e+02 
2.724800e-01 3.472820e+02 
2.736700e-01 3.447325e+02 
2.748800e-01 3.421716e+02 
2.761000e-01 3.396188e+02 
2.773200e-01 3.370950e+02 
2.785400e-01 3.345995e+02 
2.797000e-01 3.322525e+02 
2.808900e-01 3.298708e+02 
2.821400e-01 3.273968e+02 
2.833900e-01 3.249508e+02 
2.845500e-01 3.227008e+02 
2.857800e-01 3.203407e+02 
2.870300e-01 3.179690e+02 
2.882100e-01 3.157544e+02 
2.893900e-01 3.135612e+02 
2.906300e-01 3.112802e+02 
2.918900e-01 3.089880e+02 
2.930500e-01 3.069003e+02 
2.942500e-01 3.047619e+02 
2.954200e-01 3.026954e+02 
2.966500e-01 3.005457e+02 
2.978900e-01 2.984017e+02 
2.990400e-01 2.964339e+02 
3.002700e-01 2.943500e+02 
3.015100e-01 2.922711e+02 
3.026800e-01 2.903298e+02 
3.038500e-01 2.884079e+02 
3.050300e-01 2.864888e+02 
3.062600e-01 2.845080e+02 
3.075000e-01 2.825318e+02 
3.087000e-01 2.806389e+02 
3.099100e-01 2.787496e+02 
3.111200e-01 2.768801e+02 
3.123100e-01 2.750615e+02 
3.135300e-01 2.732155e+02 
3.147300e-01 2.714179e+02 
3.159900e-01 2.695494e+02 
3.171800e-01 2.678057e+02 
3.183700e-01 2.660808e+02 
3.196300e-01 2.642727e+02 
3.208400e-01 2.625536e+02 
3.220300e-01 2.608793e+02 
3.232000e-01 2.592530e+02 
3.244300e-01 2.575615e+02 
3.256700e-01 2.558730e+02 
3.269200e-01 2.541876e+02 
3.280800e-01 2.526385e+02 
3.292500e-01 2.510962e+02 
3.304800e-01 2.494920e+02 
3.317100e-01 2.479032e+02 
3.328900e-01 2.463932e+02 
3.340700e-01 2.448970e+02 
3.353600e-01 2.432828e+02 
3.365300e-01 2.418347e+02 
3.377100e-01 2.403874e+02 
3.389200e-01 2.389169e+02 
3.401600e-01 2.374239e+02 
3.413700e-01 2.359863e+02 
3.425300e-01 2.346245e+02 
3.437700e-01 2.331819e+02 
3.449800e-01 2.317871e+02 
3.461800e-01 2.304163e+02 
3.473600e-01 2.290825e+02 
3.485800e-01 2.277212e+02 
3.498100e-01 2.263612e+02 
3.510200e-01 2.250353e+02 
3.522000e-01 2.237536e+02 
3.533900e-01 2.224722e+02 
3.546400e-01 2.211466e+02 
3.558400e-01 2.198857e+02 
3.570600e-01 2.186151e+02 
3.582700e-01 2.173658e+02 
3.595000e-01 2.161070e+02 
3.607100e-01 2.148839e+02 
3.618900e-01 2.137048e+02 
3.631200e-01 2.124862e+02 
3.643200e-01 2.113075e+02 
3.655500e-01 2.101096e+02 
3.667300e-01 2.089702e+02 
3.679500e-01 2.078092e+02 
3.691900e-01 2.066392e+02 
3.703600e-01 2.055446e+02 
3.715700e-01 2.044218e+02 
3.727700e-01 2.033176e+02 
3.739900e-01 2.022064e+02 
3.752000e-01 2.011173e+02 
3.763900e-01 2.000549e+02 
3.775800e-01 1.990012e+02 
3.788200e-01 1.979122e+02 
3.800300e-01 1.968584e+02 
3.812100e-01 1.958423e+02 
3.824200e-01 1.948111e+02 
3.836100e-01 1.938050e+02 
3.848600e-01 1.927568e+02 
3.860400e-01 1.917752e+02 
3.872400e-01 1.907849e+02 
3.884600e-01 1.897901e+02 
3.896500e-01 1.888288e+02 
3.908700e-01 1.878511e+02 
3.920600e-01 1.869049e+02 
3.933100e-01 1.859189e+02 
3.945300e-01 1.849644e+02 
3.957200e-01 1.840442e+02 
3.969300e-01 1.831168e+02 
3.981700e-01 1.821739e+02 
3.993500e-01 1.812836e+02 
4.094840e-01 1.739281e+02 
4.272360e-01 1.622144e+02 
4.454600e-01 1.515144e+02 
4.630560e-01 1.422770e+02 
4.804610e-01 1.340537e+02 
4.980690e-01 1.265409e+02 
5.159230e-01 1.196435e+02 
5.317440e-01 1.140627e+02 
5.489640e-01 1.084932e+02 
5.671990e-01 1.031067e+02 
5.838690e-01 9.858024e+01 
6.018840e-01 9.407668e+01 
6.202330e-01 8.986126e+01 
6.379250e-01 8.610317e+01 
6.545410e-01 8.283228e+01 
6.714560e-01 7.972627e+01 
6.892080e-01 7.668881e+01 
7.066010e-01 7.391664e+01 
7.240540e-01 7.131431e+01 
7.420450e-01 6.880834e+01 
7.593780e-01 6.654768e+01 
7.764720e-01 6.445098e+01 
7.942840e-01 6.239686e+01 
8.116170e-01 6.051642e+01 
8.288310e-01 5.875487e+01 
8.462240e-01 5.707261e+01 
8.631980e-01 5.551960e+01 
8.810700e-01 5.397165e+01 
8.989410e-01 5.250630e+01 
9.166330e-01 5.113045e+01 
9.345640e-01 4.980775e+01 
9.515980e-01 4.861232e+01 
9.688720e-01 4.745697e+01 
9.865640e-01 4.633005e+01 
1.031870e+00 4.366936e+01 
1.063490e+00 4.198595e+01 
1.097920e+00 4.029544e+01 
1.134370e+00 3.864460e+01 
1.167730e+00 3.724702e+01 
1.203830e+00 3.584300e+01 
1.240470e+00 3.451926e+01 
1.275790e+00 3.333054e+01 
1.309140e+00 3.227905e+01 
1.342970e+00 3.127486e+01 
1.378420e+00 3.028504e+01 
1.413200e+00 2.937038e+01 
1.448110e+00 2.850309e+01 
1.484090e+00 2.765774e+01 
1.518820e+00 2.688551e+01 
1.552880e+00 2.616552e+01 
1.588630e+00 2.544697e+01 
1.623230e+00 2.478475e+01 
1.657720e+00 2.415591e+01 
1.692450e+00 2.355071e+01 
1.726400e+00 2.298508e+01 
1.762200e+00 2.241377e+01 
1.797880e+00 2.186901e+01 
1.833270e+00 2.135143e+01 
1.869070e+00 2.084934e+01 
1.903200e+00 2.038926e+01 
1.937740e+00 1.994158e+01 
1.973190e+00 1.949918e+01 
2.007440e+00 1.908756e+01 
2.042160e+00 1.868501e+01 
2.077900e+00 1.828543e+01 
2.112390e+00 1.791377e+01 
2.146220e+00 1.756080e+01 
2.181600e+00 1.720408e+01 
2.216930e+00 1.685940e+01 
2.250760e+00 1.654001e+01 
2.286500e+00 1.621350e+01 
2.321770e+00 1.590161e+01 
2.355950e+00 1.560818e+01 
2.391280e+00 1.531397e+01 
2.426240e+00 1.503136e+01 
2.460670e+00 1.476128e+01 
2.495640e+00 1.449519e+01 
2.531080e+00 1.423265e+01 
2.566220e+00 1.397959e+01 
2.600830e+00 1.373730e+01 
2.635080e+00 1.350412e+01 
2.670340e+00 1.327019e+01 
2.705970e+00 1.304006e+01 
2.740040e+00 1.282584e+01 
2.774520e+00 1.261434e+01 
2.809730e+00 1.240365e+01 
2.844390e+00 1.220167e+01 
2.879960e+00 1.199953e+01 
2.914860e+00 1.180577e+01 
2.949410e+00 1.161876e+01 
2.984440e+00 1.143337e+01 
3.019760e+00 1.125096e+01 
3.054730e+00 1.107493e+01 
3.089030e+00 1.090547e+01 
3.124060e+00 1.073663e+01 
3.159560e+00 1.056948e+01 
3.194710e+00 1.040746e+01 
3.229010e+00 1.025314e+01 
3.263320e+00 1.010143e+01 
3.297930e+00 9.951981e+00 
3.332830e+00 9.804418e+00 
3.368040e+00 9.658645e+00 
3.403300e+00 9.515870e+00 
3.438450e+00 9.376259e+00 
3.473060e+00 9.242005e+00 
3.508440e+00 9.106920e+00 
3.543110e+00 8.977624e+00 
3.577470e+00 8.851677e+00 
3.613040e+00 8.724145e+00 
3.648120e+00 8.600593e+00 
3.682910e+00 8.480654e+00 
3.718050e+00 8.361772e+00 
3.753320e+00 8.244801e+00 
3.787980e+00 8.131859e+00 
3.822290e+00 8.022254e+00 
3.857020e+00 7.913290e+00 
3.891920e+00 7.805942e+00 
3.926650e+00 7.700940e+00 
3.961970e+00 7.596256e+00 
3.997360e+00 7.493048e+00 
4.031670e+00 7.395025e+00 
4.066330e+00 7.297522e+00 
4.101420e+00 7.200890e+00 
4.136200e+00 7.106359e+00 
4.170810e+00 7.014261e+00 
4.206250e+00 6.921353e+00 
4.241580e+00 6.830576e+00 
4.276300e+00 6.742800e+00 
4.310970e+00 6.656704e+00 
4.346120e+00 6.570944e+00 
4.380600e+00 6.488105e+00 
4.414730e+00 6.407705e+00 
4.450350e+00 6.324874e+00 
4.485320e+00 6.245179e+00 
4.519810e+00 6.167750e+00 
4.555430e+00 6.089187e+00 
4.590870e+00 6.012375e+00 
4.625480e+00 5.938427e+00 
4.659910e+00 5.866255e+00 
4.695230e+00 5.793212e+00 
4.729960e+00 5.722687e+00 
4.764450e+00 5.653806e+00 
4.799530e+00 5.584804e+00 
4.834910e+00 5.516513e+00 
4.869700e+00 5.450189e+00 
4.904370e+00 5.385229e+00 
4.939450e+00 5.320599e+00 
4.973940e+00 5.257950e+00 
5.008430e+00 5.196414e+00 
5.043810e+00 5.134187e+00 
5.078840e+00 5.073544e+00 
5.113500e+00 5.014600e+00 
5.148890e+00 4.955145e+00 
5.184210e+00 4.896843e+00 
5.219060e+00 4.840252e+00 
5.253660e+00 4.784841e+00 
5.288570e+00 4.729888e+00 
5.323420e+00 4.675817e+00 
5.358440e+00 4.622239e+00 
5.393590e+00 4.569374e+00 
5.428310e+00 4.517901e+00 
5.462800e+00 4.467546e+00 
5.497640e+00 4.417518e+00 
5.532670e+00 4.367877e+00 
5.567280e+00 4.319580e+00 
5.602000e+00 4.271914e+00 
5.637270e+00 4.224117e+00 
5.672410e+00 4.177235e+00 
5.707020e+00 4.131801e+00 
5.742040e+00 4.086426e+00 
5.777430e+00 4.041279e+00 
5.812210e+00 3.997615e+00 
5.846820e+00 3.954734e+00 
5.881610e+00 3.912271e+00 
5.916510e+00 3.870337e+00 
5.951600e+00 3.828744e+00 
5.986560e+00 3.787908e+00 
6.021830e+00 3.747345e+00 
6.056490e+00 3.708027e+00 
6.091160e+00 3.669236e+00 
6.125830e+00 3.631026e+00 
6.161090e+00 3.592725e+00 
6.195760e+00 3.555569e+00 
6.230420e+00 3.518973e+00 
6.265690e+00 3.482283e+00 
6.300950e+00 3.446092e+00 
6.335620e+00 3.411030e+00 
6.370880e+00 3.375893e+00 
6.405550e+00 3.341798e+00 
6.440220e+00 3.308174e+00 
6.475480e+00 3.274471e+00 
6.510150e+00 3.241797e+00 
6.544810e+00 3.209571e+00 
6.580080e+00 3.177244e+00 
6.614750e+00 3.145917e+00 
6.649410e+00 3.114999e+00 
6.684080e+00 3.084495e+00 
6.719340e+00 3.053905e+00 
6.754010e+00 3.024241e+00 
6.788680e+00 2.994976e+00 
6.823940e+00 2.965623e+00 
6.859800e+00 2.936186e+00 
6.894470e+00 2.908122e+00 
6.929140e+00 2.880437e+00 
6.963800e+00 2.853132e+00 
6.999070e+00 2.825718e+00 
7.033730e+00 2.799135e+00 
7.068400e+00 2.772896e+00 
7.103660e+00 2.746564e+00 
7.138330e+00 2.721015e+00 
7.173600e+00 2.695369e+00 
7.208260e+00 2.670495e+00 
7.243530e+00 2.645514e+00 
7.277600e+00 2.621710e+00 
7.312860e+00 2.597404e+00 
7.348120e+00 2.573414e+00 
7.382790e+00 2.550127e+00 
7.417460e+00 2.527139e+00 
7.452720e+00 2.504061e+00 
7.487390e+00 2.481655e+00 
7.522650e+00 2.459154e+00 
7.557320e+00 2.437336e+00 
7.591990e+00 2.415799e+00 
7.627250e+00 2.394168e+00 
7.662510e+00 2.372806e+00 
7.697180e+00 2.352095e+00 
7.731850e+00 2.331649e+00 
7.766510e+00 2.311456e+00 
7.801180e+00 2.291500e+00 
7.836440e+00 2.271472e+00 
7.871110e+00 2.252029e+00 
7.906380e+00 2.232487e+00 
7.941040e+00 2.213513e+00 
7.976310e+00 2.194454e+00 
8.011570e+00 2.175653e+00 
8.046240e+00 2.157385e+00 
8.080900e+00 2.139334e+00 
8.115570e+00 2.121500e+00 
8.150830e+00 2.103619e+00 
8.185500e+00 2.086241e+00 
8.220770e+00 2.068766e+00 
8.255430e+00 2.051792e+00 
8.290100e+00 2.035052e+00 
8.324770e+00 2.018507e+00 
8.359430e+00 2.002153e+00 
8.394700e+00 1.985699e+00 
8.429960e+00 1.969463e+00 
8.464630e+00 1.953702e+00 
8.499890e+00 1.937852e+00 
8.534560e+00 1.922441e+00 
8.569200e+00 1.907213e+00 
