# Parameters:
# omega_b = 0.022886, omega_m = 0.150315, n_s = 0.938189, h = 69.409449, w = -1.000000, sigma_8 = 0.816535
# z = 1.900000
#
# k[1/Mpc] # P(k):
8.694000e-04 2.760277e+03 
2.077466e-03 5.795410e+03 
3.285532e-03 8.151888e+03 
4.493598e-03 9.981182e+03 
5.701664e-03 1.135460e+04 
6.909730e-03 1.234711e+04 
8.117797e-03 1.304230e+04 
9.325863e-03 1.348248e+04 
1.053393e-02 1.370850e+04 
1.174199e-02 1.375779e+04 
1.295006e-02 1.365464e+04 
1.415813e-02 1.343218e+04 
1.536619e-02 1.311814e+04 
1.657426e-02 1.273151e+04 
1.778233e-02 1.229020e+04 
1.899039e-02 1.182101e+04 
2.019846e-02 1.133830e+04 
2.140652e-02 1.085520e+04 
2.261459e-02 1.037874e+04 
2.382266e-02 9.918296e+03 
2.503072e-02 9.480982e+03 
2.623879e-02 9.070019e+03 
2.744685e-02 8.686462e+03 
2.865492e-02 8.333119e+03 
2.986299e-02 8.009469e+03 
3.100100e-02 7.731728e+03 
3.220400e-02 7.465451e+03 
3.288100e-02 7.327911e+03 
3.424300e-02 7.075414e+03 
3.555100e-02 6.859961e+03 
3.686000e-02 6.668029e+03 
3.795000e-02 6.523415e+03 
3.929100e-02 6.362345e+03 
4.039800e-02 6.239620e+03 
4.164000e-02 6.110171e+03 
4.294400e-02 5.979727e+03 
4.415000e-02 5.862422e+03 
4.542900e-02 5.736781e+03 
4.660900e-02 5.620489e+03 
4.782300e-02 5.494825e+03 
4.892900e-02 5.377771e+03 
5.031200e-02 5.225515e+03 
5.155900e-02 5.081968e+03 
5.238100e-02 4.984774e+03 
5.378200e-02 4.815384e+03 
5.513400e-02 4.647291e+03 
5.627600e-02 4.502743e+03 
5.735300e-02 4.365474e+03 
5.870100e-02 4.193373e+03 
5.988700e-02 4.043630e+03 
6.113500e-02 3.889168e+03 
6.225900e-02 3.754512e+03 
6.340100e-02 3.623969e+03 
6.480200e-02 3.474064e+03 
6.601100e-02 3.355568e+03 
6.725500e-02 3.244511e+03 
6.829100e-02 3.161036e+03 
6.958600e-02 3.066062e+03 
7.071100e-02 2.992429e+03 
7.192300e-02 2.920984e+03 
7.307400e-02 2.860022e+03 
7.412300e-02 2.809650e+03 
7.550400e-02 2.750520e+03 
7.663100e-02 2.706781e+03 
7.791200e-02 2.662196e+03 
7.912700e-02 2.623546e+03 
8.027600e-02 2.589172e+03 
8.138400e-02 2.557436e+03 
8.272200e-02 2.520280e+03 
8.406100e-02 2.483506e+03 
8.534100e-02 2.447579e+03 
8.653800e-02 2.412608e+03 
8.759800e-02 2.380693e+03 
8.900300e-02 2.336520e+03 
9.009000e-02 2.300478e+03 
9.113300e-02 2.263991e+03 
9.239600e-02 2.218616e+03 
9.358000e-02 2.174336e+03 
9.496100e-02 2.120315e+03 
9.608400e-02 2.075775e+03 
9.727500e-02 2.028425e+03 
9.852600e-02 1.977293e+03 
9.973800e-02 1.928558e+03 
1.009000e-01 1.882649e+03 
1.020900e-01 1.836345e+03 
1.034000e-01 1.787186e+03 
1.046000e-01 1.743811e+03 
1.057200e-01 1.705524e+03 
1.069100e-01 1.666544e+03 
1.082500e-01 1.625688e+03 
1.093900e-01 1.593367e+03 
1.105400e-01 1.562455e+03 
1.116900e-01 1.534529e+03 
1.129600e-01 1.505332e+03 
1.142000e-01 1.479751e+03 
1.153300e-01 1.457915e+03 
1.166400e-01 1.434608e+03 
1.177800e-01 1.416017e+03 
1.190000e-01 1.397152e+03 
1.201200e-01 1.381191e+03 
1.213400e-01 1.364385e+03 
1.227100e-01 1.346678e+03 
1.238900e-01 1.331818e+03 
1.250700e-01 1.317268e+03 
1.263200e-01 1.302029e+03 
1.275500e-01 1.286968e+03 
1.287500e-01 1.272198e+03 
1.299900e-01 1.256627e+03 
1.311300e-01 1.242058e+03 
1.323500e-01 1.225946e+03 
1.335900e-01 1.209258e+03 
1.347100e-01 1.193609e+03 
1.359800e-01 1.175685e+03 
1.372100e-01 1.157582e+03 
1.384300e-01 1.139630e+03 
1.395700e-01 1.122254e+03 
1.407700e-01 1.104270e+03 
1.420300e-01 1.084814e+03 
1.432800e-01 1.065976e+03 
1.444500e-01 1.048238e+03 
1.456300e-01 1.030751e+03 
1.468900e-01 1.012598e+03 
1.480500e-01 9.962912e+02 
1.491700e-01 9.811290e+02 
1.503800e-01 9.654134e+02 
1.516400e-01 9.495971e+02 
1.528200e-01 9.359074e+02 
1.540200e-01 9.222725e+02 
1.551900e-01 9.101256e+02 
1.564300e-01 8.977222e+02 
1.576600e-01 8.861315e+02 
1.588700e-01 8.755097e+02 
1.600900e-01 8.650445e+02 
1.612700e-01 8.558401e+02 
1.625400e-01 8.461189e+02 
1.637600e-01 8.371892e+02 
1.649500e-01 8.287723e+02 
1.662200e-01 8.199524e+02 
1.674000e-01 8.118986e+02 
1.685000e-01 8.045162e+02 
1.697500e-01 7.960986e+02 
1.710300e-01 7.874654e+02 
1.722200e-01 7.795820e+02 
1.734400e-01 7.711184e+02 
1.746400e-01 7.629168e+02 
1.758700e-01 7.544711e+02 
1.770900e-01 7.458640e+02 
1.782700e-01 7.376825e+02 
1.794600e-01 7.292845e+02 
1.807000e-01 7.204935e+02 
1.819100e-01 7.120658e+02 
1.830100e-01 7.042955e+02 
1.842200e-01 6.958494e+02 
1.855000e-01 6.870686e+02 
1.867000e-01 6.788766e+02 
1.879200e-01 6.706907e+02 
1.890900e-01 6.629818e+02 
1.902800e-01 6.553193e+02 
1.915200e-01 6.474695e+02 
1.926900e-01 6.402274e+02 
1.939000e-01 6.329944e+02 
1.951700e-01 6.255298e+02 
1.963100e-01 6.189977e+02 
1.975100e-01 6.123885e+02 
1.987800e-01 6.055070e+02 
2.000100e-01 5.990175e+02 
2.012500e-01 5.927340e+02 
2.023400e-01 5.872926e+02 
2.036100e-01 5.810829e+02 
2.048900e-01 5.750614e+02 
2.060400e-01 5.697332e+02 
2.072200e-01 5.643523e+02 
2.084200e-01 5.590532e+02 
2.096900e-01 5.535291e+02 
2.109200e-01 5.482599e+02 
2.121100e-01 5.432659e+02 
2.132700e-01 5.384677e+02 
2.145200e-01 5.333711e+02 
2.157200e-01 5.285338e+02 
2.168800e-01 5.239156e+02 
2.180700e-01 5.192430e+02 
2.193400e-01 5.143083e+02 
2.206000e-01 5.094481e+02 
2.217500e-01 5.050740e+02 
2.229500e-01 5.005712e+02 
2.241400e-01 4.961003e+02 
2.253500e-01 4.916147e+02 
2.264900e-01 4.874450e+02 
2.277100e-01 4.830132e+02 
2.289900e-01 4.783965e+02 
2.301500e-01 4.742699e+02 
2.313600e-01 4.700221e+02 
2.325600e-01 4.658192e+02 
2.337700e-01 4.616380e+02 
2.350000e-01 4.574449e+02 
2.362000e-01 4.533979e+02 
2.374100e-01 4.493580e+02 
2.386500e-01 4.452732e+02 
2.399100e-01 4.411790e+02 
2.410400e-01 4.375538e+02 
2.422500e-01 4.337207e+02 
2.435000e-01 4.298130e+02 
2.447300e-01 4.260211e+02 
2.458700e-01 4.225604e+02 
2.470600e-01 4.189923e+02 
2.483300e-01 4.152336e+02 
2.495600e-01 4.116519e+02 
2.507600e-01 4.082171e+02 
2.519600e-01 4.048248e+02 
2.532200e-01 4.013079e+02 
2.543700e-01 3.981564e+02 
2.555500e-01 3.949736e+02 
2.568000e-01 3.916434e+02 
2.580100e-01 3.884597e+02 
2.592400e-01 3.852822e+02 
2.604100e-01 3.823043e+02 
2.616100e-01 3.792858e+02 
2.628400e-01 3.762289e+02 
2.640600e-01 3.732550e+02 
2.652200e-01 3.704686e+02 
2.664300e-01 3.675956e+02 
2.676500e-01 3.647328e+02 
2.688400e-01 3.619859e+02 
2.700700e-01 3.591877e+02 
2.712400e-01 3.565564e+02 
2.724800e-01 3.537995e+02 
2.736700e-01 3.511918e+02 
2.748800e-01 3.485781e+02 
2.761000e-01 3.459726e+02 
2.773200e-01 3.433968e+02 
2.785400e-01 3.408529e+02 
2.797000e-01 3.384670e+02 
2.808900e-01 3.360458e+02 
2.821400e-01 3.335308e+02 
2.833900e-01 3.310445e+02 
2.845500e-01 3.287648e+02 
2.857800e-01 3.263736e+02 
2.870300e-01 3.239706e+02 
2.882100e-01 3.217267e+02 
2.893900e-01 3.195077e+02 
2.906300e-01 3.172015e+02 
2.918900e-01 3.148839e+02 
2.930500e-01 3.127730e+02 
2.942500e-01 3.106113e+02 
2.954200e-01 3.085236e+02 
2.966500e-01 3.063517e+02 
2.978900e-01 3.041856e+02 
2.990400e-01 3.021974e+02 
3.002700e-01 3.000915e+02 
3.015100e-01 2.979903e+02 
3.026800e-01 2.960281e+02 
3.038500e-01 2.940855e+02 
3.050300e-01 2.921457e+02 
3.062600e-01 2.901408e+02 
3.075000e-01 2.881406e+02 
3.087000e-01 2.862248e+02 
3.099100e-01 2.843124e+02 
3.111200e-01 2.824188e+02 
3.123100e-01 2.805743e+02 
3.135300e-01 2.787022e+02 
3.147300e-01 2.768790e+02 
3.159900e-01 2.749840e+02 
3.171800e-01 2.732130e+02 
3.183700e-01 2.714597e+02 
3.196300e-01 2.696216e+02 
3.208400e-01 2.678741e+02 
3.220300e-01 2.661720e+02 
3.232000e-01 2.645162e+02 
3.244300e-01 2.627928e+02 
3.256700e-01 2.610726e+02 
3.269200e-01 2.593555e+02 
3.280800e-01 2.577772e+02 
3.292500e-01 2.562036e+02 
3.304800e-01 2.545658e+02 
3.317100e-01 2.529439e+02 
3.328900e-01 2.514024e+02 
3.340700e-01 2.498750e+02 
3.353600e-01 2.482255e+02 
3.365300e-01 2.467451e+02 
3.377100e-01 2.452656e+02 
3.389200e-01 2.437623e+02 
3.401600e-01 2.422360e+02 
3.413700e-01 2.407658e+02 
3.425300e-01 2.393726e+02 
3.437700e-01 2.378967e+02 
3.449800e-01 2.364697e+02 
3.461800e-01 2.350672e+02 
3.473600e-01 2.337027e+02 
3.485800e-01 2.323099e+02 
3.498100e-01 2.309185e+02 
3.510200e-01 2.295619e+02 
3.522000e-01 2.282506e+02 
3.533900e-01 2.269396e+02 
3.546400e-01 2.255842e+02 
3.558400e-01 2.242951e+02 
3.570600e-01 2.229959e+02 
3.582700e-01 2.217186e+02 
3.595000e-01 2.204316e+02 
3.607100e-01 2.191820e+02 
3.618900e-01 2.179780e+02 
3.631200e-01 2.167337e+02 
3.643200e-01 2.155302e+02 
3.655500e-01 2.143072e+02 
3.667300e-01 2.131437e+02 
3.679500e-01 2.119604e+02 
3.691900e-01 2.107680e+02 
3.703600e-01 2.096524e+02 
3.715700e-01 2.085080e+02 
3.727700e-01 2.073826e+02 
3.739900e-01 2.062510e+02 
3.752000e-01 2.051435e+02 
3.763900e-01 2.040633e+02 
3.775800e-01 2.029918e+02 
3.788200e-01 2.018845e+02 
3.800300e-01 2.008129e+02 
3.812100e-01 1.997812e+02 
3.824200e-01 1.987352e+02 
3.836100e-01 1.977148e+02 
3.848600e-01 1.966515e+02 
3.860400e-01 1.956560e+02 
3.872400e-01 1.946514e+02 
3.884600e-01 1.936443e+02 
3.896500e-01 1.926719e+02 
3.908700e-01 1.916828e+02 
3.920600e-01 1.907256e+02 
3.933100e-01 1.897282e+02 
3.945300e-01 1.887624e+02 
3.957200e-01 1.878338e+02 
3.969300e-01 1.868985e+02 
3.981700e-01 1.859475e+02 
3.993500e-01 1.850496e+02 
4.094840e-01 1.776388e+02 
4.272360e-01 1.658886e+02 
4.454600e-01 1.551797e+02 
4.630560e-01 1.459393e+02 
4.804610e-01 1.377030e+02 
4.980690e-01 1.301597e+02 
5.159230e-01 1.232122e+02 
5.317440e-01 1.175732e+02 
5.489640e-01 1.119262e+02 
5.671990e-01 1.064458e+02 
5.838690e-01 1.018281e+02 
6.018840e-01 9.722222e+01 
6.202330e-01 9.290055e+01 
6.379250e-01 8.904210e+01 
6.545410e-01 8.567801e+01 
6.714560e-01 8.248084e+01 
6.892080e-01 7.935118e+01 
7.066010e-01 7.649299e+01 
7.240540e-01 7.380868e+01 
7.420450e-01 7.122260e+01 
7.593780e-01 6.888921e+01 
7.764720e-01 6.672458e+01 
7.942840e-01 6.460373e+01 
8.116170e-01 6.266195e+01 
8.288310e-01 6.084287e+01 
8.462240e-01 5.910563e+01 
8.631980e-01 5.750179e+01 
8.810700e-01 5.590315e+01 
8.989410e-01 5.438979e+01 
9.166330e-01 5.296880e+01 
9.345640e-01 5.160266e+01 
9.515980e-01 5.036795e+01 
9.688720e-01 4.917457e+01 
9.865640e-01 4.801045e+01 
1.031870e+00 4.526154e+01 
1.063490e+00 4.352194e+01 
1.097920e+00 4.177470e+01 
1.134370e+00 4.006806e+01 
1.167730e+00 3.862289e+01 
1.203830e+00 3.717057e+01 
1.240470e+00 3.580097e+01 
1.275790e+00 3.457068e+01 
1.309140e+00 3.348214e+01 
1.342970e+00 3.244225e+01 
1.378420e+00 3.141701e+01 
1.413200e+00 3.046932e+01 
1.448110e+00 2.957045e+01 
1.484090e+00 2.869418e+01 
1.518820e+00 2.789348e+01 
1.552880e+00 2.714675e+01 
1.588630e+00 2.640135e+01 
1.623230e+00 2.571426e+01 
1.657720e+00 2.506168e+01 
1.692450e+00 2.443350e+01 
1.726400e+00 2.384628e+01 
1.762200e+00 2.325305e+01 
1.797880e+00 2.268732e+01 
1.833270e+00 2.214972e+01 
1.869070e+00 2.162812e+01 
1.903200e+00 2.115012e+01 
1.937740e+00 2.068494e+01 
1.973190e+00 2.022517e+01 
2.007440e+00 1.979734e+01 
2.042160e+00 1.937893e+01 
2.077900e+00 1.896352e+01 
2.112390e+00 1.857710e+01 
2.146220e+00 1.821008e+01 
2.181600e+00 1.783915e+01 
2.216930e+00 1.748071e+01 
2.250760e+00 1.714853e+01 
2.286500e+00 1.680893e+01 
2.321770e+00 1.648452e+01 
2.355950e+00 1.617929e+01 
2.391280e+00 1.587322e+01 
2.426240e+00 1.557920e+01 
2.460670e+00 1.529822e+01 
2.495640e+00 1.502138e+01 
2.531080e+00 1.474821e+01 
2.566220e+00 1.448489e+01 
2.600830e+00 1.423279e+01 
2.635080e+00 1.399014e+01 
2.670340e+00 1.374671e+01 
2.705970e+00 1.350724e+01 
2.740040e+00 1.328432e+01 
2.774520e+00 1.306422e+01 
2.809730e+00 1.284496e+01 
2.844390e+00 1.263477e+01 
2.879960e+00 1.242440e+01 
2.914860e+00 1.222275e+01 
2.949410e+00 1.202814e+01 
2.984440e+00 1.183520e+01 
3.019760e+00 1.164537e+01 
3.054730e+00 1.146218e+01 
3.089030e+00 1.128583e+01 
3.124060e+00 1.111012e+01 
3.159560e+00 1.093617e+01 
3.194710e+00 1.076757e+01 
3.229010e+00 1.060699e+01 
3.263320e+00 1.044911e+01 
3.297930e+00 1.029359e+01 
3.332830e+00 1.014005e+01 
3.368040e+00 9.988363e+00 
3.403300e+00 9.839801e+00 
3.438450e+00 9.694538e+00 
3.473060e+00 9.554852e+00 
3.508440e+00 9.414302e+00 
3.543110e+00 9.279780e+00 
3.577470e+00 9.148751e+00 
3.613040e+00 9.016076e+00 
3.648120e+00 8.887542e+00 
3.682910e+00 8.762772e+00 
3.718050e+00 8.639109e+00 
3.753320e+00 8.517437e+00 
3.787980e+00 8.399958e+00 
3.822290e+00 8.285954e+00 
3.857020e+00 8.172627e+00 
3.891920e+00 8.060982e+00 
3.926650e+00 7.951779e+00 
3.961970e+00 7.842912e+00 
3.997360e+00 7.735587e+00 
4.031670e+00 7.633656e+00 
4.066330e+00 7.532268e+00 
4.101420e+00 7.431789e+00 
4.136200e+00 7.333504e+00 
4.170810e+00 7.237751e+00 
4.206250e+00 7.141162e+00 
4.241580e+00 7.046791e+00 
4.276300e+00 6.955545e+00 
4.310970e+00 6.866049e+00 
4.346120e+00 6.776908e+00 
4.380600e+00 6.690805e+00 
4.414730e+00 6.607242e+00 
4.450350e+00 6.521163e+00 
4.485320e+00 6.438346e+00 
4.519810e+00 6.357885e+00 
4.555430e+00 6.276247e+00 
4.590870e+00 6.196434e+00 
4.625480e+00 6.119602e+00 
4.659910e+00 6.044618e+00 
4.695230e+00 5.968737e+00 
4.729960e+00 5.895476e+00 
4.764450e+00 5.823925e+00 
4.799530e+00 5.752252e+00 
4.834910e+00 5.681320e+00 
4.869700e+00 5.612437e+00 
4.904370e+00 5.544974e+00 
4.939450e+00 5.477857e+00 
4.973940e+00 5.412802e+00 
5.008430e+00 5.348906e+00 
5.043810e+00 5.284297e+00 
5.078840e+00 5.221336e+00 
5.113500e+00 5.160141e+00 
5.148890e+00 5.098419e+00 
5.184210e+00 5.037896e+00 
5.219060e+00 4.979154e+00 
5.253660e+00 4.921643e+00 
5.288570e+00 4.864610e+00 
5.323420e+00 4.808496e+00 
5.358440e+00 4.752898e+00 
5.393590e+00 4.698042e+00 
5.428310e+00 4.644637e+00 
5.462800e+00 4.592395e+00 
5.497640e+00 4.540495e+00 
5.532670e+00 4.488993e+00 
5.567280e+00 4.438886e+00 
5.602000e+00 4.389438e+00 
5.637270e+00 4.339864e+00 
5.672410e+00 4.291244e+00 
5.707020e+00 4.244128e+00 
5.742040e+00 4.197078e+00 
5.777430e+00 4.150269e+00 
5.812210e+00 4.104999e+00 
5.846820e+00 4.060539e+00 
5.881610e+00 4.016514e+00 
5.916510e+00 3.973040e+00 
5.951600e+00 3.929928e+00 
5.986560e+00 3.887606e+00 
6.021830e+00 3.845570e+00 
6.056490e+00 3.804824e+00 
6.091160e+00 3.764622e+00 
6.125830e+00 3.725027e+00 
6.161090e+00 3.685341e+00 
6.195760e+00 3.646852e+00 
6.230420e+00 3.608944e+00 
6.265690e+00 3.570942e+00 
6.300950e+00 3.533454e+00 
6.335620e+00 3.497138e+00 
6.370880e+00 3.460746e+00 
6.405550e+00 3.425436e+00 
6.440220e+00 3.390617e+00 
6.475480e+00 3.355717e+00 
6.510150e+00 3.321887e+00 
6.544810e+00 3.288528e+00 
6.580080e+00 3.255067e+00 
6.614750e+00 3.222642e+00 
6.649410e+00 3.190645e+00 
6.684080e+00 3.159078e+00 
6.719340e+00 3.127423e+00 
6.754010e+00 3.096730e+00 
6.788680e+00 3.066452e+00 
6.823940e+00 3.036085e+00 
6.859800e+00 3.005632e+00 
6.894470e+00 2.976602e+00 
6.929140e+00 2.947965e+00 
6.963800e+00 2.919722e+00 
6.999070e+00 2.891370e+00 
7.033730e+00 2.863883e+00 
7.068400e+00 2.836752e+00 
7.103660e+00 2.809528e+00 
7.138330e+00 2.783116e+00 
7.173600e+00 2.756605e+00 
7.208260e+00 2.730895e+00 
7.243530e+00 2.705075e+00 
7.277600e+00 2.680473e+00 
7.312860e+00 2.655357e+00 
7.348120e+00 2.630567e+00 
7.382790e+00 2.606506e+00 
7.417460e+00 2.582758e+00 
7.452720e+00 2.558917e+00 
7.487390e+00 2.535774e+00 
7.522650e+00 2.512534e+00 
7.557320e+00 2.490003e+00 
7.591990e+00 2.467763e+00 
7.627250e+00 2.445427e+00 
7.662510e+00 2.423372e+00 
7.697180e+00 2.401990e+00 
7.731850e+00 2.380885e+00 
7.766510e+00 2.360042e+00 
7.801180e+00 2.339445e+00 
7.836440e+00 2.318777e+00 
7.871110e+00 2.298716e+00 
7.906380e+00 2.278553e+00 
7.941040e+00 2.258978e+00 
7.976310e+00 2.239318e+00 
8.011570e+00 2.219925e+00 
8.046240e+00 2.201083e+00 
8.080900e+00 2.182467e+00 
8.115570e+00 2.164075e+00 
8.150830e+00 2.145639e+00 
8.185500e+00 2.127722e+00 
8.220770e+00 2.109708e+00 
8.255430e+00 2.092209e+00 
8.290100e+00 2.074953e+00 
8.324770e+00 2.057900e+00 
8.359430e+00 2.041044e+00 
8.394700e+00 2.024087e+00 
8.429960e+00 2.007357e+00 
8.464630e+00 1.991120e+00 
8.499890e+00 1.974793e+00 
8.534560e+00 1.958919e+00 
8.569200e+00 1.943235e+00 
